1532262218817179 1 -5 -49 5 4 4 -1 1
1532262218922896 -2 -11 50 1 -3 0 -3 -1
1532262218997696 -1 -2 2 -11 -9 -6 -1 -2
1532262219035595 5 -1 -12 -1 1 5 1 3
1532262219057537 3 2 7 -1 -8 -3 1 0
1532262219090449 1 6 -2 3 3 1 0 1
1532262219125354 -1 -8 -19 -9 -3 -17 -4 -3
1532262219155275 5 12 -2 1 -2 -24 -6 1
1532262219185195 3 9 6 5 11 3 7 2
1532262219215115 0 -5 -24 -1 10 4 -8 -3
1532262219237056 -6 -12 -13 -11 -11 -10 3 0
1532262219277947 -6 -13 -15 -3 -8 -18 0 -2
1532262219304874 4 12 20 4 -4 2 -1 -1
1532262219349755 0 -5 9 -6 -6 3 0 2
1532262219387653 5 -11 -9 -3 -2 0 23 8
1532262219454475 -45 -4 3 0 -3 -5 -14 -26
1532262219641973 7 11 0 4 1 -7 -32 -42
1532262219709792 -25 -11 3 0 -1 -3 -4 3
1532262219777610 -40 -20 3 -6 -11 -77 -23 -28
1532262219816507 4 8 19 -1 -9 -22 -39 -33
1532262219860389 19 -11 -5 0 -4 -15 21 16
1532262219882330 -33 -17 14 -6 5 11 40 51
1532262219914245 -4 -6 -4 2 -5 -11 -16 -6
1532262219935190 29 5 28 7 3 18 3 9
1532262219972091 -16 2 16 -6 -3 -7 -19 -19
1532262220002010 -9 -4 -11 2 -1 -2 -10 -1
1532262220047891 1 5 7 -5 -3 -6 -5 0
1532262220093765 -2 6 0 -13 -4 -9 22 1
1532262220114709 -8 -7 4 2 0 18 -2 -5
1532262220137648 2 -11 -10 -6 1 6 -6 3
1532262220159589 -2 3 -2 8 -2 1 -5 -1
1532262220182528 -1 -9 -13 -5 3 15 32 4
1532262220197488 2 17 -9 19 1 9 7 0
1532262220235386 3 39 13 11 1 2 7 3
1532262220257328 -2 -35 -16 5 1 -27 -23 6
1532262220280266 9 22 7 -5 2 -3 -11 2
1532262220334122 -7 -53 -17 -17 -6 13 -42 -6
1532262220384986 7 26 1 0 -3 -6 -19 2
1532262220399946 -4 26 -10 7 10 -11 -7 -3
1532262220467765 3 -11 -4 -2 -7 -7 45 0
1532262220497685 -6 -27 3 42 9 -8 -7 2
1532262220549546 -3 -1 6 -2 1 46 43 3
1532262220625343 1 -19 -20 -7 -6 2 -96 -12
1532262220670224 -4 -11 -49 -19 -5 -2 -8 1
1532262220700144 -10 10 4 -11 -1 -10 -5 -8
1532262220715104 -2 8 -8 1 0 -21 -4 0
1532262220745024 -9 -16 6 4 1 4 47 -3
1532262220768960 1 31 6 6 -3 -4 -22 -3
1532262220812843 2 20 3 0 -1 -1 -26 0
1532262220834785 -2 -3 0 -3 5 19 -65 -6
1532262220849744 -5 -21 2 17 1 18 56 -6
1532262220872683 -2 -4 2 -23 -11 -3 -18 5
1532262220894623 -3 10 7 -19 0 123 -38 -7
1532262220939533 4 -6 -16 -13 -4 15 -43 5
1532262221000341 2 28 -6 -3 0 -8 6 2
1532262221107060 2 -11 2 4 -1 5 23 -1
1532262221142960 -1 17 -1 -6 0 10 29 1
1532262221232720 -2 26 -16 3 1 5 4 1
1532262221269621 5 21 13 3 4 7 1 0
1532262221322480 1 31 -3 8 4 -7 1 2
1532262221352400 -4 30 -2 -2 -2 3 -3 -3
1532262221405259 -11 -12 1 5 2 -10 -1 -3
1532262221481056 -13 -29 2 0 -3 0 -5 1
1532262221503994 1 -27 -6 -1 -7 -9 1 1
1532262221554858 0 -8 -5 6 4 5 12 -1
1532262221705464 15 -31 -29 -8 -1 6 44 5
1532262221727396 0 21 17 1 -1 -2 7 -2
1532262221742357 6 48 -12 0 1 5 1 3
1532262221780255 21 -3 24 -5 -3 -3 -3 -18
1532262221802197 -6 23 -15 -5 3 2 1 2
1532262221907914 38 -7 -8 -9 -4 -1 -4 9
1532262221929855 12 -9 -2 1 -2 1 0 -1
1532262221974735 3 -3 -2 3 0 7 54 5
1532262222155252 2 11 2 -7 -5 -2 -3 -4
1532262222260980 0 -16 -3 6 -28 59 6 -3
1532262222291887 0 32 -11 -15 0 6 4 6
1532262222336767 -3 38 10 -9 32 -5 1 -3
1532262222349733 -30 -27 -3 15 9 -10 -7 -8
1532262222387631 23 -41 0 33 -20 -7 3 9
1532262222418549 -11 17 1 -13 -29 -7 -1 -2
1532262222485369 -33 -25 13 -1 0 0 3 -6
1532262222515290 7 26 6 3 -7 1 0 3
1532262222545209 -1 4 -10 -4 -1 0 -1 -6
1532262222626991 2 5 8 3 -2 -5 -2 -2
1532262222702789 4 24 -7 1 -5 -20 -6 0
1532262222747669 -3 29 1 6 -1 10 2 2
1532262222777589 -4 -15 7 5 1 -8 -3 -2
1532262222882308 -17 -17 25 -17 -7 11 -1 -3
1532262222906245 3 23 28 -15 -63 4 -5 -6
1532262222935167 -1 -21 -2 38 -18 -12 -2 -2
1532262222995007 2 0 9 -50 -63 -20 -3 1
1532262223032905 6 19 -9 -5 -23 -11 -3 0
1532262223084767 12 0 1 -1 6 1 -1 6
1532262223107706 -1 19 -12 -2 -16 -4 0 1
1532262223122666 3 0 -5 2 -10 0 1 3
1532262223174527 5 -8 -8 -1 -10 -1 -2 -5
1532262223212426 4 8 0 -3 -9 1 1 2
1532262223236361 -7 11 2 -1 -3 1 1 -1
1532262223310164 19 5 1 1 -2 -1 0 8
1532262223378981 0 7 0 3 2 1 2 3
1532262223474725 10 88 10 0 3 0 -3 -8
1532262223580441 11 58 -1 -3 -14 -3 -1 0
1532262223707103 -2 -46 -22 5 11 5 -1 15
1532262223767940 2 24 -44 -1 -4 12 -10 -7
1532262223797860 -3 5 -39 0 1 -7 -14 -31
1532262224000319 -6 -42 23 2 2 -1 -6 2
1532262224045198 7 -32 -57 1 -7 -4 -25 18
1532262224121994 -16 -73 -44 -10 -8 0 -5 1
1532262224149919 2 -72 -68 -12 -3 -1 9 -1
1532262224277577 7 73 -3 -26 3 12 -1 -3
1532262224412218 11 42 7 1 4 3 1 10
1532262224487017 -4 -45 -17 5 3 4 19 1
1532262224524916 12 -2 -79 13 3 7 1 12
1532262224629636 5 36 5 -8 -6 -9 -30 6
1532262224802174 -3 8 -88 -3 10 6 21 -8
1532262225140271 1 -20 -49 -1 8 10 78 12
1532262225177171 -51 -76 -26 -38 -11 -1 -5 -20
1532262225200111 2 7 92 -26 -6 -7 -15 1
1532262225230030 9 1 30 6 -7 -3 -40 -13
1532262225312809 -8 -40 -44 8 -4 -4 -14 -5
1532262225357690 -30 8 66 -24 -11 -1 22 -43
1532262225409551 -3 -12 -23 -7 -2 -1 42 -22
1532262225447449 -18 -50 -6 6 -1 -2 38 -24
1532262225470388 32 32 21 6 2 -1 1 13
1532262225507289 -8 10 2 -36 -7 -1 -4 2
1532262225582089 -17 -36 -55 -2 6 3 2 1
1532262225672847 1 -16 -13 3 0 1 8 51
1532262225687806 -12 -32 -19 -8 -1 -1 -31 -15
1532262225732687 -4 -10 30 30 5 -3 5 -7
1532262225747647 -2 8 16 38 13 5 14 -3
1532262225807486 -8 -18 -42 6 9 5 -8 1
1532262225891274 -1 29 25 -21 -3 1 -6 -5
1532262225935144 0 1 -14 -22 -6 -4 -3 -3
1532262226017923 1 30 14 -1 0 2 -2 -1
1532262226122644 0 -24 9 -8 -5 0 0 -2
1532262226159545 -3 -21 -39 15 6 6 1 1
1532262226197443 -4 -21 -41 -31 -8 -2 -2 -4
1532262226227364 3 -14 -12 5 0 -1 -1 -1
1532262226296179 -3 14 9 -6 0 1 -2 -1
1532262226363000 1 55 29 7 -2 -1 0 1
1532262226467721 4 19 28 -1 0 0 0 37

1532262226512601 8 29 76 2 -4 32 -8 54
1532262226534542 -17 19 -7 9 12 8 -1 -20
1532262226632281 -7 25 53 -12 -8 -3 -7 -4
1532262226670179 1 9 40 -13 -13 -6 -6 3
1532262226724035 -4 15 -8 -14 -4 -3 0 -3
1532262226774899 -4 -2 5 -18 -10 -3 1 -3
1532262226789867 2 -36 -14 -14 -5 -3 -3 -1
1532262226812798 5 1 10 14 4 2 -1 0
1532262226909539 -5 14 -10 -2 0 1 0 -5
1532262226977427 5 30 79 -18 -10 -3 -2 1
1532262227054205 0 -3 -10 -4 0 -1 -1 0
1532262227075167 0 -8 -1 1 1 0 -2 0
1532262227112041 -9 -17 -5 -1 0 0 -1 -4
1532262227299562 -2 7 5 2 2 0 -2 -1
1532262227330456 -1 13 15 2 0 1 -5 -2
1532262227352425 -3 3 0 2 3 2 -2 -3
1532262227376334 -5 12 -7 -4 -2 -1 2 0
1532262227405279 1 -1 -7 10 -2 -1 0 1
1532262227624669 -4 5 -4 -3 -1 1 -3 -3
1532262227780254 1 -16 -17 4 0 2 1 4
1532262227907935 1 11 30 -2 -4 -2 -1 0
1532262227959797 0 0 -9 0 -1 5 -1 2
1532262228049564 -1 2 -5 -1 -1 3 3 1
1532262228140296 -3 -7 -35 -3 -2 -3 -3 -2
1532262228186180 3 -8 -17 -2 -1 0 2 1
1532262228215091 1 9 -2 -8 -2 0 0 0
1532262228237056 -4 -6 -26 -8 -5 0 -1 -1
1532262228274954 -2 1 4 2 -1 0 -1 0
1532262228319834 7 -5 -10 -2 0 1 -1 -3
1532262228372670 -6 16 7 -5 1 -9 0 1
1532262228409593 0 -2 -3 -3 0 0 -2 -1
1532262228455491 -3 5 1 1 4 11 6 -10
1532262228507310 -2 16 10 -1 -3 -1 -1 1
1532262228560192 -3 -8 -12 -3 0 -2 -2 -2
1532262228634991 -1 1 2 -3 -2 1 -2 -1
1532262228687852 -1 5 45 0 0 -3 1 1
1532262228717746 -5 0 -11 -3 -4 0 1 -3
1532262228769631 -7 3 -3 1 -5 -15 -2 -8
1532262228837449 1 0 0 -1 0 2 1 0
1532262228897267 1 7 18 17 5 1 -2 3
1532262229009987 -4 4 -22 -2 -2 -5 -2 -2
1532262229039886 -4 -1 14 0 -3 -2 -1 -3
1532262229084789 -1 0 7 0 0 4 -2 -1
1532262229129645 -2 4 17 1 -1 0 -1 -1
1532262229144605 -2 -1 16 1 1 0 0 -1
1532262229167567 -2 -1 -8 -3 -1 -7 -1 -1
1532262229197488 1 1 -12 1 0 -8 0 -1
1532262229221422 0 -2 -6 -1 -1 1 0 1
1532262229242367 1 2 0 -2 -1 1 -1 0
1532262229272286 -4 -3 5 -3 -3 -5 -1 -3
1532262229295230 -2 3 6 -2 -2 0 0 0
1532262229325146 -1 3 5 -2 -1 -1 -1 -2
1532262229340083 1 -1 0 -1 0 1 1 5
1532262229356039 -1 3 12 0 0 -1 1 1
1532262229384983 2 16 36 -1 -4 -4 -3 -2
1532262229407924 0 0 -20 -1 1 1 -1 -1
1532262229429865 -4 3 8 -3 -4 -2 -1 -2
1532262229491700 -2 -9 -14 -4 -1 -5 -3 -1
1532262229519625 -1 -2 -8 0 -2 -4 -2 -2
1532262229549522 0 5 0 2 2 2 0 2
1532262229572462 -1 1 2 2 0 4 2 -2
1532262229617369 -2 -3 0 -2 -2 -3 -2 -1
1532262229647271 -5 8 41 -4 -1 1 -1 -5
1532262229670200 -1 -3 9 1 2 3 -1 -2
1532262229700143 -4 6 8 1 -1 -4 -2 -4
1532262229722061 2 10 18 3 3 2 1 1
1532262229754003 2 -26 -85 -1 0 -6 0 1
1532262229774946 -1 2 14 -2 -1 3 0 0
1532262229819800 -5 18 8 0 -2 -3 -3 -1
1532262229834787 -1 -4 2 -1 0 1 0 1
1532262229849720 2 -6 12 0 0 -2 1 0
1532262229887641 1 6 15 0 0 1 -1 1
1532262229932521 3 -15 -9 0 0 -1 2 1
1532262229970424 -9 -1 4 2 2 -1 -1 -2
1532262230007298 -1 -2 -1 -2 -2 -3 -1 -1
1532262230052208 0 -2 -11 -3 1 3 1 -1
1532262230069161 -6 5 -18 -1 1 2 0 -2
1532262230097086 5 -13 -20 0 2 1 0 2
1532262230149937 0 -10 -15 -5 0 -3 0 -1
1532262230164904 1 2 18 -2 -1 2 -1 0
1532262230247678 -1 8 19 -3 -1 0 -1 0
1532262230299540 -5 4 -16 -6 -5 -3 -4 -2
1532262230367360 -4 4 -19 1 -1 -6 -4 -2
1532262230412242 0 9 22 2 -2 0 1 -1
1532262230480057 1 2 9 -2 1 2 -1 -2
1532262230577794 -2 -2 -4 -1 1 1 0 -1
1532262230607720 0 -2 4 -1 0 -1 -1 0
1532262230682493 -4 -1 14 1 -3 -4 -3 -4
1532262230727373 -1 -5 3 1 -1 0 -1 -1
1532262230907913 1 6 49 0 3 -9 1 4
1532262230944818 -2 0 -17 2 -3 -15 -9 -1
1532262231004631 0 -3 -7 5 -12 -57 -9 -5
1532262231042552 12 7 -45 -3 8 4 0 36
1532262231080428 12 48 29 -3 4 38 22 25
1532262231207117 4 33 21 3 1 2 1 -6
1532262231259949 -3 -16 -24 -4 -3 -5 -1 0
1532262231282915 0 3 17 3 3 1 0 3
1532262231409577 -1 10 -21 -3 -2 -1 -2 3
1532262231462431 0 10 -22 27 6 -1 1 1
1532262231507315 -2 5 -10 -5 -10 -3 -2 -2
1532262231590086 1 17 -40 -9 -8 -5 -1 0
1532262231702787 1 -10 -7 3 5 2 0 -1
1532262231739666 -4 -6 -22 -8 -8 -2 -1 -1
1532262231852389 1 -1 -3 1 0 -2 0 0
1532262231912227 2 5 6 -29 -12 -4 -2 -1
1532262231987027 2 -4 -2 9 1 1 -13 3
1532262232002962 -32 25 16 12 7 5 -3 -3
1532262232054823 -2 -16 -7 -1 -3 -4 -10 -17
1532262232084767 17 -4 9 -6 -4 -3 -6 -12
1532262232144610 -47 -41 -6 1 2 -7 -35 -14
1532262232190461 -48 3 2 0 0 -12 -9 -6
1532262232235363 -108 -27 -70 -20 -17 -22 -63 -109
1532262232272242 48 -62 -20 -5 -6 -6 102 42
1532262232347041 -51 2 -54 -8 -10 3 2 -18
1532262232377982 14 -41 -128 -11 -3 -15 -41 1
1532262232467746 55 33 87 23 11 9 -58 0
1532262232497666 -6 47 -7 13 4 0 96 70
1532262232543540 14 30 11 -2 2 -2 6 -27
1532262232617347 -33 -9 -8 0 -4 5 11 -6
1532262232670204 -11 1 3 -2 0 1 -2 -2
1532262232707079 2 -23 -91 14 6 2 4 7
1532262232730041 6 -14 45 -9 -3 -2 -3 2
1532262232751959 10 44 -6 -13 2 3 11 5
1532262232797863 -9 -62 19 -9 -4 -8 2 -2
1532262232866685 3 -55 43 7 2 3 48 5
1532262232887624 -1 39 19 -20 -10 11 -106 -6
1532262232932499 -8 43 -18 11 2 43 -36 -2
1532262232963394 -5 28 3 1 -3 -5 -7 -7
1532262233000318 5 32 23 6 6 8 21 -6
1532262233037196 0 -8 59 -1 -3 -2 7 0
1532262233090076 5 -25 -31 -10 -3 -17 25 6
1532262233112993 9 33 -49 14 10 3 -9 0
1532262233157899 -10 -16 79 26 13 -6 -5 -4
1532262233172833 4 0 38 5 10 0 12 -1
1532262233187824 8 -1 48 -19 -6 -20 5 3
1532262233247633 -2 27 -52 -10 -3 -1 -51 -10
1532262233292540 2 38 41 -8 -3 -33 -11 1
1532262233352383 -9 -14 20 3 2 12 1 -9
1532262233405212 1 8 20 -2 1 -17 -11 0
1532262233457074 0 24 4 1 3 11 21 -3
1532262233472061 1 11 5 39 14 -48 -3 -11
1532262233517938 -8 -14 -12 -3 -4 -43 -67 -4
1532262233577751 -9 -11 -8 -17 -4 -69 20 -5
1532262233637591 1 -8 1 -8 -12 -48 19 -6
1532262233667538 -2 20 1 8 2 22 1 -2
1532262233705432 1 9 0 -5 3 6 13 1
1532262233742342 -4 5 1 -2 -3 -11 -17 -5
1532262233765273 1 -43 0 2 7 33 -2 -1
1532262233795196 -1 -30 -13 3 4 -5 -6 -1
1532262233832071 4 -19 -4 2 6 56 8 3
1532262233847031 -1 -42 -36 4 4 -3 -3 0
1532262233869997 -2 63 -5 -5 -2 2 1 -1
1532262233944769 -1 -27 -17 0 3 -8 -2 -3
1532262233968711 -11 -54 3 -4 -7 -6 -2 -2
1532262233989685 -8 -43 7 5 -1 -5 -3 1
1532262234012588 -16 -11 16 -2 2 1 6 -2
1532262234027570 18 -9 7 3 5 3 2 2
1532262234087410 -59 -14 -5 -5 -8 -3 4 -4
1532262234132296 51 9 0 -1 6 0 -2 8
1532262234170167 -4 -2 0 9 -3 -1 -6 -13
1532262234192135 -10 4 -5 -13 -8 -3 47 -7
1532262234224046 3 -47 1 1 -8 1 11 8
1532262234245964 -6 -11 5 -8 -19 -7 -11 -1
1532262234274914 8 8 10 -7 -1 -1 -5 13
1532262234297852 12 8 -6 1 -4 -2 -11 -2
1532262234312807 -29 2 -14 6 -1 1 -1 9
1532262234327773 30 -3 -3 0 -3 -5 -9 0
1532262234342728 -20 11 17 6 3 2 -2 -1
1532262234440471 -9 -3 -5 -7 -5 -5 14 -4
1532262234507294 0 8 -2 5 1 2 -10 -8
1532262234546160 -7 -5 -3 0 6 0 6 -1
1532262234597025 24 8 -1 14 21 6 -1 7
1532262234627967 10 -1 -5 -14 4 3 1 -5
1532262234672823 0 -15 -7 17 59 3 -3 1
1532262234709723 -3 -2 -1 10 114 30 5 0
1532262234754631 0 -2 -15 12 -31 -13 -5 4
1532262234784547 9 1 9 -61 -51 -15 3 -2
1532262234809457 -8 71 16 -38 -64 2 3 4
1532262234837405 -17 35 1 32 79 13 0 -3
1532262234867326 13 1 -7 0 1 -4 0 2
1532262234890241 42 -38 -18 10 5 -4 1 16
1532262234905227 -28 -8 3 7 11 6 2 -13
1532262234965069 19 -43 -2 -19 10 1 -3 2
1532262235017927 -20 -5 -3 21 7 1 2 -5
1532262235039842 35 12 5 2 -1 0 -1 5
1532262235092727 -9 7 2 8 -3 -2 -1 0
1532262235167522 -8 -22 4 3 -3 -2 1 1
1532262235213403 20 -16 -21 -17 37 5 -3 -1
1532262235242335 -32 11 -18 -32 -110 -13 -4 -7
1532262235369958 5 41 0 -9 6 -6 -3 -5
1532262235453735 -7 -6 -1 -5 21 -3 -3 6
1532262235549503 11 7 5 -2 -9 -3 -3 2
1532262235617328 28 -21 8 5 12 9 4 4
1532262235634273 -2 14 4 -15 -15 -6 -3 -2
1532262235670183 7 -28 -1 16 -1 0 1 5
1532262235723031 -4 -14 -3 -14 8 -6 -1 -2
1532262235759947 -1 3 -3 -18 6 5 0 0
1532262235804818 -4 -1 26 14 6 0 -1 1
1532262235834715 -11 8 34 -11 6 7 -3 -5
1532262235857695 3 -9 67 -22 -12 -20 25 17
1532262235902561 1 -6 -10 -25 -11 10 6 11
1532262235940432 -6 -1 31 3 -3 -4 41 12
1532262235955420 25 6 27 5 16 -15 -21 3
1532262236076077 -4 -1 -73 -2 9 6 -18 -5
1532262236105015 -9 -1 18 -3 2 0 2 -2
1532262236217718 -16 -52 -1 -5 1 5 -21 -22
1532262236284535 -19 1 -13 -30 1 5 27 -5
1532262236330390 -8 -28 26 11 6 2 10 -1
1532262236450092 -4 -10 -93 11 5 3 -22 3
1532262236502956 4 39 74 23 5 4 16 -5
1532262236607671 0 -23 -11 6 4 1 23 -5
1532262236720375 0 6 44 31 11 5 2 -2
1532262236884929 -1 -24 9 -4 0 4 -42 -11
1532262236989626 -2 -49 11 -31 -7 1 -6 2
1532262237080411 -13 -90 -44 -15 -6 -7 -11 -2
1532262237117286 -25 -33 -26 -7 4 -1 -51 -22
1532262237185127 12 50 -11 -10 -9 -2 -9 -3
1532262237259904 -3 -5 -16 -20 2 -2 -53 -4
1532262237319744 -2 -4 -47 -3 -2 0 11 -48
1532262237394567 8 69 -7 3 -3 -4 37 22
1532262237417509 -9 -27 -4 4 0 -7 28 6
1532262237591019 1 2 -10 3 -8 -2 -25 -1
1532262237649861 10 -17 35 5 6 11 45 41
1532262237679811 6 14 -10 -7 4 -3 -45 -22
1532262237845339 -2 38 70 -9 0 1 22 3
1532262237882240 -12 49 1 -20 -15 -10 -7 -2
1532262238017905 16 49 4 -14 1 -3 6 9
1532262238054806 -16 -11 -12 -17 -9 -4 -15 -9
1532262238160496 -3 6 12 -15 -6 -1 6 -1
1532262238317100 5 0 17 4 0 1 3 1
1532262238370946 5 6 30 5 3 3 0 2
1532262238444764 0 -17 -68 -9 -1 -2 1 0
1532262238504598 0 -3 95 5 0 1 2 1
1532262238550489 2 4 -50 3 1 -2 1 3
1532262238580401 0 3 48 19 0 0 -2 0
1532262238640213 -4 3 3 -17 -6 -4 -3 -3
1532262238722022 2 -2 -56 -2 -1 -2 1 2

1532262238842672 -18 -40 27 -2 -6 -24 13 -13
1532262238887574 -5 38 44 56 7 -4 -2 -7
1532262238963376 5 29 60 5 0 -1 4 7
1532262239007254 -6 -2 -8 -23 -8 0 -3 -8
1532262239090011 7 -8 -22 5 18 7 3 2
1532262239307452 -2 23 0 -5 -4 0 1 0
1532262239345350 2 19 36 -2 -2 0 3 -4
1532262239435087 -2 13 59 -3 -4 -7 -4 -2
1532262239509887 4 -2 12 1 0 -2 -1 1
1532262239584715 0 19 -13 -14 -3 4 0 -3
1532262239637568 -1 -4 34 7 2 4 -4 -12
1532262239750267 1 42 22 1 8 30 8 -9
1532262239811082 3 28 17 4 -3 10 27 -10
1532262239847989 3 1 32 9 2 -6 20 24
1532262239937744 7 21 -36 8 29 4 9 -5
1532262240034507 -1 -6 12 -3 6 -3 6 1
1532262240110282 -2 27 17 -11 -13 -2 1 -2
1532262240177132 -2 -16 -13 6 4 -4 -3 0
1532262240192063 0 2 -1 -3 -7 4 0 -1
1532262240215002 0 -4 -3 0 0 -2 0 0
1532262240297805 -4 -24 0 -9 -8 -2 1 -2
1532262240312767 0 -4 -7 -3 2 -1 -2 0
1532262240327723 0 -9 -9 -2 -2 0 -2 0
1532262240364629 0 7 10 -37 -6 0 -3 0
1532262240387568 -1 -28 6 -3 5 0 -2 1
1532262240425489 -1 1 24 17 13 0 -1 -3
1532262240455386 7 0 11 19 3 -5 0 2
1532262240522208 0 17 18 7 -4 1 11 -2
1532262240537167 8 11 4 -6 5 -3 25 5
1532262240589999 16 3 -2 1 -7 14 35 3
1532262240664822 -27 7 -6 -2 -4 -12 -19 -1
1532262240732645 -27 -1 3 0 9 -8 -14 -13
1532262240920144 35 0 13 1 6 26 -58 5
1532262240942086 1 -11 39 0 -10 1 -108 14
1532262241002920 59 -8 -32 -16 -10 -9 -99 44
1532262241047802 -53 -13 -12 -12 -6 -5 -52 -52
1532262241062765 -67 8 66 7 -8 -19 107 10
1532262241197375 29 15 44 7 -8 -15 -11 17
1532262241220314 46 11 19 3 7 3 -9 -1
1532262241242278 -33 -12 -51 -5 -2 4 -33 -20
1532262241272202 -7 -12 -17 -1 -1 1 -32 -3
1532262241325060 11 11 40 9 1 -1 -2 11
1532262241354977 -12 -30 20 11 -3 3 1 -9
1532262241408809 8 32 3 -9 -5 -9 -12 0
1532262241489594 5 33 98 -7 -1 17 28 0
1532262241504581 1 94 -9 -10 4 32 0 7
1532262241565390 -2 -28 14 1 -5 3 -59 -3
1532262241671108 1 3 75 16 8 54 69 1
1532262241692075 3 23 -10 0 1 -17 -55 -12
1532262241767874 2 25 -76 -1 1 13 53 8
1532262241842649 0 -40 0 7 3 -10 -76 -1
1532262241872569 -4 -6 79 -8 -14 -14 -19 -5
1532262241917477 3 37 -57 -9 -3 -17 -11 3
1532262241940388 -8 -14 111 19 2 -13 -24 -6
1532262241985268 0 17 -28 -19 -3 9 72 3
1532262242045132 1 49 30 -11 -11 -31 -36 5
1532262242119936 3 11 -78 -11 -2 44 -8 -1
1532262242179768 -8 -12 22 9 3 5 9 1
1532262242315411 -5 -12 3 -12 -3 18 -37 -1
1532262242376232 -3 8 -9 7 -3 -21 4 -4
1532262242465012 -3 20 -14 -4 1 2 -31 -2
1532262242524848 -3 16 0 2 -5 -9 38 -7
1532262242584665 2 1 1 -1 1 -5 -10 2
1532262242659495 -5 38 5 -1 -1 1 -1 -1
1532262242757204 -3 18 -25 -3 0 -2 -2 0
1532262242869902 0 -11 -13 1 2 -2 0 -2
1532262243072360 -10 -27 -2 -14 -12 -7 -5 -3
1532262243155166 44 6 6 47 20 5 11 6
1532262243192065 -19 55 21 -11 -4 -1 -7 -9
1532262243364603 -3 -5 -64 2 2 -3 -7 -5
1532262243432398 -12 -1 16 11 6 -17 1 -3
1532262243477305 3 28 -2 -44 -4 14 -6 -3
1532262243501239 -3 -17 -2 -35 -35 19 -8 -6
1532262243560080 5 6 14 95 70 23 1 -12
1532262243597956 13 -7 26 4 -79 -9 -6 -1
1532262243672757 16 12 -12 16 7 -1 4 13
1532262243694721 -15 -10 13 -17 -11 -1 -1 -11
1532262243792464 0 15 -4 -20 -8 17 1 5
1532262243852275 -12 -31 -15 10 2 -9 7 0
1532262243875214 6 -32 10 6 2 -16 -7 5
1532262243959013 12 27 -4 11 -3 -8 0 2
1532262243972952 -4 -9 10 -12 -3 47 14 -2
1532262244024814 -7 -8 4 -91 5 52 5 0
1532262244062736 5 -29 6 52 -39 16 9 -2
1532262244137541 3 -9 3 -50 -30 -4 3 5
1532262244325038 6 -11 5 3 2 0 -2 -2
1532262244378867 0 2 -6 -8 3 -4 0 -4
1532262244452692 -3 -14 14 21 -11 -11 -3 -1
1532262244527497 -13 -7 2 -18 -47 -4 0 3
1532262244565392 -14 -34 -20 -3 -15 -1 -3 -5
1532262244587333 -3 9 -2 -26 -19 -5 -3 -1
1532262244677070 11 3 -3 -3 -1 3 0 5
1532262244706990 9 -14 -1 1 -2 -2 -5 -15
1532262244819689 2 -26 2 -5 -4 -1 2 10
1532262244887535 -4 -2 7 0 -3 -1 -1 -3
1532262244970313 -2 46 -16 -39 -11 -2 0 -2
1532262245069053 2 -31 9 -21 -1 -1 -3 -2
1532262245090964 2 2 8 -13 9 6 0 -1
1532262245127885 -1 6 26 -12 -26 -11 1 0
1532262245187727 -2 28 45 -15 -2 -5 -11 2
1532262245262504 -11 -1 12 2 -25 -19 -2 -6
1532262245285443 11 9 -16 -15 13 25 13 -7
1532262245307384 -2 -4 1 0 -30 -18 2 -1
1532262245360243 -2 -13 -25 -5 -4 1 -5 4
1532262245375226 7 5 23 -29 -7 1 5 -13
1532262245435070 9 13 15 8 -6 3 14 9
1532262245457983 1 -7 85 -2 -3 4 20 13
1532262245487902 2 -12 -68 -15 -6 -6 8 6
1532262245524827 -1 -2 -10 5 9 9 -40 14
1532262245584643 6 14 -10 4 -4 -2 -32 -5
1532262245690361 -11 -18 5 40 10 0 -2 -1
1532262245720304 -24 -16 75 -43 -3 1 -5 -6
1532262245742249 5 -17 27 -4 0 3 11 1
1532262245787102 0 21 64 6 5 2 8 9
1532262245914760 8 85 -32 -4 -1 -2 -20 -20
1532262246117245 21 19 -103 16 9 1 31 55
1532262246267843 -30 -72 -34 -14 -3 -2 11 -1
1532262246357599 3 -27 -29 -24 -9 -5 -20 10
1532262246545101 -3 -10 -45 -5 3 2 0 -2
1532262246724622 -10 2 16 -5 2 12 21 34
1532262246770512 -2 -24 27 0 0 3 -37 -8
1532262246972930 -11 -5 3 38 5 3 24 -1
1532262247062718 -1 8 11 -3 0 -1 1 1
1532262247107593 -2 -7 5 4 0 0 3 -2
1532262247205332 -1 8 5 9 0 -3 0 -3
1532262247295093 1 13 14 5 0 1 0 -2
1532262247311042 -5 -4 -24 12 3 3 0 -1
1532262247392835 -2 -7 4 1 -4 -5 -7 -9
1532262247482591 2 0 -27 -5 1 -1 -3 -11

1532262247580307 0 -13 62 -13 -2 -10 0 -3
1532262247602248 -8 -31 -20 -23 -8 6 -1 5
1532262247632192 -2 5 6 -16 -4 -3 1 1
1532262247662088 -6 -5 35 -8 -4 -8 -6 -8
1532262247729906 0 -15 -4 11 1 1 2 1
1532262247789747 4 -8 -5 -13 -3 -4 0 4
1532262247864573 -2 -3 -1 -7 -4 -2 -2 -5
1532262247887508 -3 -8 -17 -12 -5 -3 -3 -2
1532262247917428 0 1 -49 0 -2 -2 -2 -5
1532262247932394 -1 -5 31 3 1 -3 -2 0
1532262247947346 -2 -8 -8 -14 -4 -3 -1 -2
1532262247992228 -4 -1 -19 -7 -3 0 -2 -1
1532262248022152 1 -1 26 8 4 1 1 4
1532262248089945 2 3 -7 0 -1 0 -3 -14
1532262248127870 3 9 7 1 0 0 -1 4
1532262248187682 -4 3 -2 -1 0 3 -4 -4
1532262248217629 1 -6 -2 16 6 4 2 3
1532262248247555 -4 4 13 -3 -4 -3 -5 -2
1532262248292430 2 -9 -22 -3 2 0 0 0
1532262248405128 -3 -4 -6 2 0 1 1 -1
1532262248427067 -1 24 78 -11 -6 -3 -1 -7
1532262248487879 1 -7 27 -2 -5 -4 2 -7
1532262248517823 2 5 29 2 1 -12 -7 3
1532262248562709 2 -22 -44 -8 0 4 -1 -6
1532262248584621 -7 -14 -8 -2 -6 -3 -5 -14
1532262248705326 0 0 24 -21 -9 -15 -3 0
1532262248795058 10 44 30 -3 -5 -6 0 26
1532262248839952 -2 0 -6 -8 -3 -2 0 -4
1532262248922717 0 20 5 3 2 2 3 -4
1532262248982578 -1 41 12 2 0 0 -2 0
1532262249042423 2 8 -13 -5 -3 1 -1 0
1532262249065359 0 6 0 -3 -6 -1 -2 -1
1532262249110243 -1 -27 -4 0 3 -2 -1 -1
1532262249237903 0 -10 3 -8 -5 4 0 -2
1532262249259815 -1 4 9 -6 -3 1 0 -1
1532262249289756 1 7 -22 1 17 -2 -1 0
1532262249312674 4 6 14 -1 -8 1 0 0
1532262249327657 10 12 51 17 -1 -3 -2 2
1532262249349603 11 16 15 18 -4 -3 1 6
1532262249395461 -9 -10 -29 -11 -1 -4 -10 -7
1532262249425372 -2 -15 -9 -8 -4 -21 -8 -1
1532262249440332 -6 -10 -12 -5 6 2 0 -1
1532262249522142 5 2 2 5 4 4 -4 -11
1532262249552057 13 -9 -35 1 3 2 7 7
1532262249687694 47 -2 14 1 0 -5 -13 4
1532262249890130 15 -29 1 0 7 33 50 106
1532262249964957 66 -2 5 3 3 5 -7 -39
1532262250084638 37 4 4 3 4 -7 -4 35
1532262250160407 -31 -19 1 -13 -3 1 45 -1
1532262250205314 -29 3 -16 -17 -4 -2 2 -4
1532262250235207 -16 17 5 9 -2 1 -10 -2
1532262250347930 -5 79 -13 2 -4 -9 -15 -3
1532262250384807 -8 103 -13 11 2 -18 -50 -8
1532262250444647 -9 -2 -15 0 -4 -7 4 -6
1532262250574324 -13 -28 -35 3 0 -12 29 1
1532262250610225 3 -44 10 8 4 -19 72 8
1532262250647105 -2 -12 -3 5 -3 -31 -10 5
1532262250902450 1 21 1 -19 -14 -57 38 3
1532262250917410 -9 21 -1 -3 5 24 -45 -9
1532262250962290 -6 -34 3 19 8 10 -4 0
1532262251134802 -5 25 -10 -8 -11 -4 -14 -9
1532262251427020 -3 8 1 7 5 0 -3 -1
1532262251547724 -30 -4 -2 2 8 0 2 -14
1532262251637479 -15 -12 7 13 1 3 14 6
1532262251706273 -15 0 10 13 5 4 -10 -11
1532262251772125 -32 -1 -3 22 -6 -13 -44 -5
1532262251847922 6 9 53 16 10 -13 -14 0
1532262251944662 -9 -50 -5 -19 16 -22 2 -4
1532262252006471 -23 5 18 -9 -15 1 5 -11
1532262252021458 24 17 4 2 -18 3 3 7
1532262252035420 25 2 -20 81 47 -5 10 7
1532262252057334 -7 11 26 -47 -78 -33 -19 -5
1532262252149114 -12 -38 -19 30 1 2 -2 -5
1532262252199981 20 6 -2 -17 12 11 2 0
1532262252455298 -3 7 -23 30 8 2 3 5
1532262252507172 -28 -11 26 -26 -20 -4 11 -7
1532262252546042 24 23 36 31 9 6 9 0
1532262252567969 5 -4 -9 -15 5 10 -5 6
1532262252636836 19 96 27 15 19 10 3 2
1532262252658737 -9 -45 28 -17 -14 -20 -5 -5
1532262252694630 -2 -32 -6 -7 7 1 5 1
1532262252754493 32 14 7 5 3 -1 5 25
1532262252807329 -3 -26 -5 -5 0 0 2 9
1532262252882152 11 -6 -12 -8 -2 -3 -7 -5
1532262252957926 -2 0 -1 -6 -2 -1 3 -3
1532262253054668 20 38 53 33 4 -5 -2 -2
1532262253130507 11 15 29 -18 -9 -2 -4 1
1532262253144451 -6 -64 -6 -16 13 2 -1 -5
1532262253214241 -14 -11 29 11 0 0 -5 -2
1532262253242193 5 9 30 7 0 1 2 16
1532262253287070 -29 7 14 10 8 5 5 -12
1532262253332946 -23 -7 33 11 8 3 1 -7
1532262253347907 14 2 -6 -2 0 -3 -3 -5
1532262253393761 -1 -10 13 8 1 0 0 1
1532262253429695 -14 3 -2 -3 -1 0 1 4
1532262253512444 -6 -21 5 1 2 1 1 5
1532262253542384 2 37 5 10 9 5 -2 -4
1532262253572306 -5 1 1 -3 -22 -8 0 3
1532262253595249 -6 -69 -19 4 3 1 -2 -4
1532262253617190 -9 16 -5 -7 -8 -1 -2 -7
1532262253648110 -2 18 -10 13 12 6 7 -5
1532262253684982 -4 41 3 0 1 0 -1 1
1532262253707948 -5 -23 -3 1 19 10 0 9
1532262253737864 4 25 -13 13 10 0 23 -6
1532262253759805 -22 -9 -21 0 -16 22 82 -3
1532262253797700 -5 -3 24 -26 -14 5 -2 -12
1532262253812640 8 13 -37 -15 -13 -8 -33 15
1532262253834610 -8 3 21 0 -8 -3 29 10
1532262253857521 5 1 12 1 1 -1 -8 4
1532262253887463 3 7 45 -3 -9 -3 -53 0
1532262253970219 -9 -1 -5 -11 -4 -1 -14 -5
1532262254045046 3 8 3 2 0 -2 4 8
1532262254104882 -2 -11 2 -2 -5 -1 4 2
1532262254164726 12 99 6 0 -2 -1 -4 4
1532262254189633 -5 -70 -1 4 7 6 -23 -16
1532262254240501 -1 37 7 0 0 1 -15 -7
1532262254255456 -5 -22 2 -2 5 0 -20 -8
1532262254315296 -8 -24 0 -43 -22 -12 -9 -7
1532262254367186 -40 -78 -15 47 0 -8 -2 -14
1532262254472875 -13 -26 4 -7 0 6 29 -8
1532262254524761 20 27 5 4 11 6 -9 43
1532262254554681 -4 -43 -24 -8 0 0 -32 31
1532262254645441 -9 -10 -6 -16 0 -1 -6 8
1532262254675356 8 -1 -9 29 3 0 -5 8
1532262254795041 3 81 16 3 5 6 16 -85
1532262254810001 11 95 -26 -5 -4 -2 -17 54
1532262254824954 -8 -17 -38 -2 -1 -2 -2 51
1532262254862855 5 -14 -14 -2 -5 -35 -76 15
1532262254944636 11 -8 5 5 -2 -4 19 10
1532262254982539 -8 22 1 83 23 16 82 13
1532262255027392 -1 23 -14 -22 -4 -3 32 -8
1532262255087240 6 -8 15 -2 -7 -4 -28 -6
1532262255222870 -44 -18 -16 -7 -10 -33 -56 -22
1532262255259795 7 4 -16 -48 -17 4 2 -14
1532262255327589 -15 0 -14 -11 -3 4 4 -7
1532262255357510 -20 9 2 -2 2 4 19 -1
1532262255492172 -3 7 -13 8 1 1 -16 -21
1532262255537029 -2 -8 -5 -41 -11 -2 -6 -6
1532262255575925 -1 -9 -4 -8 -1 -2 -37 6
1532262255679673 5 -39 -30 -11 -8 -6 14 0
1532262255702587 8 -12 -7 -29 -2 4 16 1
1532262255920032 4 21 -27 -56 -11 -5 -19 -14
1532262255949957 4 2 -10 10 -4 -3 7 -12
1532262255994830 10 11 -3 1 -5 -4 37 -1
1532262256047688 1 21 14 2 0 1 4 1
1532262256071625 -2 -66 -3 2 2 0 0 -3
1532262256101544 -2 42 42 9 1 -4 -4 -1
1532262256130467 -8 2 95 11 6 -2 2 -2
1532262256160386 -2 -45 45 -8 4 5 4 4
1532262256175347 1 -6 -50 1 -1 1 2 1
1532262256220216 -2 -2 39 -14 -5 -3 -2 -2
1532262256250145 -4 42 68 -20 -4 0 -1 -4
1532262256303004 1 3 -2 2 0 0 -2 -1
1532262256347891 -1 17 -14 2 4 2 3 2
1532262256399749 6 26 -82 -13 -4 0 1 0
1532262256438618 -1 13 -67 1 0 4 3 7
1532262256459586 1 7 0 -3 0 -10 1 -22
1532262256490510 3 70 123 -5 -6 13 -4 15
1532262256535382 6 31 127 -31 -18 -26 -6 2

1532262256550320 0 -12 31 -3 -5 -19 -5 -3
1532262256572289 0 13 -34 23 23 -8 -7 -5
1532262256595200 3 -13 24 11 -1 -4 -1 5
1532262256670027 2 -1 21 -49 -18 -11 -3 -1
1532262256752792 -2 7 -6 2 2 4 0 0
1532262256774742 4 -3 -3 19 4 0 1 -2
1532262256813621 -8 7 -2 12 -4 -2 -2 -1
1532262256834582 3 2 33 3 4 1 -2 1
1532262256864502 -1 -1 25 -6 -1 -4 -1 0
1532262256895424 0 19 57 -1 0 -8 -2 -3
1532262256947258 -1 9 -15 -12 0 3 2 0
1532262256977201 0 5 34 -10 -5 -4 -3 -1
1532262257000145 0 -3 20 9 2 1 0 0
1532262257037041 -4 0 -41 4 2 1 -1 -2
1532262257074939 0 1 25 4 3 10 1 0
1532262257097883 3 0 -52 3 -1 -5 1 1
1532262257112839 0 -8 3 5 -1 -2 -3 -3
1532262257134785 -1 3 11 -5 -3 -11 -4 -3
1532262257180657 -9 -5 13 -3 -5 -4 -4 -3
1532262257202600 -2 -2 19 1 0 -1 -1 0
1532262257240479 2 -6 -1 -7 -2 3 3 1
1532262257263440 -2 -7 41 -4 -3 1 0 1
1532262257300338 -2 4 -31 0 -1 -2 0 -2
1532262257322284 -2 4 18 2 -1 -3 -1 -1
1532262257352203 0 -2 -4 -2 0 3 6 4
1532262257382119 -1 2 3 -2 0 3 -1 0
1532262257442986 1 6 -25 -12 -3 1 0 -1
1532262257464897 2 -6 -7 5 0 -23 -8 -1
1532262257517760 -2 -2 -50 1 -2 1 1 -2
1532262257539682 -3 -1 21 3 -1 -5 -9 -3
1532262257562613 -1 3 -9 -4 0 1 -2 -1
1532262257599514 -1 5 13 2 -3 -1 1 1
1532262257630431 -1 3 35 6 1 -7 -3 -1
1532262257684311 2 -1 11 -4 -2 -1 0 1
1532262257720219 -3 -10 40 -2 -2 -1 -1 -2
1532262257752129 2 -4 8 0 0 0 2 0
1532262257809979 -7 12 -6 5 3 0 0 -3
1532262257839872 0 -4 -50 -10 -4 0 -2 3
1532262257877797 -1 -8 -16 -2 2 -2 -3 -4
1532262258005450 3 -3 -18 -2 2 18 2 -1
1532262258126129 3 2 9 -3 -5 -7 0 -1
1532262258155051 0 -1 -11 -1 0 4 2 0
1532262258237807 -1 2 41 6 2 2 1 -2
1532262258274709 1 -24 -76 -4 -5 -18 -8 -5
1532262258319616 1 -1 2 2 4 3 1 0
1532262258342555 2 -11 -19 -7 -3 3 -1 -1
1532262258402394 -3 -4 18 6 -1 -2 -4 -3
1532262258492150 8 -13 -37 -2 -5 -14 5 16
1532262258537030 -5 -18 -40 -15 -2 7 6 -15
1532262258567924 -12 0 58 24 1 9 -2 -4
1532262258702565 -4 13 -21 1 -4 -12 3 -32
1532262258770383 3 7 5 3 -1 -1 0 1
1532262258800327 -9 -84 -4 -3 -5 -3 -3 1
1532262258815292 4 36 -13 0 -1 0 -2 -1
1532262258830223 -1 -27 10 -3 0 -2 -1 -1
1532262258867124 -1 8 -8 0 -1 1 1 1
1532262258897068 -3 -9 15 -2 -1 -2 -2 -3
1532262258934943 -1 -5 -8 -3 -3 -4 -1 0
1532262258964891 1 -26 12 1 2 2 0 -1
1532262258987801 -1 10 -14 15 4 3 0 -2
1532262259017749 0 2 2 -15 -4 -1 0 1
1532262259062601 -4 -15 -16 -13 2 0 2 -1
1532262259092544 3 23 11 -17 -2 -3 0 -1
1532262259116458 -3 -7 -4 22 5 -1 -2 -1
1532262259145404 -2 -8 -8 2 -6 -4 -2 -1
1532262259197242 1 -1 -34 6 4 3 1 2
1532262259212225 1 1 -26 1 4 5 0 0
1532262259235140 -3 -5 1 -2 0 -1 0 -1
1532262259250127 -7 -4 1 -1 5 -1 0 -2
1532262259272042 17 24 9 6 -5 -2 1 7
1532262259295004 -2 -4 -4 -6 -2 1 -1 -1
1532262259317944 6 7 -1 7 -2 2 7 5
1532262259339860 -3 -2 -1 -2 0 -4 -3 -3
1532262259354843 -9 -2 4 2 -5 -2 -1 -1
1532262259377782 6 3 2 0 -4 -3 -1 3
1532262259392743 2 0 -12 -11 -4 -1 -1 0
1532262259407679 2 3 -4 -2 -12 -1 0 0
1532262259437627 -2 2 -2 -2 -2 -15 -1 1
1532262259459540 -2 -5 -3 0 -3 -3 1 0
1532262259474527 -4 -7 -7 1 3 -3 1 -1
1532262259505445 -1 -4 -5 -7 -9 -2 -3 -3
1532262259520410 5 5 4 1 2 2 -1 1
1532262259535356 -2 5 2 2 2 -3 -13 0
1532262259557305 4 6 6 -1 -1 -4 -6 1
1532262259595204 -1 -3 -6 -3 -3 1 15 -2
1532262259610138 -11 -1 -1 -1 -1 1 -2 -8
1532262259663006 -15 -2 -1 5 0 -3 -9 -21
1532262259677982 39 24 7 12 5 4 7 30
1532262259722836 8 -11 -14 1 0 -3 2 -2
1532262259774721 -18 -10 -4 -1 -3 -1 1 -13
1532262259872436 -53 -3 4 1 -3 -11 -10 -50
1532262259902379 60 6 -14 -12 -10 -5 72 89
1532262259949258 124 -48 -83 -10 -9 -32 74 -3
1532262259992145 -35 42 111 3 -2 -2 -74 3
1532262260015084 4 1 26 -5 1 5 -83 -4
1532262260104841 -15 -10 -37 -19 -7 -2 3 16
1532262260127781 -18 -8 1 -4 -9 -9 -13 5
1532262260157694 22 29 -6 2 6 7 22 16
1532262260187616 10 2 5 5 1 0 -4 2
1532262260224522 -8 -7 19 -5 -3 0 -2 -1
1532262260262418 3 -1 9 2 3 -1 -7 -1
1532262260300316 4 32 -1 20 5 -4 46 2
1532262260397056 4 49 22 5 3 1 -33 -3
1532262260532694 -10 18 -26 4 -5 -34 -101 -6
1532262260547655 -6 16 -3 -8 -3 26 14 0
1532262260577551 4 19 71 11 4 2 12 1
1532262260607471 2 -5 -14 -10 -6 3 -2 -8
1532262260637413 4 25 22 4 -2 2 44 -3
1532262260660350 -3 21 69 14 3 0 112 4
1532262260720192 -4 12 25 -2 0 -3 44 3
1532262260774025 -5 1 -71 -3 -4 5 -11 -5
1532262260982467 0 25 -17 -5 -7 -18 42 -2
1532262261080233 -1 -5 -1 3 -3 -3 -20 0
1532262261134087 0 21 -7 -2 -1 -11 20 -1
1532262261192905 -3 22 1 -2 2 3 -6 -2
1532262261214874 -2 -11 -3 4 -3 -5 3 1
1532262261267729 -2 -22 -5 1 -1 -7 -2 0
1532262261289646 -2 -8 -24 -9 -14 -10 -2 -2
1532262261336521 2 4 6 2 4 -1 0 0
1532262261425311 1 -24 -19 1 1 1 -1 0
1532262261456201 -2 -19 0 -3 -6 6 2 -2
1532262261492132 0 2 -7 -6 -5 -2 11 2
1532262261522049 20 10 0 -15 21 15 3 4
1532262261544963 34 -9 -1 -10 -5 -10 -5 4
1532262261574906 -20 -5 -4 -42 -48 -10 0 -11
1532262261679633 -14 -92 -10 -3 -11 0 37 -2
1532262261755401 4 17 0 0 2 -2 0 0
1532262261785321 14 34 -29 1 -4 1 22 4
1532262261822221 4 -3 -17 -5 -2 -3 -4 2
1532262261845160 21 4 10 -1 0 -8 4 0
1532262261957883 -8 1 6 -22 7 10 5 2
1532262261987806 -11 -7 23 -28 -27 -12 10 -1
1532262262009721 24 -5 -25 -17 6 -1 0 8
1532262262024681 -12 -7 -20 -20 4 -6 -26 -10
1532262262069561 43 2 -8 57 23 -2 -26 15
1532262262100511 -15 5 7 -23 21 18 9 -4
1532262262145358 -7 -5 14 -17 41 -6 -12 -3
1532262262168320 5 37 -4 -6 -38 -9 5 -6
1532262262212202 -18 -2 9 -4 24 1 -15 -1
1532262262236115 14 -31 -17 4 9 1 -1 10
1532262262288004 -10 25 2 -12 -13 -4 0 2
1532262262339837 -8 -10 9 3 -5 -2 -10 1
1532262262565259 15 -8 -1 19 22 4 2 5
1532262262580216 4 20 5 13 -1 -3 0 -4
1532262262617097 12 4 13 -11 47 5 2 3
1532262262647040 -2 -24 -11 -6 -22 1 -3 -6
1532262262669978 -7 30 -4 -50 5 18 1 -2
1532262262692921 4 48 19 57 13 -8 4 7
1532262262707853 6 -28 7 9 -9 -2 -3 -4
1532262262744782 -2 -36 -7 6 17 -1 -1 13
1532262262782654 5 -22 7 16 -10 -3 0 -5
1532262262819554 -8 20 10 3 -11 0 4 -1
1532262262872437 -5 -4 -1 5 -3 1 -1 -14
1532262262917316 4 -7 2 0 -4 -4 -2 -3
1532262262932283 5 -8 -4 -3 -3 -1 -1 1
1532262262992122 6 -8 -1 -2 -1 -1 -2 -4
1532262263044952 -1 6 -1 1 -1 -1 0 -1
1532262263104815 0 0 -1 -11 -2 1 0 6
1532262263134712 11 12 -5 -5 -23 -9 -2 -1
1532262263164657 7 -6 -1 26 -4 -1 2 5
1532262263202531 0 -12 2 0 17 -1 -3 -1
1532262263240457 -7 28 -4 -24 -20 -1 1 1
1532262263277352 0 -29 -1 18 6 -5 -2 -1
1532262263345150 -3 0 -3 0 -12 2 0 2
1532262263375070 -9 -5 3 4 5 2 2 -9
1532262263405012 7 -16 -3 2 1 -2 -2 3
1532262263427956 6 -4 -5 -4 -2 0 0 5
1532262263494772 -2 -2 1 1 -1 0 -2 -4
1532262263547636 2 -21 -2 -1 2 -2 -2 -4
1532262263637391 9 8 5 13 16 4 1 0
1532262263683246 6 8 -4 -2 6 6 2 2
1532262263712188 7 -7 5 3 3 1 -1 14
1532262263742088 1 3 -3 -2 -6 0 0 1
1532262263802953 -4 1 8 -4 -6 1 -1 -4
1532262263825864 -1 4 15 3 7 -7 4 1
1532262263900681 -5 8 9 2 -8 -14 -9 -1
1532262263914627 23 9 12 12 32 -25 9 -2
1532262263937589 0 -3 -30 7 -9 -6 -24 4
1532262263967485 4 10 69 1 -14 22 8 36
1532262263990458 -7 -8 3 6 0 3 3 -5
1532262264012389 -7 -4 24 -7 -3 1 6 -2
1532262264095144 -5 3 40 5 -2 9 52 3
1532262264178920 9 6 -33 -7 -12 -6 -1 20
1532262264237763 -8 -16 11 -1 1 2 -13 4
1532262264319571 8 3 1 -23 -5 3 9 2
1532262264530008 -6 -1 -15 26 3 5 11 -1
1532262264597800 -2 0 -41 36 8 2 8 0
1532262264687583 21 78 22 1 2 1 -24 -45
1532262264867111 -3 -60 -46 4 -8 -5 15 44
1532262264912980 -35 -95 21 2 -10 -13 13 -55
1532262264949882 15 24 -22 -11 2 -5 -33 28
1532262265190238 13 13 20 8 0 1 33 38
1532262265407634 -15 -48 -72 -78 -14 1 6 0
1532262265429606 5 25 59 4 4 6 -5 16
1532262265550253 9 14 -17 -1 -4 -4 -15 27
1532262265625053 -5 9 36 45 7 2 -24 0
1532262265655005 -1 -3 -2 -10 -9 -7 -13 -26
1532262265714841 -3 -26 -18 -12 -8 -2 -7 -22
1532262265767672 -7 -26 -7 -10 -9 -4 -16 -8
1532262265895365 -5 -40 -22 8 5 5 18 -5
1532262265917295 -8 -6 -1 -28 -34 1 -5 -1
1532262265970153 0 43 14 -4 3 2 0 1
1532262265992098 15 84 35 10 -2 1 0 -30
1532262266061885 2 -25 -25 2 0 -4 0 4
1532262266119755 -1 -20 71 -10 -6 1 1 0
1532262266149677 0 25 18 5 5 2 -1 0
1532262266179599 -1 -12 28 -2 -1 -1 0 -1
1532262266202509 2 0 11 -9 -2 1 2 1
1532262266225475 -1 0 8 13 1 -1 -2 -1
1532262266247417 1 -5 -12 -7 -1 0 -2 -1
1532262266262349 6 -11 34 5 5 2 0 2
1532262266285316 -1 -19 1 1 4 3 -2 1
1532262266449874 6 12 25 4 -4 -1 -2 1
1532262266472800 3 -26 -47 -4 4 1 2 12
1532262266524670 -3 -3 87 -3 0 9 -19 -24

1532262266554588 -3 4 -95 1 -6 -3 -4 -10
1532262266652329 -1 11 -1 -5 0 -3 0 0
1532262266682248 -6 10 -2 -6 -6 0 -1 -3
1532262266735116 0 3 0 10 1 -4 -4 -4
1532262266757026 3 2 3 -11 -4 -1 -3 -1
1532262266817893 -3 1 -4 2 1 -2 0 -2
1532262266854788 2 3 9 5 5 1 0 1
1532262266899645 -4 0 14 18 3 1 2 -3
1532262266952526 1 -4 -45 -2 -1 0 2 2
1532262267005385 -4 -5 -9 1 2 -3 0 1
1532262267027326 0 -3 -1 -1 -4 -3 -2 -1
1532262267065228 4 -18 -78 3 -2 -3 0 3
1532262267140002 3 15 45 8 4 -4 0 2
1532262267184905 6 6 27 5 4 16 1 2
1532262267214802 1 20 43 4 -3 -3 23 -5
1532262267252728 -15 -27 4 4 3 -37 26 0
1532262267282645 0 8 -11 -1 2 14 11 -16
1532262267312561 -2 -25 23 -8 -1 8 4 -1
1532262267342495 6 20 5 7 -3 6 2 -3
1532262267372442 -1 -21 22 -11 -4 -1 0 0
1532262267417284 -3 -15 -26 -7 -7 -14 2 61
1532262267447208 -4 40 -5 1 2 10 -1 -60
1532262267501064 3 17 -18 -2 -2 2 -1 -2
1532262267559908 3 -7 2 -3 1 0 -2 6
1532262267612738 1 5 -5 2 3 -2 -1 -3
1532262267634679 -1 -24 -24 3 2 2 1 1
1532262267709502 -4 -12 -58 -7 -3 0 1 -1
1532262267740419 1 8 -11 -2 -10 -4 1 2
1532262267824172 0 -5 -20 -25 -8 -7 -2 0
1532262267845117 -2 -17 -5 -14 -12 -4 -4 -4
1532262267867087 1 10 -56 -8 -3 -3 0 2
1532262267904983 3 6 25 15 8 1 -1 1
1532262267919916 1 11 19 10 3 5 0 0
1532262267949836 3 0 3 18 8 -3 0 0
1532262268107435 -2 -8 -7 8 9 -7 -5 0
1532262268130377 5 6 3 3 -27 -14 -3 1
1532262268145338 -4 1 1 -3 -18 -11 0 -3
1532262268167282 -5 -18 -18 -12 -11 -10 -4 -5
1532262268182242 -3 9 16 22 7 0 1 1
1532262268197197 11 -16 -20 -15 -8 -6 -1 5
1532262268272972 5 -5 -14 -11 -13 -7 1 17
1532262268324856 -3 3 -7 7 3 7 2 -8
1532262268407612 23 27 10 -3 -1 2 4 11
1532262268429553 8 -2 2 0 -3 -1 -1 -4
1532262268497393 22 -6 6 -2 0 -1 13 5
1532262268557235 -8 5 -5 1 -2 0 -69 -33
1532262268617052 1 2 1 4 0 3 -45 31
1532262268737729 19 11 0 5 4 11 3 24
1532262268752690 4 12 -43 1 6 1 -28 -26
1532262268774658 -3 3 -15 5 2 3 -26 -14
1532262268820508 -8 3 68 4 -1 -6 -11 -9
1532262268895308 1 1 -62 20 14 10 35 8
1532262268925228 -11 -11 -15 -30 -13 -6 -21 -14
1532262268962152 6 60 -16 -10 -8 -2 2 1
1532262268985095 -2 -26 -16 3 3 6 -14 -3
1532262269044908 1 39 47 18 5 -2 3 -3
1532262269149651 -3 0 -14 -10 -7 -1 6 -7
1532262269188524 -8 -12 -21 4 5 -14 11 -1
1532262269240412 4 -21 88 -5 6 40 76 -1
1532262269300225 -8 -3 -67 -14 -3 -17 -51 0
1532262269449825 -2 -6 14 3 0 8 -20 -2
1532262269524653 -2 -28 -9 10 8 -4 33 1
1532262269607427 -7 25 0 3 -7 -19 5 -12
1532262269652283 2 34 43 -1 9 19 26 3
1532262269699182 -4 52 15 -15 -10 -29 -37 -3
1532262269727109 5 -22 -22 -5 0 -9 3 1
1532262269794902 7 65 11 6 -1 -14 -11 2
1532262269854742 -7 -28 -15 -5 0 24 26 -1
1532262269914610 -4 20 -10 1 -4 -19 -2 -4
1532262269960482 0 -5 7 5 -3 -3 4 -1
1532262270050243 -16 -12 -18 -6 -8 -12 -5 -2
1532262270065201 29 16 -13 4 18 -9 12 5
1532262270080140 5 -7 -8 -4 -3 10 12 0
1532262270117064 3 27 16 -2 -13 11 -12 -6
1532262270139979 -7 12 -6 5 -1 1 7 2
1532262270154962 29 13 -2 13 16 7 3 6
1532262270169923 -13 3 -2 1 35 6 0 -2
1532262270231735 11 -3 -4 2 -10 -2 -4 -4
1532262270282618 4 -34 -14 4 -4 1 3 5
1532262270312518 9 48 11 3 -2 -3 -4 0
1532262270327509 -29 14 18 10 2 6 5 -9
1532262270357398 7 -31 0 2 3 0 -2 -3
1532262270387318 0 -6 -4 1 -1 2 4 1
1532262270410281 24 -13 8 5 2 2 5 11
1532262270425217 1 9 -3 -3 -2 -1 -3 1
1532262270440177 4 -12 0 -1 -2 -1 4 0
1532262270515005 3 36 -5 0 0 -4 -10 -5
1532262270619728 -7 4 -68 5 19 10 29 -10
1532262270651635 41 -4 10 -23 10 -11 -8 22
1532262270687535 8 -2 -19 7 -18 -8 -4 0
1532262270725434 14 -59 -20 16 33 10 0 3
1532262270764352 -15 34 2 -18 2 18 3 -6
1532262270777302 -1 -14 -10 -9 -10 -3 14 3
1532262270822155 1 1 5 7 -9 2 1 0
1532262270845122 -4 -3 3 -3 2 1 1 -2
1532262270889974 -1 9 8 5 3 0 -4 6
1532262270912936 10 1 -1 3 -3 0 2 11
1532262270972756 -22 -3 1 0 -2 -1 -4 -6
1532262271047576 2 -6 -5 0 0 -1 0 1
1532262271167260 2 1 0 -9 -6 -5 1 -3
1532262271197180 6 3 -7 -18 -24 -5 -2 -1
1532262271227095 16 6 8 48 14 11 5 8
1532262271264999 2 7 -5 51 3 -14 -1 4
1532262271326829 1 0 5 5 21 1 -5 -3
1532262271354731 11 2 2 2 2 -5 -6 2
1532262271422549 9 -4 3 11 10 2 0 6
1532262271520316 -5 -12 -3 -3 -2 0 0 -11
1532262271625031 -1 8 -6 -12 -9 -5 -1 -3
1532262271714792 -3 -4 -3 -10 -23 -10 -4 -2
1532262271737707 10 16 9 17 7 -10 -2 0
1532262271804528 -3 -13 1 -5 20 7 1 -3
1532262271851403 -3 1 5 -21 36 22 -1 -1
1532262271880346 -5 28 -18 -14 -37 -8 -2 -3
1532262271985069 2 4 4 -5 -4 -4 -1 -3
1532262272127691 -6 0 3 -2 -1 0 1 -4
1532262272285243 12 -15 -87 -21 6 1 16 5
1532262272308182 -6 -10 3 -6 -11 -13 6 -2
1532262272352091 -6 -7 38 12 3 8 -5 3
1532262272367051 2 2 18 -9 -24 2 -13 -15
1532262272404945 -3 -12 19 -5 -10 -5 -22 6
1532262272427886 2 -3 14 -13 -4 -5 5 13
1532262272442848 -6 -14 16 -4 -7 0 7 -3
1532262272496702 3 -12 -17 -3 1 -3 5 1
1532262272509643 -4 -7 75 9 1 6 7 -4
1532262272615387 -7 -5 -91 -31 -10 -3 9 -3
1532262272646293 9 80 -33 11 7 1 -2 -2
1532262272690183 -4 0 16 2 -9 -5 -27 -53
1532262272779940 -5 4 7 -6 -5 1 5 7
1532262272892641 -7 -19 -23 33 9 -1 -8 3
1532262272945502 -14 61 36 11 5 1 -61 -45
1532262272982402 5 -43 0 3 -3 -7 -16 56
1532262273042243 10 7 26 103 30 5 15 25
1532262273169900 1 33 22 6 0 0 -1 4
1532262273237723 -17 -58 -1 2 -4 0 32 -67
1532262273267616 -12 -78 -5 -7 -8 -4 -29 66
1532262273327456 -8 3 2 -1 -3 8 -46 -71
1532262273447160 -10 -4 10 -44 -6 -3 -41 -3
1532262273591770 2 -27 2 11 9 9 -2 11
1532262273649618 16 63 55 1 1 -2 -28 23
1532262273695477 -3 -11 15 1 0 -2 -35 -22
1532262273785256 2 -16 -19 -43 -9 -3 20 3
1532262273830139 19 20 34 -4 -4 1 31 39
1532262273889953 -9 62 9 0 -8 1 -10 -38
1532262273920892 1 7 -7 0 -5 -12 2 30
1532262273979712 6 23 22 60 10 4 7 3
1532262274017610 12 16 30 26 7 6 1 16
1532262274092433 10 0 26 15 -1 -2 -12 1
1532262274198128 9 12 2 -15 -12 -10 25 14
1532262274287915 -12 41 0 8 8 1 24 -8
1532262274414576 -3 14 36 -21 -7 -3 2 2
1532262274453475 3 14 2 6 8 2 4 1
1532262274535226 -9 13 -19 9 -1 -2 3 0
1532262274595090 5 78 -9 -1 -1 -2 -2 -2
1532262274639947 0 8 75 14 1 -1 -4 0
1532262274654906 3 -22 -11 -18 0 0 0 1
1532262274677845 -4 -25 -11 -5 0 0 1 -1
1532262274707765 -1 4 -12 -20 -5 -1 1 -1
1532262274722724 2 5 -29 10 1 -6 0 4
1532262274767605 3 -3 10 0 -1 1 1 1
1532262274789562 -4 -6 40 3 -2 2 1 -1
1532262274835423 2 8 33 -6 -1 -2 -1 1
1532262274857365 -1 -11 -8 1 0 0 -2 0
1532262274887312 -2 -18 0 -3 -1 0 0 -2
1532262274902245 -3 -42 -12 -7 -3 -1 2 -12
1532262274925210 -7 -4 -34 2 1 2 -3 -19
1532262274947152 -10 -44 -36 -13 -8 -8 6 49
1532262274992033 -14 8 26 7 0 -17 -2 -14
1532262275008001 -8 -14 -81 1 3 11 -5 -27

1532262275037916 -9 31 45 -17 1 1 -1 -37
1532262275052875 4 6 19 -43 -26 -8 -4 6
1532262275074817 -5 -16 116 33 10 12 3 -6
1532262275127666 2 0 -35 34 7 1 -2 -8
1532262275149617 2 0 -34 19 13 1 1 3
1532262275194487 -4 3 14 9 -1 -5 -5 -4
1532262275210429 -6 -2 18 5 2 -4 -1 -4
1532262275240369 0 6 13 -36 -4 -3 0 -2
1532262275255301 3 24 36 25 17 7 4 2
1532262275277264 -1 13 17 8 -3 -3 0 0
1532262275300208 0 -1 -9 8 -3 -1 -2 -1
1532262275330133 1 8 -9 4 12 3 2 1
1532262275345088 -5 6 8 -4 -1 -2 -2 -1
1532262275389940 3 21 -11 4 6 2 2 -2
1532262275412902 -1 -14 -24 -2 -1 -5 -3 -2
1532262275427867 -1 -15 34 -1 1 -2 -1 -1
1532262275472720 -1 14 -1 0 1 3 2 1
1532262275503637 -4 -4 -54 -10 -1 -2 -2 -2
1532262275517627 -3 -14 11 -8 0 4 4 0
1532262275532580 0 -3 -3 8 6 1 0 3
1532262275585446 1 9 11 -11 -5 -2 -1 1
1532262275607382 1 2 2 22 6 3 1 0
1532262275637307 1 26 -7 -31 -10 -4 -2 -1
1532262275660245 -1 -16 31 3 1 0 1 -1
1532262275675205 -7 -38 2 -6 -5 -3 -4 -2
1532262275720081 -1 2 20 -1 3 0 0 0
1532262275772917 0 -5 -22 -29 -10 -2 -1 1
1532262275871690 -5 -13 -16 1 -3 0 0 -3
1532262275899578 -1 -12 -18 -23 -18 -4 -3 0
1532262275922526 -1 5 21 -6 -7 -3 -2 -2
1532262275967419 -3 6 7 16 -5 0 -1 -1
1532262275990362 0 6 -31 -1 -4 -1 -1 -3
1532262276012300 0 3 -4 -8 3 -3 -1 1
1532262276035215 -2 -3 -24 2 -2 -2 -1 0
1532262276050198 0 -10 3 -5 -3 -3 1 0
1532262276080119 0 -31 10 -2 3 2 0 -1
1532262276117024 -1 4 18 5 0 -2 -1 0
1532262276132974 0 7 8 0 0 1 0 0
1532262276169882 -1 -12 -44 -5 3 0 3 -2
1532262276199802 -2 -4 -77 -25 -11 -5 -3 -3
1532262276229718 2 20 49 40 10 3 4 1
1532262276276570 -4 -6 6 -4 0 0 -1 -1
1532262276289535 2 -7 26 0 -1 -1 -1 0
1532262276327461 0 1 33 3 2 3 2 -1
1532262276343418 -2 5 42 0 4 -2 -2 -2
1532262276387296 0 -1 -65 -1 4 1 0 3
1532262276440139 2 -8 -21 -5 -6 -2 -1 -4
1532262276462097 -1 0 37 -4 -4 -4 -1 0
1532262276485012 -1 -11 -107 -10 -12 3 -1 1
1532262276499999 -3 -11 36 -2 -4 5 1 6
1532262276514955 -2 -16 34 -3 0 -6 0 -2
1532262276537894 -3 1 -16 -5 -1 -4 -1 -1
1532262276552855 -2 -26 -94 -6 -3 -2 0 1
1532262276574772 -3 7 85 1 -1 1 -3 5
1532262276597711 0 -7 34 1 -2 1 1 1
1532262276619685 2 -1 -41 -3 0 0 -1 -1
1532262276672510 -7 -1 -33 -2 -5 2 -2 -6
1532262276695450 -9 0 36 -2 -1 10 -4 -8
1532262276718416 0 -6 -13 -3 0 -12 -2 3
1532262276732378 3 6 12 -5 -2 -5 3 -1
1532262276755312 3 0 -1 -3 1 -5 1 3
1532262276777262 -3 -4 24 2 0 -1 2 -5
1532262276792214 10 12 37 2 -3 -15 -6 2
1532262276949770 -2 -17 -12 -18 -6 -2 0 -1
1532262276966745 -1 3 48 8 1 -2 -1 -2
1532262276989663 -3 -7 0 2 5 0 0 -1
1532262277011628 -1 1 -7 -16 -2 -3 -4 -1
1532262277024598 -2 1 -34 5 -1 -1 -1 0
1532262277070476 -2 4 45 6 1 -1 1 -1
1532262277205087 0 -5 -34 -7 1 10 -1 2
1532262277227051 2 -12 -61 -1 1 0 -3 -16
1532262277273903 -4 6 60 2 -2 5 -2 -2
1532262277294847 -4 -1 -9 0 -5 2 -5 -6
1532262277324794 -14 -4 37 1 1 6 3 -3
1532262277341745 1 -12 -31 -4 -4 -4 -4 -1
1532262277362666 -1 0 3 -4 -1 1 -2 -11
1532262277392609 1 -10 -51 2 0 -2 -1 -6
1532262277416546 0 -27 -11 2 4 1 -4 3
1532262277497305 15 0 -8 -6 0 -1 3 3
1532262277527253 -2 -7 64 7 -1 -4 0 0
1532262277557155 -5 -31 -96 3 1 -2 -3 5
1532262277572133 1 27 -90 -16 -4 -8 -4 0
1532262277596041 -8 3 27 10 4 6 2 -10
1532262277617983 -2 -10 -79 1 -3 4 -3 24
1532262277654884 -1 -10 29 -21 -4 -11 -3 8
1532262277684832 8 7 70 14 2 2 5 13
1532262277798500 4 5 32 2 -1 -1 0 4
1532262277812490 0 10 11 -2 -2 3 0 -12
1532262277850382 -3 6 65 -2 0 11 0 -5
1532262277872323 -13 -9 -22 -8 -3 -7 -6 -21
1532262277895268 4 58 -8 6 2 -3 -2 -2
1532262277925186 13 -3 5 -2 0 3 -1 27
1532262277947127 -9 -4 3 -16 -4 -7 -2 -16
1532262277991983 0 20 -37 11 5 8 0 2
1532262278052846 5 1 5 4 0 1 1 11
1532262278076776 9 -5 -31 -6 -1 -1 2 9
1532262278112686 5 10 -96 -24 -6 5 3 15
1532262278142603 0 -4 -16 8 -1 -11 -1 -5
1532262278195438 5 1 -88 -16 -6 -5 -2 18
1532262278240319 -12 4 -14 -6 -1 2 1 -19
1532262278292202 -2 -6 24 4 1 -8 -4 -13
1532262278337060 7 6 11 5 2 4 -1 -5
1532262278389918 -1 23 67 23 3 15 1 2
1532262278472697 4 22 -15 1 2 1 0 6
1532262278502617 3 -9 -59 1 1 0 0 0
1532262278539518 -8 -16 -33 2 2 1 -1 -5
1532262278564476 2 7 16 11 3 2 -2 0
1532262278652245 -6 -7 -28 -9 -1 0 1 -4
1532262278684162 -1 0 14 -3 -2 -1 0 -2
1532262278712077 -1 0 33 1 0 1 0 -1
1532262278892597 6 -6 -48 0 1 -25 0 -4
1532262278937454 2 -10 -55 -2 0 5 3 15
1532262278997294 -1 -17 -5 2 -11 2 -1 6
1532262279012277 5 13 -11 -9 -1 -2 -1 6
1532262279139913 -2 -1 6 16 1 2 1 1
1532262279192802 0 13 -14 -24 -4 -4 -3 0
1532262279222692 -1 -25 2 0 -1 -1 -3 -2
1532262279237678 -1 0 2 5 -3 -2 -1 -1
1532262279274575 -8 -14 -4 -13 -6 -2 -1 -3
1532262279297491 -1 -12 -1 10 6 4 0 -2
1532262279335390 1 -2 -3 4 3 0 1 0
1532262279365334 -1 9 -4 -11 -4 -3 -2 -1
1532262279402236 1 -3 19 -1 0 0 1 -1
1532262279441130 0 -3 -15 1 -3 0 -1 -1
1532262279455091 1 -3 -49 8 3 1 1 0
1532262279470058 -8 -9 -64 2 1 2 9 -9
1532262279523886 5 22 31 2 -1 -2 -1 10
1532262279567792 -3 -10 -42 -4 -3 -2 1 -7
1532262279634618 -1 -25 58 11 2 2 2 5
1532262279672488 1 9 0 -1 -4 -1 -1 2
1532262279702409 -7 -45 10 0 1 1 0 -3
1532262279785187 0 18 15 0 0 0 -1 -7
1532262279807151 1 0 -10 5 1 -3 1 -1
1532262279845051 3 5 -3 -5 4 2 2 6
1532262279866969 0 -9 -11 -3 -4 -1 -3 -9
1532262279987669 -5 -22 20 4 2 -2 -3 4
1532262280054491 0 37 11 -9 -6 -2 1 -12
1532262280100369 1 12 -28 -1 6 10 7 26
1532262280115304 0 19 16 -7 -1 -9 -11 -18
1532262280137267 -6 -40 74 -10 -24 -11 -7 -18
1532262280197113 -2 9 -28 -8 -3 1 -2 -3
1532262280227006 1 -4 -67 14 11 -3 -5 -13
1532262280264931 0 -6 -34 -4 7 6 0 -1
1532262280302832 1 12 -39 -14 -12 -8 -3 -4
1532262280339705 -2 -3 6 22 8 -1 -1 -4
1532262280362667 1 17 4 -10 -3 -2 -2 -2
1532262280399568 -4 -13 -18 -17 -18 -8 -3 -3
1532262280437467 -2 -10 -3 2 6 2 -2 -1
1532262280452430 0 -1 -14 5 -3 -2 0 -1
1532262280490329 3 -1 2 12 4 2 1 0
1532262280542191 0 -40 -17 1 0 -2 0 -1
1532262280566119 1 9 -17 4 5 0 2 1
1532262280602030 2 4 7 3 5 0 1 2
1532262280617960 -2 -10 -13 -14 -10 -1 0 0
1532262280639903 1 7 15 -6 -7 -5 -2 0
1532262280684810 0 2 -9 3 0 -2 -1 1
1532262280714726 -2 -7 -4 7 0 -1 -2 0
1532262280737640 0 5 -18 9 -1 -1 -1 -1
1532262280759582 -1 -4 3 -1 -3 0 -1 -1
1532262280789502 0 10 32 -14 5 0 1 1
1532262280812463 2 12 21 -3 -6 0 0 1
1532262280835412 2 0 -3 -6 -3 -1 0 1
1532262280872302 0 2 -2 20 9 7 1 1
1532262280895243 -2 -4 -11 7 -9 -5 -2 -1
1532262280925163 -6 -3 -3 -4 -15 -16 -22 -7
1532262280947109 1 1 -8 -3 -3 1 8 0
1532262280970046 3 2 -6 -1 8 37 12 0
1532262280992957 -5 -3 -5 -1 -1 6 14 4
1532262281029883 10 9 12 0 12 5 2 0
1532262281059779 12 12 25 10 8 29 -4 12
1532262281097702 16 9 11 9 4 -3 -1 -4
1532262281112664 -2 2 1 5 3 -5 4 1
1532262281127598 -1 8 7 -1 -2 -1 -2 8
1532262281165496 -29 -5 -8 -2 -4 0 -1 -2
1532262281210403 25 -1 -7 -1 -2 -1 24 6
1532262281240297 -20 -13 -8 -7 -3 0 -4 -12
1532262281322105 28 1 5 0 -2 -6 5 0
1532262281405853 -25 6 7 -1 -7 0 -10 -57
1532262281479657 -20 -20 0 -4 -2 -4 -2 -19
1532262281509576 12 6 1 2 5 2 12 -13
1532262281542488 -26 -6 -9 -5 -8 -8 -2 -19
1532262281562464 -19 9 7 -1 0 -1 2 -12
1532262281592376 7 5 4 -3 -7 -1 2 -15
1532262281615321 -7 -7 -45 -5 0 -1 -2 -4
1532262281645241 -8 4 2 6 4 0 4 1
1532262281720013 -5 -13 8 13 -4 1 1 -3
1532262281802792 0 -13 0 9 -2 4 16 -1
1532262281892575 -2 -58 11 23 9 4 -21 -6
1532262281937454 3 8 7 -8 1 -15 -22 2
1532262281990315 4 1 17 -2 2 6 -59 2
1532262282027213 3 23 3 2 2 3 -2 -17
1532262282065115 5 19 -4 2 6 13 -40 -11
1532262282080079 5 -7 -6 -2 -3 -8 14 -2
1532262282124958 0 3 17 -4 1 22 38 0
1532262282154874 1 -6 33 2 -1 -11 -3 -1
1532262282199758 -7 7 -2 18 6 -4 -43 2
1532262282229677 -20 -43 -2 -10 -1 -13 20 -9
1532262282275552 0 5 -7 -10 1 9 1 4
1532262282327412 -2 21 5 4 -1 49 -5 -7
1532262282350352 -19 -12 4 -5 1 23 -24 -15
1532262282417160 16 -8 2 1 17 115 -10 25
1532262282507906 0 6 -13 -9 2 27 16 -1
1532262282559793 0 18 -10 -4 -1 5 11 2
1532262282642570 3 -4 5 1 0 -20 15 2
1532262282672501 -1 5 -3 -1 -3 -19 17 1
1532262282725346 3 -10 -14 0 0 -9 -1 1
1532262282852014 -19 -9 3 6 9 -2 -5 -1
1532262282904868 12 5 25 8 10 1 1 -1
1532262282927811 -14 -6 -10 -4 -17 -7 -3 -2
1532262282942770 27 2 15 -8 -7 -2 4 2
1532262282994628 7 -31 -31 -21 19 8 8 2
1532262283032503 3 9 9 0 2 2 -2 -7
1532262283055470 -8 -3 -8 -3 -3 -2 -5 -6
1532262283078383 -11 -7 3 0 2 1 0 -8
1532262283107326 2 -8 6 -2 -6 -4 -4 -2
1532262283130267 -3 -11 6 -1 1 2 -2 -7
1532262283175143 6 20 10 11 3 0 7 9
1532262283227997 -6 17 -10 -10 -4 -3 -7 -21
1532262283264910 11 7 -4 -3 -2 1 1 11
1532262283339682 2 -18 1 -1 -3 -8 2 -3
1532262283377605 7 0 -2 -2 5 4 -5 2
1532262283452409 15 -30 0 -27 22 -5 -30 3
1532262283482301 8 2 16 1 19 8 12 0
1532262283527208 11 14 12 -17 -9 2 -5 0
1532262283557101 -9 24 -36 19 0 14 -10 1
1532262283587052 -6 3 -15 27 31 -6 -8 -10
1532262283609984 -17 -10 -15 23 24 -3 -12 0
1532262283692765 31 -8 -3 -3 8 15 22 -3
1532262283806441 -7 1 9 13 11 1 -8 -12
1532262283917138 -5 11 -5 -8 -1 -6 -15 -5
1532262283955060 -3 -3 5 36 17 -3 0 -2
1532262284007895 2 14 0 -13 51 24 5 1
1532262284069772 -1 7 7 -12 -18 -4 -14 -1
1532262284136575 9 -15 -2 -19 -65 -2 -14 0
1532262284165498 26 16 22 32 91 29 9 7
1532262284232319 9 -70 -7 11 3 5 -4 -1
1532262284255262 -10 -5 7 -2 -4 -2 5 3
1532262284300142 -2 0 1 3 3 2 0 -3
1532262284337036 -5 -6 2 0 -5 -2 0 -3
1532262284434777 -6 -4 -1 0 2 1 0 -1
1532262284517556 -3 -7 -1 -8 7 -2 -3 -2
1532262284578393 4 -2 -2 20 7 -6 -3 -3
1532262284675111 0 6 2 -4 24 2 0 1
1532262284714030 10 -63 -4 3 3 -1 -2 1
1532262284764903 -1 -7 -5 5 14 6 1 -1
1532262284794818 -9 7 -1 22 -6 -2 1 0
1532262284817730 -3 2 2 2 1 1 -1 10
1532262284847677 -4 -3 -1 -2 -3 -1 1 -7
1532262284892560 -5 7 0 -2 -1 0 -2 -5
1532262284997277 -5 5 -1 -2 -3 -1 0 3
1532262285027197 -1 -8 -3 2 12 3 -1 2
1532262285081058 -6 12 0 -10 4 0 -2 -4
1532262285169816 2 10 9 32 7 4 2 1
1532262285199732 4 16 -25 -3 0 0 -2 2
1532262285252591 4 6 14 -7 -9 3 -2 -2
1532262285282487 0 10 -5 11 9 -2 -8 -3
1532262285305426 -1 4 -35 -15 -2 -12 -1 1
1532262285327394 -2 0 -60 0 -5 11 7 0
1532262285342351 -27 -2 -4 6 17 -4 8 -5
1532262285357287 3 -1 72 10 3 -20 -23 1
1532262285395186 -7 10 18 8 18 6 -6 -26
1532262285432116 -7 0 13 -5 1 18 10 -5
1532262285456023 1 -5 -31 -6 -5 1 6 0
1532262285477964 -2 -2 -32 -12 -7 -2 2 -2
1532262285507912 2 -4 5 -6 2 2 2 -1
1532262285544814 1 9 -13 6 1 4 11 1
1532262285801129 -3 10 31 9 -8 -7 -8 1
1532262285830023 0 2 -12 6 -2 3 21 3
1532262285874930 -22 -50 12 -36 -9 -1 4 -3
1532262285934769 7 -81 -38 0 0 0 -30 50
1532262285964663 -16 -63 18 9 3 2 -17 -51
1532262285994583 15 25 8 6 -1 -4 -2 49
1532262286032504 -5 10 12 7 -7 -10 -7 -26
1532262286062431 -9 22 -1 23 6 0 11 0
1532262286092349 -9 -16 -73 -22 -3 3 -8 -14
1532262286137201 22 37 -8 8 7 4 18 5
1532262286175123 1 8 49 -26 -6 -1 -2 4
1532262286205041 13 5 2 -8 -5 -2 8 92
1532262286234963 -3 -29 0 -7 2 1 85 0
1532262286249900 4 -17 -3 -2 -3 -5 -51 -8
1532262286264887 -10 -12 -7 -5 -6 -7 7 18
1532262286309764 -10 -22 -15 -45 -8 2 -16 21
1532262286324700 2 -17 -11 -11 -6 -3 44 -1
1532262286371602 3 12 0 -41 -3 -5 -10 6
1532262286437399 -7 36 22 1 -7 -6 -13 0
1532262286460337 10 -15 -22 17 7 6 -7 10
1532262286482303 3 25 13 25 19 7 -52 36
1532262286535160 -11 -61 -7 -3 0 5 -40 -13
1532262286580044 -9 -45 -22 11 9 -1 23 -3
1532262286594977 23 31 -9 -33 -8 -3 25 26
1532262286617943 -21 -48 -18 -5 1 7 -21 -14
1532262286647836 18 26 22 28 4 -3 7 11
1532262286684761 2 13 13 -33 -9 -1 -2 6
1532262286737596 -7 -1 -17 0 -3 0 17 0
1532262286783496 -8 -32 -5 -2 -9 -10 5 -38
1532262286820374 0 -25 2 3 -4 -2 -32 8
1532262286865255 -24 -45 -28 -29 -12 -9 -5 6
1532262286887196 2 -6 -6 87 32 14 34 9
1532262286917139 -1 -12 -10 32 -1 -3 12 5
1532262286962019 22 50 23 8 7 0 -12 8
1532262286999894 -4 -12 -7 12 -1 -3 11 -3
1532262287022850 6 18 7 -1 3 3 33 81
1532262287059734 15 31 -12 -4 -4 -2 59 -61
1532262287097661 5 5 -27 -4 -3 0 -45 -3
1532262287112593 -6 -2 -2 4 -1 -3 -27 -10
1532262287142541 1 -17 -5 -7 -3 0 -22 6
1532262287165479 -1 5 -8 -16 -5 -2 12 3
1532262287187393 -5 -19 -13 -1 3 0 -2 -1
1532262287210356 0 -6 -25 -16 1 1 15 0
1532262287240276 -5 -13 23 -19 -12 -10 -50 -9
1532262287277153 3 -72 -74 -4 -8 -2 -7 -11
1532262287300120 -12 17 13 1 1 -2 1 -6
1532262287338013 -4 -1 6 -2 1 3 2 -19
1532262287352978 8 21 12 -3 -5 7 80 33
1532262287449715 3 10 36 73 23 6 0 -6
1532262287517533 -13 -23 -8 -35 -9 1 26 -3
1532262287630233 4 7 -6 3 -3 -3 -2 0
1532262287675113 8 102 44 11 -1 0 1 -1
1532262287757891 -2 14 55 12 -1 0 0 3
1532262287772828 1 13 9 -13 -9 -5 -3 -2
1532262287788785 1 -3 7 1 0 0 -1 0
1532262287803745 -1 -48 -74 -3 1 -1 0 2
1532262287877547 2 3 14 12 4 -1 3 5
1532262287907468 -2 -15 22 2 0 2 3 -2
1532262288012214 7 18 5 9 6 3 6 -16
1532262288050086 -15 2 12 0 9 33 1 2

1532262288109953 -4 25 127 -22 -7 -3 -4 -16
1532262288169789 0 -5 -28 -26 -8 -4 -4 -8
1532262288199708 2 16 30 -44 -10 -5 0 1
1532262288229627 -4 -8 -3 -62 -30 -11 -8 -5
1532262288259526 1 5 -3 -12 -9 -6 -4 1
1532262288359282 4 4 23 -8 -6 -1 -1 0
1532262288380234 -3 -3 -10 -4 -1 0 -1 0
1532262288425108 -2 1 19 5 7 -1 -1 0
1532262288462007 0 21 7 1 3 1 0 -3
1532262288552770 0 1 -6 -6 -4 0 -2 -2
1532262288575681 -2 -12 -3 -3 -1 -1 -2 0
1532262288612606 -1 3 14 1 -2 -1 0 -1
1532262288636542 1 1 5 -3 -3 0 -1 0
1532262288658459 0 7 -29 6 1 1 -1 -1
1532262288672422 -2 -4 -3 1 2 0 -1 2
1532262288717329 0 1 35 -3 -2 -2 0 -1
1532262288755228 0 3 19 7 8 4 0 -1
1532262288785121 -2 -6 -12 -15 -11 -3 -2 -3
1532262288802104 2 -1 53 18 9 3 1 1
1532262288830028 0 -10 -23 -16 -4 -2 -1 1
1532262288859944 0 2 -28 -1 -4 -2 0 -1
1532262288906796 3 35 -19 -6 9 0 0 1
1532262288927763 1 -4 2 6 3 -1 -1 2
1532262288972631 -1 -11 -1 -2 -1 -1 0 -1
1532262289009543 -1 -7 -18 -6 -2 -2 1 0
1532262289182082 2 11 2 -1 1 1 -1 1
1532262289227959 -1 -10 -6 -6 -6 -2 -2 1
1532262289242923 1 -11 -14 2 -1 -1 -2 -1
1532262289294784 -2 -11 -9 -2 -3 -2 -2 -2
1532262289317719 -1 0 -12 0 1 0 1 -1
1532262289354620 -4 8 -4 -2 -2 0 -3 -1
1532262289400498 1 -6 4 10 4 2 0 0
1532262289431393 1 15 11 3 1 1 0 -1
1532262289482285 3 4 5 10 1 0 -1 -1
1532262289505218 0 4 7 -5 -2 0 -2 -2
1532262289542121 0 -16 -31 -2 -2 0 2 2
1532262289565059 -2 -16 -25 -15 -4 -2 -1 -1
1532262289595973 -2 2 34 -1 2 1 1 -1
1532262289662801 -3 3 78 13 1 -2 -1 -3
1532262289684742 1 -5 -39 2 -2 -1 -2 1
1532262289746551 -2 -5 -6 14 9 0 0 -2
1532262289759515 -2 -4 19 -1 -4 -1 -2 0
1532262289775495 -2 -9 -9 -2 -3 -2 -2 0
1532262289797437 -2 -13 -24 -9 -3 -3 -1 -1
1532262289812374 1 -2 -27 1 1 -1 0 -1
1532262289835339 -14 3 -2 -12 -6 1 1 0
1532262289887196 14 -8 -3 2 -2 -2 1 4
1532262290031811 -3 -2 20 2 -2 -2 -2 -5
1532262290044752 0 -1 -7 7 3 -1 1 3
1532262290059712 4 -2 -8 -5 -2 -1 0 1
1532262290089633 -1 1 -6 -1 -1 -8 0 -1
1532262290143513 -3 2 -5 -3 -1 -9 -8 -1
1532262290157451 -2 5 2 -1 -2 -6 10 0
1532262290173424 -10 3 -13 5 1 23 4 0
1532262290202360 3 5 -4 -2 -1 -1 -4 -1
1532262290315056 -3 -4 2 1 2 19 2 -1
1532262290330017 18 -2 -3 2 1 -8 -3 6
1532262290374892 -19 -2 -9 0 2 -2 -1 -3
1532262290397831 7 -7 5 -4 -4 -8 -1 -1
1532262290419777 1 -12 -15 -7 -2 -5 0 -1
1532262290442717 5 4 0 -1 1 -2 0 -1
1532262290464657 -2 7 -1 0 -3 -2 -6 -1
1532262290479617 -10 5 -14 -5 -4 -3 0 -3
1532262290570377 2 15 35 4 -2 -7 -4 -3
1532262290600267 1 -12 7 -4 -4 5 -3 3
1532262290622233 0 2 14 0 -2 -1 -2 0
1532262290652151 -13 -1 19 -2 0 -5 -1 -3
1532262290690027 -6 -10 -35 -1 0 -7 3 4
1532262290705013 1 5 1 -3 -1 -17 2 2
1532262290751861 2 -4 -1 -2 -1 -1 -1 6
1532262290818684 -1 29 -23 -5 -1 -5 -1 6
1532262290856582 -24 -1 -23 -1 6 35 -7 -14
1532262290885544 8 -5 -16 1 -2 -18 -1 2
1532262290900492 0 -10 4 -1 0 9 3 23
1532262290930384 8 -3 15 -1 -1 -4 -1 -3
1532262290960331 7 6 3 0 0 23 6 6
1532262290997230 -16 -7 6 -1 -2 0 -4 -10
1532262291042109 -4 -2 3 -2 -2 -7 -2 5
1532262291124887 -4 -3 -12 10 1 -3 0 -3
1532262291184726 14 -3 7 4 1 -23 -6 0
1532262291252552 -5 -1 45 7 -3 -12 -2 -2
1532262291275489 8 4 -4 -7 -3 0 2 2
1532262291305404 -5 -4 6 -1 -2 -3 -1 3
1532262291335328 1 -2 -11 0 4 1 3 0
1532262291425062 18 -4 24 7 0 -4 -4 -4
1532262291440021 -27 2 20 -2 -3 12 4 -1
1532262291507862 0 -2 43 6 1 2 -3 5
1532262291589622 -1 7 9 -15 -13 -7 -2 -1
1532262291612583 -6 -6 -37 5 2 1 -3 -3
1532262291674405 -1 -21 40 13 2 4 -1 -2
1532262291688384 1 10 -44 2 4 8 4 -1
1532262291710319 -4 -25 -88 -3 -2 -2 -2 -2
1532262291732270 -8 26 -3 2 -2 5 -3 -20
1532262291785122 2 57 33 6 2 -3 0 4
1532262291817041 -15 -9 9 4 4 12 2 -18
1532262291859925 3 9 15 -4 -2 4 -3 -3
1532262291912777 0 0 14 1 -2 8 -26 -12
1532262291964642 12 1 -1 -2 2 6 1 19
1532262292010518 12 -12 -1 1 2 17 2 -12
1532262292040443 -1 -4 -1 3 2 -7 -2 -2
1532262292107260 -38 2 3 0 -1 4 2 2
1532262292160118 2 0 -10 -2 0 -2 3 7
1532262292212977 16 0 11 1 3 11 5 10
1532262292272794 -7 -2 4 -1 1 -6 -5 22
1532262292347617 -6 0 2 -1 -3 -10 -6 12
1532262292407457 22 4 2 9 0 10 9 -32
1532262292460315 7 -7 -4 -1 -2 -6 -1 3
1532262292497222 -4 17 9 0 -1 -2 -3 -17
1532262292512177 2 -17 -11 1 2 2 0 21
1532262292535093 -6 -16 -7 -3 0 -3 -8 -17
1532262292550053 11 2 -12 4 0 1 9 9
1532262292572991 -13 -17 0 -5 -4 -15 -23 -20
1532262292618869 -21 -13 -4 2 4 0 -8 -82
1532262292647819 16 -14 -17 -7 -8 -21 -18 -3
1532262292722591 3 -2 1 2 1 15 25 -4
1532262292744533 11 -7 -9 -2 4 64 9 15
1532262292767471 -57 -17 -5 -3 -3 7 -13 -49
1532262292820329 18 0 4 1 -1 -28 -18 -1
1532262292850250 -22 -5 -7 -5 3 57 15 -32
1532262292887174 4 -11 1 2 -2 -17 -9 -33
1532262292917094 -1 -5 0 -4 -3 53 37 2
1532262292947989 -13 -8 -21 -1 0 18 3 -17
1532262292992892 -20 -11 -12 -4 -1 -7 -3 -19
1532262293044758 -19 16 -1 1 3 -8 15 -7
1532262293074673 8 2 -1 -1 0 -31 -14 4
1532262293097589 -4 -3 11 -2 0 9 -3 9
1532262293142492 -20 -5 -27 -1 -2 -2 -16 -37
1532262293157455 -23 -20 -2 1 1 16 7 -27
1532262293172419 10 -6 -2 1 3 14 29 41
1532262293219263 2 9 6 0 -4 -1 -13 -11
1532262293249184 16 -6 3 -4 -1 -14 -3 25
1532262293270155 25 14 -1 -1 -4 -3 10 -4
1532262293344954 22 6 5 -1 0 -13 10 57
1532262293374870 11 0 -5 3 -1 25 -4 26
1532262293397809 -3 7 2 -2 -3 17 -27 16
1532262293419754 -11 4 1 0 -1 -30 -15 -5
1532262293502529 -20 -6 -10 -8 -12 -35 2 -15
1532262293525468 15 18 1 2 2 -29 11 13
1532262293579301 -3 -2 2 1 0 52 -12 -5
1532262293593287 7 7 17 1 0 9 8 8
1532262293630187 -2 -19 19 -1 1 12 14 5
1532262293645152 9 34 105 0 -2 23 3 3
1532262293667087 3 -20 -35 -7 -7 -17 10 -5
1532262293704992 -4 5 1 4 2 -8 -9 8
1532262293727924 -49 2 8 1 3 -2 0 -2
1532262293772784 -28 1 -17 -7 -6 -7 -8 -4
1532262293802726 33 -8 26 12 8 1 6 7
1532262293908421 6 -5 -18 4 5 -6 1 -1
1532262293931360 5 -5 -5 -4 -8 0 -2 1
1532262293952330 13 1 -19 -5 1 -2 1 4
1532262293975242 -7 -7 -15 2 0 -10 -2 -8
1532262293990222 -23 -17 -10 -1 1 -1 -2 -10
1532262294035109 4 12 26 10 6 17 8 2
1532262294059045 -10 -2 -2 4 1 -2 4 -6
1532262294177728 6 -10 -3 3 1 23 -28 25
1532262294192683 4 -9 13 2 -2 -37 17 2
1532262294222580 2 -9 -23 -3 -1 -23 6 11
1532262294260492 0 4 -12 5 -1 -13 12 40
1532262294290399 22 2 2 0 1 5 -3 1
1532262294320346 22 7 -7 7 0 7 -8 2
1532262294404095 -10 8 9 -1 -2 7 -3 -11
1532262294463965 -2 -1 1 0 -3 -7 -2 -2
1532262294477930 -5 -8 40 6 3 14 -1 -21
1532262294492885 10 -12 7 5 2 -31 8 -17
1532262294514822 -4 8 5 10 2 -2 -5 -21
1532262294552718 1 1 11 14 2 14 -2 12
1532262294582645 1 0 38 14 5 -4 11 15
1532262294741193 26 14 17 0 2 21 1 13
1532262294762158 -6 -28 -21 -8 -3 -2 -8 -5
1532262294815026 0 4 -28 -4 -4 -39 -13 23
1532262294837959 0 -6 40 11 1 -31 -2 0
1532262295019471 -8 -8 50 8 1 -16 2 26
1532262295055376 -3 -4 2 1 1 51 2 -10
1532262295085296 10 6 8 2 0 5 5 38
1532262295242879 5 5 2 0 1 -3 2 3
1532262295280751 -20 -5 -5 -5 -1 8 -5 -39
1532262295296708 -8 4 -18 0 0 5 -5 32
1532262295326651 -5 -6 -7 -3 0 -40 -9 -2
1532262295354581 11 14 7 -3 -3 -19 -1 29
1532262295369540 -1 -11 6 1 -1 3 -5 -2
1532262295400431 5 35 5 2 2 -13 1 -13
1532262295438329 -4 9 8 0 -3 -14 -3 34
1532262295460293 -3 -9 2 0 0 3 -1 2
1532262295587953 -21 -1 -92 -10 -3 7 -6 -14
1532262295647769 -5 -6 2 0 0 -4 -2 -5
1532262295684693 5 -8 10 -1 0 -9 0 -1
1532262295707637 4 -3 2 2 2 2 0 -5
1532262295722569 -1 -3 26 5 2 4 1 -3
1532262295745521 -2 -3 -37 -28 -7 0 0 -2
1532262295775428 1 3 14 2 2 4 0 -1
1532262295820308 -3 -4 -15 -1 -1 1 1 -5
1532262295836265 2 4 12 3 -2 1 -3 -6
1532262295866219 9 0 -13 -2 -3 0 -1 2
1532262295895108 -7 4 7 5 1 1 -1 -16
1532262295939988 1 -9 -2 -4 2 -1 2 4
1532262295969930 -2 8 11 -2 -3 -1 -5 0
1532262295999828 -3 4 -4 4 1 -2 -1 1
1532262296037749 -5 7 22 -13 -4 -4 -1 -4
1532262296074650 -8 -7 -14 0 -1 -2 -2 -23
1532262296143469 -25 0 14 -2 -5 16 -3 -17
1532262296158424 4 1 -3 3 2 -13 2 -16
1532262296180373 -1 -4 5 1 0 0 1 6
1532262296202313 21 -3 -4 -1 1 -2 -4 18
1532262296225252 1 18 7 -1 -2 -2 0 9
1532262296255168 -1 -17 -30 -8 -1 -3 -1 6
1532262296285089 -3 1 -6 -4 -4 -3 -1 5
1532262296307033 0 7 -11 -2 -7 0 0 2
1532262296337947 0 8 1 3 6 1 -1 1
1532262296352911 1 -10 -14 -2 0 -2 0 3
1532262296382804 2 3 -3 6 -1 -1 0 -1
1532262296428721 -1 16 -13 -9 0 0 -2 -1
1532262296464585 -1 -9 10 20 5 2 0 -1
1532262296502508 -2 4 -23 -34 -7 -3 -1 -1
1532262296556340 -1 -8 3 -32 -13 -2 -1 0
1532262296622188 -1 2 -1 -1 -2 -1 0 -3
1532262296645135 0 5 -7 -20 -13 -6 -1 0
1532262296660090 2 -2 23 -3 1 -1 -1 0
1532262296682031 0 4 -18 -10 -2 -1 -2 0
1532262296712921 -3 -3 16 -4 -1 -1 -1 -2
1532262296734889 1 -4 1 1 -3 -1 -2 -2
1532262296772775 -1 -2 9 1 -1 -2 -1 1
1532262296802709 -2 -7 8 3 0 0 1 0
1532262296839583 0 -1 17 1 -1 0 0 -1
1532262296854542 2 14 9 -1 -2 3 1 1
1532262296930367 -2 10 26 3 -4 -2 -3 -3
1532262296960282 -2 -33 -26 -2 3 -1 -1 -1
1532262297035082 5 14 -46 -2 2 2 2 2
1532262297058021 -2 -32 -15 -3 -3 0 -1 -2
1532262297154767 3 0 -13 -8 1 3 -1 0
1532262297177700 4 9 41 -2 -3 1 1 -1
1532262297192665 0 -2 18 0 -2 -1 -1 -2
1532262297267460 -2 4 66 1 -2 -1 -2 0
1532262297297358 -3 3 -19 -2 -1 -2 -1 0
1532262297335280 1 2 17 13 3 16 8 2
1532262297350248 -2 11 12 32 8 -1 0 0
1532262297403099 0 -2 -5 -8 -2 -2 -2 -1
1532262297425039 5 -17 -56 1 4 -2 0 1
1532262297462941 -5 -13 -41 -2 0 -4 -2 -2
1532262297484884 1 -8 -29 2 -1 2 3 4
1532262297582618 -1 3 13 5 -1 1 -3 -4
1532262297619520 -4 0 -32 8 4 -1 -2 -1
1532262297680334 -13 0 -5 -3 -1 4 -3 -21
1532262297762138 -5 4 -27 0 -3 -8 -3 -11
1532262297889774 -4 -17 -14 -10 -9 -20 -1 -4
1532262297934676 4 4 -16 -6 0 5 -18 -20
1532262298033390 1 8 -8 0 9 6 2 4
1532262298122176 -2 -6 -3 0 5 -1 -1 3
1532262298175039 5 38 10 -1 -1 4 1 1
1532262298242852 -1 4 4 -1 0 -2 -1 0
1532262298362537 -1 -5 1 -4 3 1 -2 -2
1532262298377497 0 0 -4 8 11 5 1 -1
1532262298400436 1 7 8 14 -2 0 0 0
1532262298430352 2 5 2 10 5 -3 5 1
1532262298445289 -2 7 17 -5 -4 -2 2 5
1532262298505153 8 15 18 11 -4 -2 0 0
1532262298626823 -4 -12 -3 -4 -1 2 -1 -3
1532262298850232 -16 -13 -17 -10 -5 -1 2 4
1532262298947968 21 4 8 11 4 1 7 5
1532262299052664 18 12 11 10 7 6 7 13
1532262299127487 -50 -20 -7 -6 -1 -1 1 -10
1532262299232212 15 16 22 5 6 2 6 6
1532262299277091 -12 -3 -2 -1 -7 -2 1 -6
1532262299292024 6 8 -2 1 -1 -1 -26 -8
1532262299314963 -16 0 -9 -4 -1 0 0 -21
1532262299374831 30 9 -2 0 1 4 13 36
1532262299419710 -6 2 4 -1 -1 -2 -1 -2
1532262299449630 -1 1 4 0 6 3 3 -8
1532262299555320 -6 -46 6 7 1 2 -3 -3
1532262299600224 -2 14 19 53 13 -2 12 -3
1532262299675027 -1 -19 -15 -37 -10 -6 2 -4
1532262299766779 3 2 2 -10 -8 -14 -6 9
1532262299952285 -1 0 24 14 12 0 -8 2
1532262300049997 1 -34 3 18 5 0 -12 -3
1532262300117816 -1 -6 8 -7 -7 3 -3 -1
1532262300147760 -2 -5 -10 -6 -1 -13 -36 -2
1532262300162696 2 16 6 0 -4 -11 4 -1
1532262300184662 -2 5 11 7 1 -21 -20 -1
1532262300267444 3 -20 -10 -7 -5 -15 51 10
1532262300320304 0 23 0 -6 4 30 4 -6
1532262300380141 1 7 -5 -1 4 57 21 5
1532262300477877 3 -1 -2 1 -6 12 -17 2
1532262300531733 -4 -2 -2 -1 -2 -2 -31 -5
1532262300605534 0 -19 -1 2 1 -10 -8 -1
1532262300657373 0 54 1 8 2 5 5 0
1532262300688292 -1 -59 -40 -6 -3 3 1 -1
1532262300747161 -4 -27 -15 -10 -11 -7 -1 -3
1532262300792013 3 7 31 0 1 13 13 5
1532262300852850 10 8 10 0 2 -3 -2 4
1532262300874823 10 2 1 -6 -11 -2 17 -2
1532262300904739 -26 14 -17 -3 -13 -2 4 1
1532262300942633 -10 0 3 3 6 3 -1 -2
1532262301010452 -25 -8 -4 1 13 4 8 -1
1532262301064309 -11 -22 -6 0 -25 -7 -8 -4
1532262301100213 7 -25 -28 -10 -15 -3 -4 -1
1532262301123151 28 28 16 15 19 8 -4 8
1532262301145097 6 26 4 -3 -1 -3 4 -1
1532262301212910 13 -13 -4 2 11 -1 -2 -4
1532262301279736 22 -41 51 -2 -1 -5 -23 -4
1532262301294669 14 10 -13 -2 -2 0 -7 4
1532262301415346 -4 1 -3 -3 -3 3 -25 -1
1532262301437311 -21 -1 -68 7 -3 4 43 -2
1532262301482196 -4 5 -5 3 26 -1 -25 -4
1532262301497148 -7 5 -13 -11 -23 -3 5 -5
1532262301527071 -1 8 5 15 7 -2 -13 0
1532262301579927 -12 -7 -9 -31 -33 -3 4 -2
1532262301624814 -13 -8 -32 9 14 10 7 -2
1532262301678642 -1 31 2 14 57 12 1 -1
1532262301775383 7 3 -48 -2 2 2 3 1
1532262301850206 14 11 17 4 -1 0 -2 3
1532262301910047 1 1 -3 -5 -2 -2 -3 3
1532262301932989 -9 -6 2 0 0 1 2 -2
1532262301947947 1 -10 -2 -2 -5 -17 -9 -4
1532262302007785 -2 -5 0 7 -15 1 2 1
1532262302044686 -6 3 -31 0 18 1 -3 -2
1532262302067602 -9 14 -4 -13 -6 1 1 -1
1532262302105500 4 -17 -32 27 -3 -9 3 2
1532262302195284 3 8 44 33 9 -2 2 2
1532262302211218 1 -2 13 -27 18 -8 2 3
1532262302240141 -6 5 17 -6 -17 4 -1 -2
1532262302270061 3 9 -22 -6 -5 -1 -2 -1
1532262302300003 -5 -8 22 -4 -2 0 -1 0
1532262302322919 1 2 -11 -4 3 1 0 2
1532262302367822 9 6 -2 1 -2 -2 1 4
1532262302451604 3 -4 -7 -3 -3 -2 -1 -2
1532262302585245 8 -3 -4 -3 -2 -2 0 2
1532262302652068 2 -3 6 23 -16 4 0 -2
1532262302683982 4 13 5 2 7 1 2 3
1532262302706917 9 5 2 0 -18 -2 -3 -1
1532262302743794 5 -4 0 8 -5 -7 0 -1
1532262302765759 -2 -6 -12 0 -4 0 2 -2
1532262302802659 -1 -6 11 4 -16 -4 -3 -5
1532262302817622 -1 -7 -30 5 15 -3 0 -4
1532262302840541 4 0 -23 -5 -9 -6 -5 -2
1532262302877461 -1 -4 -31 -22 -20 -10 1 -1
1532262302930316 -2 -6 6 -10 -3 7 8 -4
1532262302960238 14 12 -9 9 5 3 -9 14
1532262303006095 -7 -2 7 -14 -5 -1 -16 -16
1532262303035039 12 15 12 5 -3 -4 14 3
1532262303087897 -7 -20 -87 -6 0 3 -18 -7
1532262303109843 -2 0 -50 -8 -3 -7 1 4
1532262303154722 -3 -6 58 -2 -4 -2 -24 4
1532262303169655 -2 56 32 -5 -4 -3 25 11
1532262303184615 2 44 -3 -2 1 0 0 0
1532262303297340 -5 -18 2 4 2 -1 -18 -20
1532262303320277 -6 -22 -4 -20 -6 0 -23 -16
1532262303372141 -32 -64 13 5 -6 -3 -5 -12
1532262303395052 -7 -2 -11 -16 -3 -2 -12 -2
1532262303507751 5 -53 15 -19 -3 -1 31 12
1532262303582573 9 27 9 -8 2 6 21 45
1532262303650398 -5 -20 0 -40 -9 -5 14 3
1532262303665357 -12 -18 8 29 15 -2 0 -20
1532262303740159 1 -19 -103 -17 -6 -3 4 7
1532262303785009 -1 29 31 1 -7 -2 25 12
1532262303859809 -13 -68 -57 2 -5 -3 11 -32
1532262303995471 10 14 13 -18 -3 2 -2 8
1532262304017388 -7 -11 -22 -25 -3 -4 -13 -1
1532262304070276 0 -4 18 -5 5 17 -1 18
1532262304100194 -4 -65 -39 3 8 4 -26 6
1532262304137091 -16 90 -26 -14 -7 -5 14 -3
1532262304197905 -3 -5 22 35 5 -1 8 8
1532262304249789 11 -7 13 -3 -2 -2 5 8
1532262304272714 -10 1 -2 -44 -11 -5 -26 -4
1532262304339527 16 33 19 -4 3 2 4 54
1532262304415352 -12 -48 -6 -13 -10 -5 63 -10
1532262304431282 -1 -6 -12 2 1 0 -24 31
1532262304564924 -17 -28 3 1 3 0 5 -3
1532262304617782 4 66 48 -17 -4 4 37 16
1532262304639738 0 -64 16 11 8 7 13 -18
1532262304737491 16 25 -26 -9 -6 -6 -13 13
1532262304767405 -10 -9 -17 20 2 -3 -3 8
1532262304827246 -9 12 16 20 3 4 20 3
1532262304850188 -4 17 -1 -41 -5 1 2 4
1532262304895041 -3 43 34 14 2 1 3 -3
1532262304917008 1 -6 -14 7 2 2 4 1
1532262305014749 1 57 42 6 2 -1 2 0
1532262305059634 -1 -15 -24 13 2 -3 2 1
1532262305112485 -3 -4 10 3 -2 -1 -2 1
1532262305128417 -7 -5 55 10 7 2 -4 -7
1532262305195265 4 2 49 10 -1 -1 1 3
1532262305225181 3 -25 -70 4 3 2 1 -1
1532262305307959 -7 -38 -13 -7 -3 -3 -2 -2
1532262305359798 13 -20 -10 -1 1 3 -1 -1
1532262305434624 -16 -67 -17 -3 -1 10 -4 41

1532262305511393 2 -18 62 -53 -21 -17 -10 -18
1532262305570259 6 20 -29 3 2 0 0 8
1532262305600183 0 -25 -20 -8 4 2 1 -1
1532262305615115 1 13 13 0 -2 -6 -5 -4
1532262305637080 -3 11 -5 -7 -4 0 -2 -4
1532262305660018 2 1 -25 34 6 2 0 -1
1532262305809623 -3 22 -3 -14 -6 1 0 0
1532262305885421 4 -15 -1 -1 -4 0 3 2
1532262305952241 2 11 4 1 0 5 4 2
1532262305982157 -5 2 -44 2 2 3 2 2
1532262306005096 -1 6 8 4 2 -2 -2 1
1532262306042995 1 9 -6 -3 -4 -4 -1 1
1532262306094855 -9 19 0 4 3 3 0 1
1532262306109820 -6 4 -2 6 4 2 0 -5
1532262306147718 3 16 1 1 2 4 -4 -4
1532262306162679 -9 -21 29 1 0 0 -4 -2
1532262306192571 3 27 109 -5 -7 -5 -7 -9
1532262306222493 -8 25 7 -2 -1 8 2 0
1532262306275373 3 -22 14 5 3 13 5 -3
1532262306335215 -11 -48 -20 -10 -8 7 -3 -5
1532262306396050 1 -5 -82 3 -5 -9 -10 7
1532262306439911 2 27 -60 -2 0 -8 0 3
1532262306470827 6 41 52 4 3 6 10 4
1532262306514738 6 -18 -9 -2 -2 6 1 -5
1532262306597516 -1 -27 16 -5 -1 4 3 -8
1532262306635387 -7 -12 -1 -1 -2 -2 1 0
1532262306672315 -3 11 -13 -4 -1 -1 0 0
1532262306702209 2 -8 1 3 -1 2 1 0
1532262306717169 4 22 10 2 2 0 1 2
1532262306762071 -5 -26 -20 -7 -9 -2 -3 -2
1532262306792994 2 9 -81 -9 -20 -11 -5 -1
1532262306807953 2 2 -6 14 15 -9 -21 -3
1532262306829896 -3 -33 -5 -1 -1 0 5 1
1532262306852830 0 -2 12 -1 -3 1 5 -1
1532262306904695 -2 -25 -5 -5 -4 0 3 0
1532262306951567 0 1 -2 -1 -4 0 1 -3
1532262306965505 3 -11 -8 1 2 -3 0 1
1532262306980492 -3 -15 -11 -3 1 -2 0 0
1532262306995448 2 -2 9 -14 -8 -4 -1 0
1532262307032326 -1 -25 -1 -5 -4 0 3 -2
1532262307047313 0 14 -7 4 1 -2 3 1
1532262307107158 1 10 1 8 1 -3 1 1
1532262307168974 -2 -18 1 2 2 4 0 0
1532262307183921 0 25 1 1 0 5 1 -2
1532262307204888 0 24 -3 1 1 0 -6 0
1532262307249768 0 -23 -5 -2 3 0 2 2
1532262307279684 1 26 -6 1 -1 2 0 2
1532262307324567 -1 -9 12 -1 2 2 0 1
1532262307377425 0 -3 -6 -6 -4 -8 -4 -2
1532262307393360 3 7 12 10 7 -1 1 1
1532262307423288 -3 -3 12 6 0 -1 -1 2
1532262307445250 3 0 -4 -6 4 7 3 1
1532262307467187 5 2 -3 2 5 2 -5 1
1532262307482146 -3 -17 -8 4 10 11 4 -2
1532262307520049 -6 -6 -12 4 4 1 -2 -2
1532262307542988 -1 2 16 6 0 -1 -4 0
1532262307557943 -2 -2 -2 -2 -6 7 2 -1
1532262307594822 3 8 1 4 2 -6 8 1
1532262307617787 6 5 6 3 0 3 1 2
1532262307656657 0 2 -5 -2 -3 -1 21 -2
1532262307684581 -11 -12 -4 -1 -1 -1 1 2
1532262307707543 -88 1 27 -3 -3 -2 -11 -31
1532262307730459 45 5 -17 -7 1 1 3 37
1532262307745419 -32 -5 -2 2 -1 -4 1 -9
1532262307775339 59 28 33 6 -5 -2 6 33
1532262307797282 22 0 -6 8 10 7 -4 28
1532262307827200 10 8 -13 -7 -5 -3 17 0
1532262307887068 -36 7 28 -1 -6 3 52 -24
1532262307962860 15 -8 -24 -6 1 15 61 -6
1532262307978795 23 -18 -22 -3 -14 -33 100 4
1532262308090496 -30 -4 -6 -3 -4 7 -4 -21
1532262308150363 2 0 -9 -2 -2 -5 -24 3
1532262308262060 -19 -16 -19 -20 -2 -4 -19 -17
1532262308314926 4 24 7 2 0 0 2 4
1532262308367755 -2 -25 -5 -8 -9 -21 59 -8
1532262308404679 -5 -42 -17 -10 -4 8 -15 0
1532262308427626 1 -3 9 6 -3 -4 25 -2
1532262308472475 -10 -4 -50 -6 -6 -38 -28 -11
1532262308540317 3 -101 -7 -3 -5 7 -20 -3
1532262308615127 9 13 55 14 5 -17 -14 0
1532262308647032 4 -26 -3 -5 -1 -16 -62 -3
1532262308704877 0 -15 72 7 2 40 45 2
1532262308719837 -4 24 71 8 6 11 67 6
1532262308757712 10 13 16 9 7 -4 -31 7
1532262308794613 -3 52 -25 -11 -2 3 22 -4
1532262308847472 4 32 -3 12 4 -13 -76 1
1532262308907339 -6 -40 -10 -9 -8 -18 -23 1
1532262308975153 0 23 -23 6 -3 2 60 -1
1532262309049954 8 -20 7 7 9 70 0 10
1532262309117777 -1 -2 6 0 12 -22 -12 -1
1532262309177616 2 2 6 -3 0 26 33 1
1532262309192572 -5 20 -34 -1 -2 -2 -16 -1
1532262309252412 -1 1 13 -1 -2 -4 0 -2
1532262309282309 -2 -12 7 3 12 -2 2 -2
1532262309335168 -1 -4 26 -3 -6 0 0 0
1532262309357155 0 48 -45 10 -7 -1 -1 1
1532262309448864 10 -43 28 -3 -1 1 -1 -2
1532262309477810 7 -18 -8 0 7 0 -3 -5
1532262309499750 15 0 -39 -19 -6 1 3 5
1532262309514715 0 -10 6 -5 1 4 4 5
1532262309529675 16 4 -1 3 -6 1 5 -2
1532262309559597 4 3 27 -2 -9 -4 -1 3
1532262309582529 16 2 78 7 -6 -7 0 0
1532262309621403 18 -8 -20 4 -52 -15 -3 -2
1532262309650325 23 -5 -36 -2 -15 -8 -4 0
1532262309680245 -20 -23 13 20 -4 -3 -5 -4
1532262309702209 5 -25 14 22 -12 -2 5 1
1532262309725153 -2 25 -26 -7 -14 -5 -7 -11
1532262309747066 15 10 -1 -8 -3 -3 -3 0
1532262309762049 3 -3 -2 -5 -4 -1 -1 -7
1532262309814915 -12 5 13 0 -4 -1 -9 1
1532262309829845 -16 2 17 -1 2 2 12 -8
1532262309889719 -11 -17 -35 -16 -3 -2 5 -3
1532262309957524 2 12 11 1 -1 2 26 -4
1532262310017344 -2 5 28 -5 -1 1 1 -5
1532262310040283 -15 3 10 -2 -1 0 -2 0
1532262310055242 -31 -22 -4 -32 -11 -4 0 -12
1532262310092164 -8 -3 2 2 -7 0 15 -1
1532262310115117 3 16 -13 -15 9 12 1 1
1532262310130069 7 -26 3 1 -40 -19 -8 2
1532262310152011 -13 19 0 -21 -19 -13 -7 -10
1532262310182929 3 3 26 -4 -13 -5 -16 4
1532262310242764 -8 20 14 11 9 3 -1 -5
1532262310279642 0 42 2 14 3 4 -3 3
1532262310302581 -8 16 4 0 -3 -1 1 -2
1532262310325576 -3 -28 -8 -5 -6 -3 1 -2
1532262310370423 -28 -31 1 1 0 1 -1 -5
1532262310422289 -7 2 1 3 5 2 0 3
1532262310468144 -6 -4 1 4 0 -1 0 0
1532262310497085 -14 -8 -6 7 -2 -4 -1 -3
1532262310558896 6 18 2 5 -4 -3 -2 -1
1532262310579863 -1 -11 -5 -27 -4 2 1 -1
1532262310594823 5 13 -3 1 4 4 3 4
1532262310654667 0 -7 -5 -26 -15 -4 -1 1
1532262310714503 2 1 24 22 17 2 0 -2
1532262310782298 2 27 -12 -13 -6 -7 -3 -2
1532262310806261 -4 -1 6 11 -36 0 -2 1
1532262310850143 -12 1 4 6 -2 -2 -1 -3
1532262310872085 0 9 1 4 -6 -3 -1 -4
1532262310924939 -3 -16 0 2 -5 0 2 -5
1532262310969824 0 -24 0 2 0 0 -1 -4
1532262311053573 -6 -4 1 -2 -1 0 0 -2
1532262311075539 -7 39 3 1 1 0 0 -3
1532262311157318 -2 17 3 -4 -12 -5 0 -1
1532262311187215 0 -51 -6 -18 -7 -4 -1 -3
1532262311232122 -3 6 -10 -7 2 6 -1 0
1532262311263012 30 4 7 -6 15 3 11 7
1532262311331849 -11 -3 -16 -4 0 5 -25 -19
1532262311352797 -3 -8 10 -21 -14 -7 -16 -6
1532262311397680 2 -17 -20 -6 -1 30 -15 27
1532262311434554 -3 -6 -38 -10 -7 -11 38 -13
1532262311457513 5 1 27 -6 6 -20 -28 -1
1532262311502396 0 -4 9 -8 -1 -1 29 2
1532262311562242 5 15 -3 0 2 -2 -33 -1
1532262311622079 3 3 53 -2 0 -6 -40 -5
1532262311674938 2 6 -25 8 4 3 13 1
1532262311719818 2 5 54 0 -5 -1 -3 13
1532262311764698 -18 -35 -14 -3 -3 -3 39 4
1532262311840468 -23 -52 -32 -36 -20 -6 4 -4
1532262311922277 1 -1 14 8 11 8 -35 -4
1532262311967152 -1 17 22 8 -2 3 9 -6
1532262312042954 -5 72 5 -8 6 -5 -2 -87
1532262312147670 21 49 43 77 13 3 -14 11
1532262312252389 -21 -25 -12 25 5 4 7 0
1532262312320213 36 72 -1 -16 -6 -7 -105 65
1532262312424905 27 60 63 0 -8 -4 -12 18
1532262312447869 9 19 28 80 19 -20 -9 12
1532262312484769 12 41 29 -23 -7 1 77 22
1532262312514665 -3 18 25 1 0 1 -53 -35
1532262312544609 -6 -94 -13 -16 -6 1 25 113
1532262312597471 -2 -4 -3 -11 -4 -4 51 29
1532262312732084 6 17 24 -11 -12 -10 -15 -6
1532262312755023 -5 -58 -36 12 5 7 16 -2
1532262312814885 -1 -22 -67 4 -6 -12 -3 -5
1532262312829850 2 -29 -10 8 4 -1 -73 -69
1532262312852761 -2 -15 -17 -7 0 -6 -2 9
1532262312874725 3 22 -3 45 16 10 27 -8
1532262312919606 1 -2 -7 -12 -4 0 -5 15
1532262312957508 -19 -33 -13 -19 -8 -2 16 1
1532262313010367 0 16 -54 -7 -4 -3 15 -3
1532262313122064 -1 13 1 2 -6 -11 29 5
1532262313145000 3 28 -7 8 2 -12 -100 2
1532262313204847 -11 -16 -16 9 6 3 17 1
1532262313234775 -5 0 13 20 -2 -1 1 0
1532262313294604 -2 13 7 10 0 -3 6 -1
1532262313332503 -8 -68 -24 -5 -3 1 1 -3
1532262313355442 8 18 1 9 0 -2 5 6
1532262313392342 -3 -28 -52 -5 1 0 1 1
1532262313437198 8 -25 28 -3 -3 3 1 2
1532262313475124 7 61 84 10 3 4 7 5
1532262313505044 -2 25 44 -17 -4 0 -2 1
1532262313647663 5 9 25 1 0 1 0 2
1532262313677578 2 15 74 7 -1 0 -2 0
1532262313715482 3 8 5 8 3 -1 -1 -1
1532262313730442 -5 14 5 10 2 2 1 -4
1532262313775294 9 -17 6 -4 -3 -4 -4 -1
1532262313797263 13 11 -103 -7 1 3 12 59
1532262313820198 9 53 13 0 0 -6 -2 -36
1532262313842138 2 -17 36 5 5 2 2 30

1532262313880015 -3 15 20 3 1 0 0 18
1532262313902953 5 35 47 42 0 -1 0 11
1532262313917940 1 -8 -61 33 4 -4 2 4
1532262313977776 -2 -19 7 1 -1 -1 1 -1
1532262314007700 -9 -9 -21 6 2 -1 -2 -6
1532262314052581 5 12 8 0 1 -1 0 2
1532262314120399 -2 -12 21 -4 0 0 -3 -3
1532262314142313 -3 1 1 7 3 -1 0 -2
1532262314187223 6 -20 -17 4 1 -1 -1 1
1532262314225115 -8 -7 -13 -6 -2 1 0 -2
1532262314269996 2 11 10 22 7 5 3 0
1532262314314876 -2 -25 -8 -15 -5 -4 -1 -1
1532262314337790 -4 28 51 -1 -1 -2 -1 -2
1532262314487411 0 -6 6 -4 -3 0 2 0
1532262314532298 0 1 64 0 -2 -2 1 1
1532262314555231 2 -14 -11 -12 -4 -1 -3 -1
1532262314585152 -4 -1 21 1 -1 0 0 -2
1532262314639982 9 46 12 1 -6 -5 -8 13
1532262314704836 -1 16 29 5 -4 -28 -20 -11
1532262314742731 17 18 -35 -10 -2 -14 -6 21
1532262314772627 -2 2 -4 0 -2 -5 -1 -20
1532262314802570 1 3 -23 5 6 4 5 32
1532262314825519 14 13 13 -5 4 2 6 -5
1532262314862388 -6 -7 -40 -6 -3 -4 -5 -8
1532262314885354 -5 -9 -8 -4 -1 -1 -2 -7
1532262314937210 -1 9 10 2 -3 -5 -2 1
1532262314960126 -3 -14 13 4 1 -1 1 -1
1532262314975113 1 -1 -16 3 3 0 1 -3
1532262315019990 -1 -9 -27 -11 -9 -3 -3 0
1532262315034956 1 0 -29 -9 -13 -1 2 0
1532262315147652 -3 -15 -48 -7 -2 -2 -1 -2
1532262315215471 2 14 18 7 1 4 1 -1
1532262315245387 -1 -3 -4 3 -5 0 -2 0
1532262315282288 0 13 4 3 5 2 -1 0
1532262315297252 -3 -11 -32 -7 -2 0 0 -3
1532262315320192 2 -19 -20 -15 -7 1 0 -2
1532262315342132 1 8 7 2 -2 -2 -1 -2
1532262315365043 1 -8 7 1 -2 0 -1 0
1532262315388009 -2 -10 -7 -5 -11 -4 -2 -2
1532262315411940 0 1 9 0 1 0 0 0
1532262315455814 -1 -13 -14 1 -2 0 -1 1
1532262315484750 0 -1 13 0 2 1 1 -2
1532262315546586 0 3 -4 -2 -2 2 0 -1
1532262315574484 -1 -10 -6 -2 2 -1 -2 -2
1532262315590440 0 3 1 -5 -10 -2 0 2
1532262315620390 0 -2 10 6 -1 0 1 0
1532262315650303 0 -8 7 30 5 4 -1 0
1532262315725105 1 1 7 -1 9 6 0 1
1532262315747043 -1 0 10 3 -1 -1 -2 -2
1532262315792927 -3 -9 -9 -4 1 0 -11 -3
1532262315859743 0 -1 9 -2 -3 -6 19 3
1532262315927562 1 -15 -7 4 7 6 13 -10
1532262315972419 -19 4 12 -2 -7 -2 -1 -12
1532262316055241 -26 -2 4 0 -1 1 2 -4
1532262316144985 -13 -1 -5 -3 -1 3 40 -16
1532262316182880 49 2 -5 -4 -8 -12 59 26
1532262316257657 -21 -13 -12 -5 -9 -12 -128 -105
1532262316325497 15 -1 0 -5 -5 24 29 2
1532262316347443 14 3 -15 2 4 -12 45 11
1532262316362403 -34 -11 -43 -1 -5 -11 -17 -31
1532262316400299 12 2 3 -1 -2 -11 44 -7
1532262316431192 -9 -11 1 -3 -2 0 -52 -3
1532262316460115 -5 -9 1 -1 -1 6 -14 -8
1532262316482079 -1 1 5 -9 -5 2 6 -13
1532262316549897 -10 -4 -7 -16 -2 3 -17 -13
1532262316602734 -7 -2 -11 15 6 4 -6 -6
1532262316647636 5 11 -20 7 8 9 27 3
1532262316700499 -2 -11 -6 3 3 4 14 -4
1532262316820152 -3 -18 -32 -9 3 -1 25 -7
1532262316887994 -9 -15 -15 -5 -2 30 -51 5
1532262316939833 -6 -3 -42 -8 -6 3 35 -6
1532262317029619 -3 9 8 2 0 10 -6 -6
1532262317090457 5 -10 6 -7 -6 -4 -27 -3
1532262317172234 5 -12 4 2 -1 -4 34 5
1532262317248036 1 -7 2 27 7 1 -13 1
1532262317337791 0 19 -6 -10 -4 -4 -42 -4
1532262317398613 0 -16 -5 3 -2 -17 -62 7
1532262317457477 -3 5 3 -8 -6 1 -25 -4
1532262317510307 1 6 -1 18 5 1 15 2
1532262317532278 0 -8 -1 0 -2 1 1 1
1532262317637993 -1 3 -5 0 -1 -4 -1 0
1532262317659918 1 -44 20 -18 -7 -6 -3 -2
1532262317674866 -2 43 15 -20 -7 0 0 -1
1532262317697831 3 63 29 69 24 0 1 1
1532262317712789 -2 14 39 -9 -8 0 -3 -1
1532262317734731 -5 -49 -33 -7 -1 -2 0 0
1532262317779614 -7 -3 1 1 4 1 3 0
1532262317802525 -5 12 8 -3 2 1 -2 -4
1532262317832473 1 -11 -16 1 -12 -2 -1 1
1532262317862392 15 -1 -18 -12 19 -5 -11 4
1532262317885304 22 10 10 -18 12 16 7 6
1532262317915224 3 3 -16 -22 1 -1 3 -1
1532262317937188 7 2 1 30 1 4 2 -5
1532262317952125 -46 -2 21 0 -10 -4 -1 0
1532262317990025 3 15 4 -7 -9 -8 -1 1
1532262318012964 -44 -34 -8 2 -3 1 -1 -11
1532262318049888 2 14 -4 1 2 0 4 -2
1532262318087785 19 -14 8 -2 -3 -3 -8 2
1532262318117715 -23 -4 -15 -2 0 4 53 2
1532262318139624 2 -10 0 -1 0 0 -20 -5
1532262318162585 13 3 -3 0 0 0 16 0
1532262318267282 9 6 -12 -2 0 -2 -15 6
1532262318321139 4 14 37 2 -2 -3 -40 2
1532262318372999 -4 -6 -16 -3 7 21 50 7
1532262318395938 -23 -8 -12 -9 -17 -5 -1 -1
1532262318417907 18 -3 -12 -12 -9 -8 -3 -3
1532262318545544 -7 -28 -5 20 12 2 11 -1
1532262318605401 -9 -11 -5 2 -21 0 -5 -2
1532262318627320 -22 -3 5 -4 3 5 -1 -19
1532262318710098 -44 -4 -1 0 4 2 -5 -16
1532262318807864 12 4 0 -1 0 -1 0 1
1532262318860718 -8 -2 -4 -4 -11 -43 11 0
1532262318904578 -3 -2 -6 -24 -2 40 8 4
1532262318972397 -7 -17 -12 -36 5 35 2 -1
1532262318995360 2 9 -14 -39 6 -8 -7 -3
1532262319010323 -1 12 14 9 64 -2 -3 2
1532262319100079 7 33 7 -10 -44 -13 -3 10
1532262319122024 -15 -26 -5 8 4 1 -5 -27
1532262319137967 4 3 -7 0 -11 -1 1 3
1532262319174856 15 -20 -10 0 0 -5 -6 29
1532262319197794 3 -9 -1 2 -3 0 -3 -12
1532262319257663 -1 -5 0 1 -2 -1 1 -1
1532262319377334 -3 10 -4 1 4 2 0 2
1532262319437177 8 11 -1 -9 -2 3 3 4
1532262319460119 0 -18 -4 -1 9 4 -2 -1
1532262319490013 4 -18 -3 -1 7 0 11 -1
1532262319512951 5 -9 8 5 -5 7 -9 3
1532262319549880 -5 11 20 7 6 23 -20 -7
1532262319572791 -2 7 -2 -12 -12 -10 14 0
1532262319602738 -8 -2 4 2 -3 10 31 11
1532262319654573 5 25 65 18 13 -4 4 0
1532262319707455 -1 2 -73 8 5 1 10 7
1532262319737375 -7 -7 25 -1 2 -17 5 -5
1532262319760290 -7 -7 -8 -5 -5 18 -1 -6
1532262319865037 -1 6 -15 1 4 5 -36 -5
1532262319911885 -2 -4 -1 0 1 -5 -18 -4
1532262319962775 2 -9 -11 -3 -11 -93 -87 3
1532262319992691 4 -1 1 1 6 28 17 -4
1532262320014634 1 -3 -4 5 5 40 127 -4
1532262320060487 3 4 6 -24 -2 -1 -31 -1
1532262320090455 4 -7 -17 -35 -19 3 13 -6
1532262320135287 -10 -23 -10 -56 -22 -3 15 -3
1532262320172189 -9 -34 14 4 0 1 15 -1
1532262320212082 4 7 67 -2 2 7 -6 2
1532262320262973 -6 -27 -18 -22 -9 -1 11 -6
1532262320314807 8 -58 43 11 -1 -1 -15 -1
1532262320374670 3 -9 -9 -24 -11 -1 -13 14
1532262320397610 -5 -7 0 -27 -6 -5 5 0
1532262320488366 1 5 22 5 3 3 13 5
1532262320511292 -1 -15 -34 25 9 1 -11 12
1532262320525272 0 -11 -20 9 -2 -4 -16 8
1532262320600069 -2 41 52 27 7 0 -65 -9
1532262320615028 -9 65 -51 -4 -7 -3 12 -43
1532262320727730 3 19 39 -79 -15 -4 -9 -3
1532262320766623 -22 -40 -18 -40 -12 -10 -14 -9
1532262320840429 -1 13 37 26 5 4 -13 -1
1532262320870346 -11 30 -20 0 0 -1 4 -3
1532262320900269 -19 -28 4 0 -1 1 66 -5
1532262320922206 8 -17 -8 9 -5 -6 -48 -3
1532262320952103 -2 28 0 -2 -3 -1 -7 -25
1532262321019949 0 -8 7 45 9 3 22 3
1532262321081779 -3 -4 -28 -41 -16 -8 -26 2
1532262321139602 -10 -17 -4 23 9 5 17 2
1532262321230386 8 23 -7 -10 -3 -5 47 -9
1532262321261276 -7 -7 -17 -31 -5 1 81 9
1532262321320146 1 -7 -4 1 -1 -3 3 -3
1532262321395938 -5 -18 -22 -5 -11 -2 -4 5
1532262321424862 9 -1 -20 10 3 2 5 1
1532262321552520 -3 -16 22 -3 -4 -4 -1 -1
1532262321597400 2 18 28 1 -2 -2 -1 -2
1532262321659235 -3 52 21 10 5 0 0 -2
1532262321702122 -4 17 10 -16 -3 -2 -2 -1
1532262321734040 6 50 95 10 0 1 1 3
1532262321762955 -13 12 -11 5 5 2 2 6
1532262321792879 -5 2 -8 -1 0 -1 -2 -3
1532262321852695 -4 -17 4 -1 1 0 -1 -3
1532262321912559 -2 3 -10 -10 -3 -2 0 0
1532262321942455 -6 46 22 2 2 2 3 -9
1532262321980380 10 52 -14 -2 -5 -23 -11 19

1532262322025233 1 31 114 -22 -9 2 8 6
1532262322070143 0 -59 -92 18 8 2 -3 6
1532262322100061 -6 2 -113 27 5 -3 3 17
1532262322227719 -2 -11 16 4 1 -1 -1 2
1532262322272573 6 -8 -16 -40 -11 -2 0 0
1532262322302519 0 -9 -21 3 4 3 2 1
1532262322317452 -1 6 6 10 6 -1 -2 -1
1532262322340398 0 -5 -15 -3 0 2 0 -4
1532262322379309 0 -13 0 3 0 -1 0 -1
1532262322430173 1 7 35 1 2 2 -2 -1
1532262322491011 -4 5 1 8 3 2 -1 1
1532262322527917 0 -1 18 1 -4 -5 -1 0
1532262322609693 8 -3 -36 1 -2 1 1 4
1532262322639591 -6 7 31 2 0 -1 -4 -4
1532262322662557 1 -15 50 -12 -4 1 3 -1
1532262322685490 -2 -30 -57 -4 1 2 0 1
1532262322761266 -3 0 -81 1 -1 -4 0 -4
1532262322797169 -1 -10 105 0 2 -14 2 -2
1532262322858006 -2 16 74 0 -9 -5 0 1
1532262322887949 3 -1 -30 4 -5 -6 -1 -6
1532262322909902 -4 -56 -54 2 -2 66 28 32
1532262322939788 -2 5 -18 -7 -13 -17 -7 -56
1532262322986662 -4 12 -6 -4 -1 1 0 3
1532262323060488 3 -3 28 -11 9 5 3 16
1532262323075449 0 -12 -42 -21 -6 1 5 0
1532262323120305 -5 -3 -28 -2 13 3 4 -44
1532262323135265 3 2 -17 -2 -3 -3 -3 14
1532262323157229 -5 -14 3 -1 1 1 1 5
1532262323217073 -5 -32 -5 -3 -14 -5 -4 2
1532262323284865 3 18 -26 4 2 2 1 2
1532262323337744 1 7 8 2 1 -4 0 -1
1532262323382627 2 -7 -21 7 30 14 5 2
1532262323412546 -1 -6 4 1 4 0 -1 -1
1532262323435485 0 0 5 -10 6 -3 -2 -1
1532262323465406 0 -18 -1 1 13 5 1 -1
1532262323480342 1 5 3 2 0 -1 1 0
1532262323540182 -3 -19 -10 -3 -6 0 2 6
1532262323564118 -6 -30 3 -3 0 -3 -4 -5
1532262323629942 2 54 10 -2 4 2 1 1
1532262323674845 -2 -13 0 2 -1 0 -1 0
1532262323689783 -1 8 -1 -1 -2 2 -1 0
1532262323727681 -2 -11 -6 -4 -9 0 -1 1
1532262323802508 -1 -6 2 -2 -2 -1 -1 0
1532262323825449 -2 8 0 0 2 -1 -19 -3
1532262323841377 0 2 -1 -1 1 5 12 0
1532262323870323 0 2 2 -8 -9 -7 -1 -1
1532262323885286 -1 1 -11 -8 -7 1 -1 -4
1532262323907201 -2 -9 -3 -7 -20 -8 -1 -2
1532262323952081 1 -6 -10 3 5 3 25 6
1532262323975047 -6 -5 2 -6 -3 -7 -26 -6
1532262323989980 7 11 16 11 0 10 8 -1
1532262324034883 1 -1 0 0 0 -2 7 -1
1532262324132626 -2 -6 -9 -3 -1 1 4 0
1532262324177507 -1 -1 -5 -3 -2 -1 1 -1
1532262324192465 15 -2 -5 -6 -4 -1 6 5
1532262324379960 5 7 2 -2 -4 -5 -6 13
1532262324447783 -1 9 -2 -2 2 4 16 -21
1532262324522555 6 11 5 2 6 7 13 12
1532262324597382 13 13 7 7 4 0 -18 23
1532262324612343 -1 -15 -4 -5 -7 -3 0 9
1532262324674150 -3 -2 0 3 5 3 3 6
1532262324702099 8 8 4 7 2 -3 -1 17
1532262324739974 0 1 7 -15 -3 0 6 0
1532262324799814 0 -19 5 7 -5 -2 55 8
1532262324844721 3 30 11 4 0 -4 -11 -6
1532262324927498 2 7 30 41 9 -6 -9 1
1532262325010274 1 -10 3 -4 4 6 -10 8
1532262325077095 -1 -84 -6 -2 -1 -8 3 -2
1532262325144919 -8 -28 -14 -5 -9 -17 -5 -2
1532262325182813 6 -3 11 -3 -4 0 18 6
1532262325204731 10 11 0 2 -2 14 17 3
1532262325234673 6 16 8 4 6 9 -28 5
1532262325257612 -2 8 3 13 1 3 2 -6
1532262325295489 2 9 -11 -49 -9 3 -27 -9
1532262325370288 3 -6 13 -21 -9 13 27 -5
1532262325415192 -2 -21 10 6 -2 5 -31 -1
1532262325483034 -2 -14 -3 17 -1 9 -25 -1
1532262325549836 -1 9 -1 3 -4 -12 -25 1
1532262325677467 2 12 -1 -2 -3 3 -31 -1
1532262325700405 0 -2 3 -1 1 -1 -3 1
1532262325745309 0 3 1 -15 -14 -4 -8 -3
1532262325822080 -2 -15 -9 0 -3 1 -1 0
1532262325858982 -2 0 5 -12 -8 -3 0 -2
1532262325887931 6 -52 -3 2 0 2 1 0
1532262325902891 14 -56 -30 -7 1 3 2 4
1532262325999634 7 -6 5 -14 -3 -2 1 5
1532262326136241 -13 39 10 5 2 -4 -12 -5
1532262326195083 11 -14 0 -13 -3 6 8 5
1532262326247941 -1 68 3 -1 -5 -4 13 -1
1532262326277888 5 -9 19 26 21 4 13 4
1532262326316758 -8 11 10 -7 -9 -4 -7 -6
1532262326352661 7 39 21 17 -12 4 16 6
1532262326374626 6 -28 5 19 16 -2 13 -2
1532262326397565 -7 -86 -11 6 -16 -8 -14 -7
1532262326420504 1 51 7 7 12 5 -5 -1
1532262326450427 1 12 -4 -12 -13 -10 -20 3
1532262326465388 6 4 -6 -9 -4 1 5 0
1532262326480348 -19 8 8 0 3 3 -5 -9
1532262326517244 5 -21 -5 1 -3 0 4 -1
1532262326540160 5 5 -1 -3 3 -1 -7 0
1532262326607979 16 4 -5 -4 -4 -3 10 2
1532262326676829 -4 -8 -6 3 0 -1 -5 3
1532262326697738 3 44 2 -6 6 -5 -2 6
1532262326772538 -3 31 4 -13 3 0 1 1
1532262326795478 1 5 -4 -5 91 19 -2 1
1532262326870304 -10 10 3 14 -35 9 -3 3
1532262326894237 -1 -10 3 -9 11 14 1 -1
1532262326922166 4 13 -7 -9 18 3 -1 2
1532262326945077 12 -12 1 -6 -11 -2 -1 4
1532262326968060 1 16 -2 -5 -14 -1 0 4
1532262327004940 -9 0 -1 4 2 1 -1 -8
1532262327064784 -7 5 -2 -1 4 2 1 -3
1532262327155514 -8 27 -2 -5 -6 -3 1 -3
1532262327177456 -29 -16 -4 3 -5 2 -3 -3
1532262327260255 -1 -7 -2 -23 -11 4 0 1
1532262327277189 -2 -38 -9 -27 -16 -1 0 0
1532262327297164 0 0 -5 -37 127 35 7 7
1532262327335061 -3 -30 -13 -18 -25 -10 -2 0
1532262327387916 3 16 2 26 -23 -3 -5 -1
1532262327462716 1 0 -1 1 9 3 -2 -3
1532262327507629 -1 -17 -4 -1 9 2 -7 -13
1532262327552480 1 -8 -7 6 1 0 3 29
1532262327582373 4 -31 -9 1 -4 -4 1 4
1532262327710064 4 20 25 14 13 5 16 -10
1532262327799791 -7 -8 -22 -2 -1 -8 33 -4
1532262327852673 -7 -12 11 1 -2 6 9 0
1532262327927474 -11 -1 11 43 1 -3 -4 -18
1532262328010229 5 -54 -6 -12 -2 0 -14 9
1532262328062090 -1 -11 6 -3 4 -1 -10 1
1532262328078047 -1 -2 -47 81 5 -1 -4 -2
1532262328093007 -9 -39 -41 -51 -14 -10 -26 -6
1532262328236648 -7 -29 -6 -25 6 5 -12 -7
1532262328295491 4 82 -5 -4 -9 -2 1 -25
1532262328482987 -8 18 90 49 13 7 1 -6
1532262328497952 -2 -27 -22 5 -5 -4 7 -1
1532262328519893 -3 -22 25 2 -3 0 -21 1
1532262328549811 -9 9 20 -13 -5 -3 3 -3
1532262328602671 -1 36 9 -25 -13 -6 -50 -22
1532262328647547 14 42 47 44 11 2 10 8
1532262328685444 -6 -24 -29 -40 -17 -4 12 -5
1532262328722352 -11 -13 -16 -25 -3 -1 8 -6
1532262328775206 -4 14 28 3 -3 -2 -40 -30
1532262328797124 -15 -13 -28 -3 -8 -3 -3 -13
1532262328894890 8 7 0 -6 2 3 20 -18
1532262328947745 -16 11 -33 -1 -16 -2 -17 -15
1532262328992616 5 -26 42 36 6 -2 1 11
1532262329045487 4 28 17 2 6 6 13 10
1532262329112306 27 9 -16 -1 -3 0 14 34
1532262329173119 -6 11 -22 -12 -5 -5 -39 -3
1532262329232967 0 -14 -14 -15 -4 -6 11 -2
1532262329284821 0 -9 -13 -32 -4 0 0 -6
1532262329397547 1 -5 4 15 4 0 -8 -4
1532262329442428 -2 1 -15 1 -1 -2 -6 -1
1532262329525200 2 -17 -28 -5 -1 0 -3 -2
1532262329591999 -3 24 34 0 1 0 0 0
1532262329622939 5 4 -31 -1 -2 2 0 0
1532262329697745 -2 -4 -1 3 6 1 1 -4
1532262329727660 1 0 -31 7 4 0 0 -1
1532262329772517 1 12 -13 4 1 1 1 0
1532262329818394 6 35 73 0 0 -1 -1 0
1532262329923115 0 -38 -62 -3 2 0 -2 0

1532262330004922 9 -6 -87 60 17 -4 2 19
1532262330042823 -4 21 9 -7 -5 -4 -1 9
1532262330087674 4 15 4 -27 -5 -2 0 5
1532262330117610 -5 -4 -7 6 1 -10 -23 -1
1532262330139543 1 6 14 -22 -8 -4 -5 0
1532262330177433 -1 -2 -2 -1 -2 -2 -2 -4
1532262330201370 2 1 6 -9 -7 -2 5 6
1532262330223311 -4 5 19 9 3 -6 -2 -1
1532262330290132 -2 1 -9 -27 -7 -4 -3 1
1532262330335038 1 -1 -27 -5 -5 -2 0 -2
1532262330372910 -2 8 29 0 1 1 -1 -2
1532262330417791 -4 -6 -7 -1 -1 -3 0 -3
1532262330456693 -1 1 -10 0 1 -1 0 1
1532262330484612 1 -10 -8 -2 -1 2 3 0
1532262330560432 -4 5 -4 -1 2 5 2 -7
1532262330590339 -1 4 2 -1 -1 -1 2 0
1532262330627254 2 -1 1 4 0 4 0 -2
1532262330718015 -1 -11 -44 -3 0 3 -1 3
1532262330762890 -5 8 38 -3 -3 -1 1 -7
1532262330792809 1 1 -34 3 2 -2 -1 -1
1532262330844677 -1 -7 -10 1 -2 -6 -2 -2
1532262330859632 -2 0 -21 -3 -2 1 0 8
1532262330890528 1 -4 -33 -4 -1 2 0 -5
1532262330912489 -1 -1 7 0 -1 -2 -7 -2
1532262330958346 1 -3 8 1 0 0 1 0
1532262330996245 -1 -4 -26 -5 1 2 3 -3
1532262331017216 -2 3 -30 -1 1 2 -1 -2
1532262331032173 0 6 17 3 0 -3 -2 -3
1532262331055110 1 -2 10 -1 0 -2 0 4
1532262331078025 -2 7 3 -3 -3 3 2 1
1532262331107945 -2 -1 8 1 1 0 -2 -1
1532262331129886 -2 -6 -6 3 1 -5 -4 -10
1532262331144877 -4 3 6 1 0 2 1 2
1532262331174794 1 0 -21 -11 -5 -5 -3 -6
1532262331197731 -1 -5 -3 2 -1 5 -1 -9
1532262331257545 -1 -9 -18 -2 -3 2 1 1
1532262331317414 1 -1 3 4 5 7 -1 0
1532262331362286 -3 -3 4 -3 -4 -4 -2 9
1532262331385226 2 10 1 0 1 1 2 1
1532262331407157 -2 7 -25 0 0 1 -2 1
1532262331489940 -2 4 19 -1 -2 -3 -1 -6
1532262331504911 -4 -5 -17 -1 -3 -3 -1 2
1532262331519868 -1 7 -2 2 3 1 -3 -2
1532262331579707 -1 -5 6 3 0 -2 1 3
1532262331611619 -2 -3 3 0 -1 1 -1 -9
1532262331677445 -3 3 -3 0 -2 -7 -2 2
1532262331715344 -2 -2 -10 -2 0 5 1 2
1532262331745269 1 2 2 -2 -1 15 6 -5
1532262331798100 1 -4 -1 1 0 7 6 11
1532262331857973 -5 0 25 -1 -2 -5 -2 -2
1532262331872928 -2 -9 -40 -2 0 -10 0 -12
1532262331924796 -2 -2 -28 -2 0 10 1 5
1532262331984623 2 -14 -27 7 4 4 1 -8
1532262332030506 1 -9 -9 0 2 7 1 -1
1532262332150158 0 15 -3 0 5 30 -1 -3
1532262332165149 7 14 10 4 5 8 12 6
1532262332209998 -2 8 -81 14 -3 4 4 0
1532262332247897 3 4 -23 3 4 5 6 5
1532262332329701 -3 14 -16 -4 -2 -1 3 -2
1532262332420436 0 -6 -6 -5 -4 -2 -2 1
1532262332480275 3 45 0 13 4 3 1 -2
1532262332532137 -3 -8 -25 -2 -3 -6 -1 -2
1532262332555098 1 29 8 -3 8 -3 1 0
1532262332577017 2 1 -11 -4 5 6 3 2
1532262332607956 -2 -3 -16 8 2 0 0 0
1532262332652840 1 -14 -7 7 -1 3 -1 -3
1532262332744592 -1 -28 11 -7 -9 0 3 2
1532262332787483 1 -5 -7 -3 5 0 -2 -1
1532262332847294 -1 0 9 1 1 -2 1 -4
1532262332885193 -5 3 -2 -2 0 -2 -1 -1
1532262332923091 -2 1 -1 -5 5 8 1 -3
1532262332953039 -2 12 -5 7 2 0 -2 -5
1532262332982931 5 0 -5 -25 -5 -4 -1 -1
1532262332997891 -3 -7 8 19 3 2 1 -3
1532262333036810 -28 -11 -13 -13 1 1 -2 -2
1532262333057732 9 -7 -12 -18 -6 -1 5 1
1532262333102638 13 -8 -10 0 0 -5 -13 12
1532262333132531 3 5 13 1 -1 -2 2 17
1532262333162451 -3 14 19 3 -1 7 5 -6
1532262333207332 -3 -13 -11 -5 -1 -1 -2 -4
1532262333305070 23 22 40 1 0 5 14 40
1532262333342969 6 -4 -5 4 2 2 3 1
1532262333364933 -5 -3 -4 2 -1 -1 -4 -4
1532262333424777 7 7 9 4 -2 -2 -9 -1
1532262333454670 -7 -10 2 -2 -1 -3 6 -10
1532262333492568 10 0 6 5 3 13 10 -8
1532262333537449 6 7 5 2 0 -10 -5 3
1532262333560387 1 -6 -6 0 -3 4 43 5
1532262333582351 -23 -8 -7 -9 -9 -16 -30 -42
1532262333627208 17 3 -7 -7 1 -13 -7 -8
1532262333665107 16 15 14 13 6 -5 -5 18
1532262333680090 26 -1 1 11 -2 8 17 30
1532262333703034 6 1 3 -7 0 12 20 -1
1532262333717989 -22 -12 -3 -2 -7 -2 -18 -18
1532262333739909 -11 -3 -2 -10 -6 -11 -10 -18
1532262333814736 -9 6 5 6 4 -4 -1 -5
1532262333837673 0 -15 -10 -3 -3 -12 -16 4
1532262333897513 -2 -12 5 63 10 2 13 -2
1532262333957349 10 5 0 -8 -1 2 12 12
1532262333972310 10 28 15 26 7 -10 -29 2
1532262334017193 5 19 65 11 11 39 11 -9
1532262334055065 2 5 -4 0 4 -13 -21 2
1532262334099944 1 -23 -15 -1 1 -9 -1 0
1532262334167763 -3 3 18 7 3 -3 -16 -2
1532262334204688 -1 -1 -23 -9 -7 3 -20 -4
1532262334242590 1 -50 1 -1 -1 0 21 6
1532262334295449 5 57 22 0 0 -1 -6 6
1532262334347306 -7 12 -10 -3 -3 -10 19 -7
1532262334385208 -8 -41 48 -10 -5 -4 12 -3
1532262334445051 -2 -7 -14 18 7 -11 5 -1
1532262334497886 -7 29 51 8 5 -22 -47 -13
1532262334557748 -14 -9 -13 -16 -4 -20 4 -7
1532262334624542 -3 27 -31 -8 -1 -46 -26 -6
1532262334662463 -1 -1 -2 6 1 4 -35 -6
1532262334692360 0 -11 -20 -3 -7 19 43 -2
1532262334715321 2 -8 28 -10 -1 -6 -36 -4
1532262334805086 -7 -6 -8 7 1 6 -17 0
1532262334872877 1 -11 -6 9 7 9 35 4
1532262334917785 -1 2 -6 4 2 -7 -10 0
1532262335000559 1 -25 4 1 0 -2 -5 -1
1532262335045444 2 -40 -23 7 -8 -9 -1 1
1532262335070349 -1 -9 -19 0 1 -3 1 1
1532262335105256 0 -7 12 -7 11 6 1 -1
1532262335180079 -13 5 -12 1 4 -3 -3 -3
1532262335224960 -19 -3 10 4 2 1 0 4
1532262335247899 24 -34 -23 -1 -14 -13 -25 2
1532262335262855 -60 -27 10 -17 11 3 -1 3
1532262335284776 -20 25 -24 18 28 4 5 -6
1532262335299763 4 18 6 1 59 31 30 6
1532262335314696 18 22 9 -3 -19 -1 -1 3
1532262335337635 17 1 -4 6 -1 2 -2 3
1532262335359603 -11 5 -1 -15 4 2 -16 -5
1532262335397475 7 -9 -10 -11 -19 -7 -19 3
1532262335412463 -5 12 1 0 11 4 -11 -5
1532262335435373 2 12 3 0 -4 -1 8 -7
1532262335450362 -14 22 5 1 6 1 -6 -4
1532262335496211 -44 -39 0 1 -4 -2 1 -5
1532262335510198 13 -40 -10 -13 -2 -4 11 11
1532262335547074 2 -14 2 1 2 0 -6 -9
1532262335577992 -1 15 -3 -1 -3 -4 -4 1
1532262335607939 8 2 34 0 1 2 -13 -3
1532262335644834 15 6 1 -2 -7 17 -3 -7
1532262335697701 -5 -2 -4 -2 -3 -7 -6 0
1532262335811368 -3 20 2 9 -2 -10 -8 -3
1532262335825330 -3 3 -28 -8 16 13 1 1
1532262335855275 -8 -23 -26 -7 -2 -4 -16 -2
1532262335907118 -7 8 -11 -16 -17 -7 5 -2
1532262335922099 -12 6 6 -9 14 8 3 0
1532262335939054 9 1 -3 -29 -54 -18 -9 1
1532262335989891 8 6 21 121 9 58 15 9
1532262336019835 -2 26 -26 -85 -102 -44 -15 -5
1532262336049730 -6 -8 -2 -19 -13 -14 -4 -3
1532262336072669 -1 52 1 6 -27 -8 4 -2
1532262336117577 -5 -47 2 -6 -11 -3 -1 -18
1532262336132536 0 -7 -25 -6 -3 -3 19 0
1532262336155475 -1 -12 -7 0 9 2 -3 -2
1532262336200328 -3 6 1 -4 1 7 9 1
1532262336261165 2 26 -27 -1 -1 -3 1 -7
1532262336290088 -1 -4 25 -2 -3 -4 -17 7
1532262336313053 0 -5 -7 -2 -4 -6 -15 1
1532262336342968 -8 8 0 1 0 3 9 2
1532262336387853 -6 3 -2 -20 -17 -1 -9 -2
1532262336425746 -3 5 -6 -4 1 -4 -6 0
1532262336441682 -2 5 -1 -12 12 1 -5 -1
1532262336462626 0 -6 -2 9 -6 -2 3 1
1532262336477610 -1 1 3 19 14 -2 6 1
1532262336499552 -15 -19 0 1 -11 3 -1 -2
1532262336561362 -12 -5 -4 -23 33 -6 -1 -3
1532262336584326 -8 -15 -4 -23 -33 -2 1 1
1532262336612249 5 22 -2 14 -8 -8 -1 -1
1532262336657106 0 29 -1 3 -29 -7 -4 -2
1532262336717944 2 22 4 12 -7 2 1 1
1532262336739893 9 -8 -6 1 -8 -5 -4 -2
1532262336777810 -1 34 0 6 -5 -1 -2 0
1532262336792768 -4 -1 0 1 -4 -2 -2 -1
1532262336815682 1 -2 -2 2 -2 -2 1 7
1532262336882503 0 -18 -3 -3 -5 -1 -2 -9
1532262336912447 5 -2 -1 1 1 -1 0 4
1532262336927384 1 1 -5 -1 -1 -1 1 -3
1532262336942343 10 49 1 1 2 -2 0 4
1532262337040083 16 -4 4 4 0 -3 -2 1
1532262337084986 -4 -23 -13 -10 6 -19 0 -3
1532262337116877 -5 18 -5 -15 -31 8 1 -2
1532262337138819 -7 -41 -5 -32 0 4 -2 -1
1532262337167741 -4 -4 -9 3 10 -5 -1 0
1532262337189691 -1 15 13 15 20 12 1 0
1532262337212644 2 10 -2 0 14 2 -2 -1
1532262337227605 -4 5 -7 -11 -24 -4 -3 -3
1532262337249522 -1 -5 19 -7 -3 -2 -2 -1
1532262337295423 0 -1 -4 -6 -4 -4 -2 -5
1532262337370230 6 2 -66 -2 5 0 -5 -3
1532262337467962 4 -3 -5 -7 2 -7 -13 -16
1532262337579639 5 7 -2 -5 4 1 2 -1
1532262337594626 0 18 -30 9 6 8 19 2
1532262337655437 5 7 -10 -7 -9 -9 -50 -18
1532262337692366 -51 -81 -50 -37 -6 -1 3 -14
1532262337710290 -1 -9 -13 -18 5 10 21 7
1532262337775144 10 37 36 29 1 5 9 1
1532262337805064 -1 -24 18 21 5 1 -3 2
1532262337864876 -13 81 19 -11 -8 -4 -6 -23
1532262337918734 1 67 23 -13 -10 -7 -31 -49
1532262337984579 -6 -29 -3 13 7 4 -81 0
1532262338015474 6 1 -32 1 2 -1 -49 3
1532262338120221 8 22 24 -52 -10 -1 6 4
1532262338157117 9 26 49 -22 -10 -1 33 12
1532262338277795 -9 -3 -10 -3 2 -3 -3 -15
1532262338316668 15 18 47 -53 -12 -2 -14 11
1532262338375533 -2 -4 6 20 4 5 16 7
1532262338459310 5 -6 -31 -3 10 11 -2 16
1532262338607913 -8 47 11 -12 -11 -13 -34 -15
1532262338652792 -4 -10 -63 -39 -16 -6 45 -3
1532262338721586 -9 -17 24 0 -2 -1 -59 10
1532262338742529 -2 50 18 12 9 6 -7 18
1532262338765493 4 -12 -20 -4 -4 -6 -44 -82
1532262338795418 -18 15 3 -4 3 0 -20 9
1532262338892152 8 10 -10 -14 4 5 -17 4
1532262338952993 17 114 66 24 -1 -1 -13 -2
1532262339044749 3 -15 -15 7 1 -2 -39 15
1532262339162427 -10 8 27 -21 -7 2 4 -3
1532262339261143 -1 -4 -3 -6 4 7 31 13
1532262339342924 11 -11 -7 -2 0 -1 -4 2
1532262339447668 0 -12 -29 14 1 0 0 -2
1532262339507484 -3 -62 -56 5 2 1 1 5
1532262339537431 -1 18 67 -10 -9 -7 -5 -4
1532262339597244 0 37 27 -1 0 -1 0 -2
1532262339642159 3 8 -22 0 -4 -2 -2 0
1532262339695979 -1 15 66 5 0 -1 -1 -1
1532262339740861 4 0 -25 -6 -1 0 4 12
1532262339769810 0 24 67 6 0 1 -1 -6
1532262339809678 -10 1 -78 1 9 50 15 -70

1532262339867521 10 -18 91 42 4 -10 -1 18
1532262339987228 3 8 -46 -3 -3 -9 -1 5
1532262340010167 2 -2 -26 41 6 2 3 1
1532262340099923 -4 2 -10 33 23 9 1 -8
1532262340137822 3 -4 13 2 2 -1 3 5
1532262340212599 -2 -22 -1 10 0 -2 1 1
1532262340243515 -1 -6 -21 -3 -2 -2 3 9
1532262340265484 -5 12 -21 6 1 -1 -1 2
1532262340295401 -3 3 15 -7 -2 0 1 0
1532262340347261 -2 -2 7 2 1 0 -1 3
1532262340377182 0 6 -16 0 -1 -8 -6 -1
1532262340400097 1 -6 12 -1 0 -10 -1 1
1532262340467939 2 -4 -7 1 1 -7 -6 0
1532262340497858 -1 -10 -34 1 -1 2 4 2
1532262340542743 2 23 97 -3 -5 -2 0 -1
1532262340594607 0 -15 -27 1 1 -7 -11 -1
1532262340610559 -3 4 -13 -6 -7 -15 1 5
1532262340640454 5 3 9 7 0 15 5 -2
1532262340677356 -9 -3 5 -5 -5 -31 -15 -21
1532262340700317 4 15 11 -5 1 9 6 4
1532262340745204 15 -17 -10 -1 8 38 11 30
1532262340797059 -5 -13 -95 -52 -12 -20 -8 -7
1532262340842940 -2 -33 -28 -2 -6 -4 0 7
1532262340864881 0 -14 -25 -13 -9 0 0 23
1532262340939654 -2 7 -22 6 7 1 -1 16
1532262340969574 -5 41 1 -5 -6 -2 -1 -6
1532262341022445 -20 -26 3 2 -4 -2 0 -33
1532262341037393 -6 -46 1 -3 9 6 2 -9
1532262341082297 0 -19 -15 -3 -5 -4 -1 8
1532262341112193 2 -11 3 -6 1 6 0 4
1532262341165079 -2 -8 -29 -5 -3 -2 -3 -2
1532262341180035 -2 -17 32 5 1 2 0 2
1532262341301686 11 22 10 0 -4 -7 -5 13
1532262341323632 9 34 7 3 3 1 -3 -7
1532262341352578 6 -4 6 3 0 2 4 30
1532262341383492 27 -3 2 1 -1 -2 -2 27
1532262341405409 7 -5 -2 -1 -2 -3 -1 13
1532262341427378 5 1 1 -1 0 0 2 -16
1532262341465280 -12 -9 -1 -2 0 -1 0 5
1532262341510152 -8 -29 -6 4 1 -3 0 -5
1532262341638785 1 -4 -9 -7 -8 -4 0 -1
1532262341667707 7 7 6 4 14 11 1 2
1532262341689649 -1 -4 -5 -16 -7 3 -15 0
1532262341735550 3 -2 -19 -3 8 5 2 5
1532262341766471 -14 -8 3 -4 -10 -8 32 -11
1532262341810326 -13 -20 -11 -5 1 6 16 5
1532262341855233 49 4 1 -20 -1 11 14 11
1532262341930033 1 -14 -5 -3 -2 -2 -6 -20
1532262341959949 -24 -7 -3 -1 2 -2 -31 -18
1532262342019794 -8 1 3 1 -3 2 9 -7
1532262342079633 14 2 5 3 3 -6 11 8
1532262342162412 -33 -17 -5 0 0 -27 -3 -74
1532262342207290 -29 -15 1 -3 -6 4 -23 -13
1532262342230203 -23 -13 -21 -10 -2 4 -35 -37
1532262342252172 4 2 -13 -8 -6 -3 0 -35
1532262342305026 -11 -10 -5 -2 -3 21 127 30
1532262342372833 30 0 8 -1 -5 17 -19 -8
1532262342439643 0 4 4 5 7 13 18 -5
1532262342567328 -5 9 1 -2 0 5 -43 0
1532262342627142 -21 -12 4 1 4 8 22 -13
1532262342717927 11 11 9 0 -2 16 20 4
1532262342747818 5 25 19 12 12 5 -29 -1
1532262342784743 6 31 -7 -6 -4 6 0 -1
1532262342844560 -2 9 -1 -2 1 -8 50 9
1532262342920380 3 35 2 2 0 -5 -31 -3
1532262342965267 0 9 -7 6 4 -9 0 2
1532262342989173 -1 7 8 -6 3 16 -35 2
1532262343063000 -3 -8 -15 12 2 -9 25 6
1532262343099905 -6 -9 -2 6 -2 7 -7 -7
1532262343129821 -7 13 -1 4 2 22 5 -1
1532262343204598 -4 0 -9 -2 -4 -27 21 0
1532262343287376 5 3 0 -1 -7 -32 -22 4
1532262343332284 2 -2 0 8 3 -3 12 5
1532262343400075 3 4 3 28 12 9 -3 3
1532262343467920 4 9 0 -3 3 21 25 5
1532262343489835 3 3 8 3 -1 2 -2 0
1532262343527756 2 -15 2 5 1 -7 1 2
1532262343549675 -1 -1 -3 -4 -3 5 2 -1
1532262343595557 1 26 6 -2 3 2 0 2
1532262343647436 1 47 35 5 2 11 -2 0
1532262343692293 3 45 64 11 -2 -1 0 -1
1532262343805014 6 31 0 2 1 -5 -7 1
1532262343827960 -11 -23 -8 5 25 -2 -23 -1
1532262343872816 -14 0 7 26 9 -2 0 -3
1532262343887794 -12 -5 14 -20 -20 -7 -1 -3
1532262343909712 1 11 -4 1 -6 -6 -1 0
1532262343947636 -2 -8 5 -4 0 -1 -4 -3
1532262343977555 7 -4 3 -1 0 5 5 5
1532262343992517 21 4 -2 -2 -13 -3 21 5
1532262344015454 -19 -10 -3 -1 -2 -1 -2 -2
1532262344060333 9 26 -6 -2 -4 -5 -23 -9
1532262344090256 3 -13 -3 -4 0 0 3 -5
1532262344127153 5 -43 -3 -2 1 1 10 5
1532262344165052 -8 -13 0 1 0 1 9 1
1532262344179989 -4 -13 -4 1 0 2 -2 -4
1532262344224896 -1 -18 -1 0 0 2 -1 -5
1532262344247830 2 34 -12 -4 0 -2 -5 9
1532262344322635 -8 -15 2 4 -8 4 -1 -3
1532262344376464 1 14 -23 -23 21 3 0 -2
1532262344405409 -2 -4 -23 -9 12 2 -2 0
1532262344442288 -2 10 -24 19 -58 -5 -3 -4
1532262344465249 6 27 18 41 62 24 -2 0
1532262344517088 -2 1 3 -10 -11 -5 -1 -2
1532262344607845 -8 30 5 -9 13 4 1 -3
1532262344652748 -9 -7 6 -4 -2 -2 1 2
1532262344720544 -3 7 2 -1 0 -1 -3 -1
1532262344795371 -5 12 0 -2 -2 -1 0 0
1532262344840224 -1 -13 8 3 7 2 1 -4
1532262344862188 0 2 1 -21 -5 -17 -12 -4
1532262344909060 2 16 -16 9 18 -8 4 2
1532262344952922 -1 58 14 -10 27 14 3 0
1532262344968880 4 -14 1 3 22 17 2 2
1532262345004811 2 4 -10 -7 14 -1 -1 7
1532262345034704 5 -44 -3 -1 3 0 -1 0
1532262345087562 -1 -2 -2 7 6 3 0 -7
1532262345109528 7 -1 5 2 -2 1 4 18
1532262345141418 0 31 1 -1 1 1 1 8
1532262345185301 8 3 0 -2 1 -2 -1 6
1532262345230181 -3 -16 0 0 0 2 0 8
1532262345283039 -2 -2 -2 0 -7 6 -1 2
1532262345305008 10 13 -3 -23 6 -3 -12 8
1532262345334925 2 30 1 5 12 5 -1 0
1532262345372812 -7 9 13 50 21 -8 -9 -4
1532262345395770 5 -6 -3 -10 13 14 1 -6
1532262345432667 -5 -9 -2 4 -12 -6 -10 -3
1532262345447623 -3 -29 -19 -17 -55 -14 -4 -3
1532262345492480 -5 -9 -36 -2 -47 -26 -7 -6
1532262345515446 3 11 16 -17 3 -3 -4 -1
1532262345545366 -4 -30 4 -23 -5 -5 -3 0
1532262345567280 4 4 -6 -1 -7 -3 -2 -1
1532262345620168 -6 5 6 -4 -4 0 -1 -4
1532262345650080 -8 0 -2 -5 -1 -1 5 -3
1532262345672027 -6 4 -1 -3 -3 4 2 1
1532262345762777 -3 -9 -1 0 1 2 3 -5
1532262345784730 2 -2 -3 -4 -3 -3 -7 -1
1532262345875479 0 -5 -2 0 -3 1 2 -2
1532262345912380 -6 -13 -15 -10 -1 17 -2 0
1532262345927344 1 -30 -12 4 4 -9 -1 1
1532262345987184 -2 -12 -5 -6 -22 -10 -1 -2
1532262346047020 12 12 -24 -7 13 1 32 5
1532262346092874 -3 -1 30 -2 -13 -12 -9 3
1532262346114816 -4 4 8 7 16 0 3 -2
1532262346167701 7 8 19 3 -3 -3 -25 -5
1532262346189615 -5 11 22 12 3 2 12 5
1532262346272418 -6 6 -58 21 5 4 1 0
1532262346341213 -2 -2 -35 -3 3 3 -35 -10
1532262346400077 -9 14 -3 -9 -6 -2 -15 -19
1532262346429972 -7 -36 2 22 9 5 3 0
1532262346452941 -14 -15 -10 -92 -20 -3 -5 -6
1532262346482851 1 -22 36 -2 -2 -2 -2 -2
1532262346512774 -2 7 -12 11 0 2 8 -1
1532262346534715 11 -11 -29 -10 -6 0 -11 3
1532262346625450 5 1 29 15 6 5 -21 2
1532262346647418 -5 -25 118 14 -1 -4 -2 0
1532262346707259 4 28 1 2 -4 7 11 -18
1532262346739145 1 11 -6 6 0 -2 -8 -29
1532262346775050 -14 -8 9 -71 -17 -8 -10 -15
1532262346812972 -11 10 7 63 7 0 -8 -2
1532262346857829 3 -21 -14 6 9 3 7 0
1532262346939610 -10 106 91 -6 -9 -4 4 14
1532262346970532 -18 -5 -36 -11 -5 -11 29 -34
1532262347037349 -17 -48 -18 -15 1 -1 -9 -6
1532262347061285 -9 -19 -27 -10 -9 -5 6 -3
1532262347106164 -10 10 6 9 -1 0 2 -3
1532262347202934 -16 -19 53 -10 1 1 -2 -1
1532262347277727 13 -39 -60 3 6 2 -36 -2
1532262347337546 -7 8 -18 52 15 1 55 -9
1532262347384444 -25 -53 -36 9 -14 -14 -40 -1
1532262347427333 -10 12 11 -15 1 1 -12 0
1532262347502128 -14 -36 23 7 -5 -7 14 -1
1532262347532026 -19 -74 -14 3 3 4 -5 3
1532262347584885 6 3 -10 2 1 -2 18 -4
1532262347629764 4 11 17 5 1 -1 -59 17
1532262348102524 -5 -61 -19 -8 -5 1 -3 -2
1532262348125467 5 77 -24 -3 -1 -2 1 3
1532262348155392 -3 -31 -22 4 -2 -6 2 6
1532262348185304 1 6 -3 -7 -3 0 0 2
1532262348230182 -4 19 53 -24 -13 -3 -6 -6
1532262348275066 7 20 15 13 5 2 0 3
1532262348312961 -3 -24 -32 -9 -6 1 0 -1
1532262348357818 -1 6 4 7 2 1 0 0
1532262348394745 -6 2 -24 12 1 3 0 -2
1532262348419652 3 -2 -6 -6 -2 -1 1 2
1532262348439599 -3 -5 31 -2 -4 -4 -2 4
1532262348455581 -2 25 22 -3 -1 2 2 2
1532262348485498 -8 -38 -43 4 2 -23 -4 -27
1532262348530380 1 -21 30 2 -2 1 5 -6

1532262348590196 2 85 64 -35 -4 3 -3 -7
1532262348612161 1 17 -60 20 -1 2 -1 -1
1532262348672980 4 24 4 1 -4 0 5 13
1532262348702918 0 5 -12 -15 -8 -3 -2 -4
1532262348792660 -1 -9 3 10 -3 -5 -3 -4
1532262348808619 -2 4 12 -6 -1 4 -1 -8
1532262348867478 -2 -1 -11 -3 -2 3 -2 0
1532262348912369 4 -11 -29 0 2 -1 -1 -1
1532262348942254 -1 10 50 5 2 1 -1 1
1532262348972202 -1 -2 -10 3 1 2 0 -2
1532262349025056 -2 -9 -11 29 13 2 0 3
1532262349054985 -4 6 25 -8 -4 3 3 -1
1532262349092852 1 -6 -6 1 -1 -1 -1 -1
1532262349122773 -2 -7 -35 -3 -2 -3 2 0
1532262349167680 0 9 31 3 -1 -3 -1 -1
1532262349197594 -5 -13 -55 -16 0 5 -3 -5
1532262349227492 0 -1 -17 -1 3 5 0 1
1532262349280374 0 -2 -11 -4 0 1 -1 -2
1532262349317275 2 2 -17 2 -2 -6 0 0
1532262349355173 -19 5 -6 10 1 -3 -1 -2
1532262349377112 -3 14 47 5 0 1 -3 -4
1532262349392079 4 13 55 -17 -8 -2 -1 1
1532262349429951 8 10 18 -10 -7 -2 -1 1
1532262349459893 -4 -1 3 11 0 1 2 0
1532262349512729 1 0 -13 -3 0 -3 -1 0
1532262349549653 -4 4 7 9 -2 -1 0 -1
1532262349640411 -1 16 8 6 4 2 2 -2
1532262349715214 -2 9 5 4 4 0 -1 -2
1532262349790002 1 4 42 -5 -4 -3 0 0
1532262349812949 0 13 16 9 1 0 1 0
1532262349857842 3 -6 -15 2 -1 -1 1 1
1532262349909691 -1 0 -13 3 4 2 1 -1
1532262349939588 -7 0 -12 -6 -2 0 -1 0
1532262349977509 11 0 4 11 3 -2 -1 2
1532262349992474 -3 3 0 8 7 0 0 -4
1532262350037350 -2 -3 -6 -7 -1 0 -2 -2
1532262350090209 1 18 -8 2 -3 -4 -2 -1
1532262350202883 -2 0 10 -11 -4 -2 -1 0
1532262350254768 -5 2 -18 -6 -3 -2 -1 2
1532262350269733 -1 9 8 3 -2 -1 -2 -4
1532262350307626 -10 10 6 18 7 0 0 -3
1532262350510085 0 -5 5 -9 -6 -2 -2 -1
1532262350533028 0 0 -8 -6 -1 -1 -3 -1
1532262350547961 8 1 8 -4 0 0 1 0
1532262350592863 -8 -1 -6 -8 -6 -4 0 -1
1532262350614804 2 3 21 5 0 -2 -3 -2
1532262350667667 -6 -10 18 -8 -3 2 -1 -3
1532262350772361 -2 7 12 -4 1 3 0 -3
1532262350796309 -1 3 -17 -1 0 0 1 2
1532262350825250 0 1 -28 9 -1 0 -2 -1
1532262350847185 -3 4 4 -3 -1 0 -1 -2
1532262350900042 1 -6 9 8 5 0 0 0
1532262350937941 -8 0 20 -4 -4 -2 -2 -5
1532262350997791 -1 -14 -34 -11 -4 -3 -2 -2
1532262351073556 2 -1 21 5 -1 0 1 0
1532262351102505 9 -4 -29 -11 -6 -4 -2 0
1532262351170324 4 -4 -13 4 3 1 0 -1
1532262351222182 -2 -3 34 11 3 0 -2 -3
1532262351252098 -4 14 31 8 0 -1 0 -1
1532262351304959 0 -12 -18 -1 2 1 -1 -2
1532262351402675 1 -3 -17 -8 -3 -2 1 0
1532262351447555 3 2 -17 22 11 1 0 -1
1532262351500414 1 -2 -13 0 -3 -1 -1 1
1532262351522379 -3 -5 -27 -3 3 1 -1 -1
1532262351597179 1 0 12 7 -1 0 2 -1
1532262351629070 -7 8 55 -4 0 -1 0 -4
1532262351658015 -8 10 11 9 -1 1 0 -1
1532262351732816 -1 -4 -9 -5 1 0 -1 -5
1532262351799636 -5 -8 -17 -10 -2 1 -1 -3
1532262351830558 7 -8 -34 -7 -6 -4 -1 4
1532262351914334 -8 7 23 0 7 4 3 -3
1532262351935279 -4 4 -1 -10 -3 1 -1 -1
1532262351980154 -12 8 -3 -1 -3 -2 0 -2
1532262352047973 8 -5 1 -11 -10 -5 -3 1
1532262352137732 1 -7 -26 8 6 2 -1 0
1532262352152698 0 -7 9 -12 -4 2 -1 -1
1532262352174611 -12 -7 -10 7 6 5 0 0
1532262352227499 -2 -5 10 1 -1 -2 1 0
1532262352272378 -3 -11 11 29 13 2 2 0
1532262352310276 -4 2 0 0 -1 0 -3 -2
1532262352347174 -5 10 40 15 6 6 -1 -5
1532262352408014 3 5 7 -5 -2 0 1 2
1532262352437930 3 -4 -22 -19 -6 -5 -2 -2
1532262352459869 -5 4 5 -3 -2 -1 -1 -1
1532262352512729 -10 13 0 1 4 2 -4 -5
1532262352564595 2 -10 -13 -26 -11 -3 -1 2
1532262352587530 2 -4 -5 4 1 1 1 3
1532262352610470 -1 -1 -15 2 5 -2 1 -3
1532262352647370 1 -4 10 7 -1 -2 -2 0
1532262352677298 -1 -19 -37 2 1 1 2 0
1532262352730148 1 -8 6 -2 4 2 0 0
1532262352752094 -1 -7 -5 9 2 1 2 -4
1532262352804948 0 1 -2 5 1 5 -1 -2
1532262352864798 -1 -3 -6 1 0 0 -5 -2
1532262352887743 -1 22 47 6 2 -5 -1 0
1532262352947544 1 7 3 -1 -2 2 -1 1
1532262353052264 1 -4 -22 1 3 2 5 3
1532262353090162 -2 -77 36 6 5 -16 25 -6
1532262353120106 1 52 23 -37 -14 9 -4 14
1532262353158016 2 -3 -17 -13 0 -11 0 -3
1532262353187901 3 35 -50 -39 -16 -9 -4 8
1532262353209869 4 12 -10 11 1 -11 -3 -1
1532262353248756 0 9 -10 16 -2 -8 -1 1
1532262353262701 2 45 -10 -7 -6 -2 -5 -13
1532262353284669 -4 -30 -2 -2 4 -5 -2 3
1532262353314592 3 12 -27 -32 -10 -5 -2 1
1532262353337524 4 7 20 -10 -4 -2 2 2
1532262353360440 -1 7 -22 -2 -5 -10 -3 0
1532262353375423 4 2 14 48 36 6 3 2
1532262353397365 0 12 6 -16 -17 -8 -2 -3
1532262353442221 -3 -6 -8 6 0 1 -1 0
1532262353472169 5 48 13 7 -9 1 -2 11
1532262353495103 -10 10 10 6 10 1 0 -11
1532262353534003 -2 -56 -20 -1 1 -2 -2 -5
1532262353556915 -6 -96 -55 1 0 0 -2 -1
1532262353577886 1 -4 -19 -11 8 -5 -3 -3
1532262353599800 1 1 10 -5 -10 -1 -2 0
1532262353622746 0 7 26 -1 -2 -2 0 0
1532262353637725 1 -13 1 2 3 1 -3 2
1532262353659667 0 4 13 1 3 2 1 -1
1532262353682601 1 -2 -4 1 -4 -3 0 0
1532262353705525 -2 8 7 -1 -1 -3 -2 -2
1532262353780345 0 -2 4 -2 -5 -3 0 -1
1532262353849156 0 6 3 3 6 -1 0 0
1532262353870101 0 -18 -20 -17 -6 5 1 2
1532262353885061 0 23 15 -8 -4 -2 -1 -2
1532262353907999 -1 4 -3 -5 3 6 -2 0
1532262353929917 -1 9 3 7 -1 -4 -1 -1
1532262353944906 3 3 6 -28 11 7 3 4
1532262353989757 -16 0 -12 11 -11 0 -8 -3
1532262354004717 0 -14 -10 22 8 2 1 1
1532262354027656 -8 -5 6 -9 2 -1 -7 -6
1532262354064584 -4 -2 -8 3 23 0 -17 -2
1532262354087523 -39 -16 -11 -12 -15 -8 4 -9
1532262354125424 20 -12 -21 -13 -11 -7 -17 1
1532262354147358 6 6 7 1 4 3 -3 -4
1532262354170301 2 21 21 5 1 3 5 -3
1532262354200195 -5 10 11 -25 3 5 9 -3
1532262354215181 12 1 0 6 -4 8 4 6
1532262354237123 1 9 -2 6 -4 -10 -17 -11
1532262354275018 59 17 1 -11 -6 9 24 60
1532262354320872 2 -20 12 3 -5 -3 17 -4
1532262354357796 -18 14 0 1 3 -5 5 4
1532262354447556 -7 2 -4 3 -1 0 -68 -34
1532262354507400 -13 -3 1 1 2 -2 24 2
1532262354577209 0 -3 -13 -16 -6 -2 -10 0
1532262354622066 -5 8 21 -1 -3 -1 -2 -6
1532262354650016 -19 5 -10 19 5 9 34 -10
1532262354724815 -9 -1 -6 -6 -1 3 8 -2
1532262354837517 12 14 16 10 0 -3 41 30
1532262354891347 1 17 -2 1 4 2 -7 1
1532262354920304 4 37 15 -3 -1 -3 -19 -4
1532262354942210 6 -23 19 7 4 11 -19 1
1532262354981106 3 11 -16 1 -2 -4 -15 2
1532262355025011 -1 10 37 6 1 -5 15 2
1532262355063885 -5 13 -14 2 3 -9 -13 1
1532262355086844 -5 -11 16 -10 -9 -10 -14 -10
1532262355129731 -3 -20 -8 -9 -6 5 -35 0
1532262355197527 -5 74 2 -4 -9 -10 71 1
1532262355235450 3 40 -29 1 4 6 -33 -5
1532262355287287 5 5 21 8 4 2 1 6
1532262355310226 -3 8 11 -7 -7 -11 25 -3
1532262355362113 7 -2 -8 1 1 -19 -27 -1
1532262355385026 2 -14 -30 5 5 2 -39 -4
1532262355467827 0 0 -39 6 1 0 -5 2
1532262355482789 -9 -26 -2 -5 -1 2 -8 -3
1532262355504706 2 8 18 1 7 9 5 4
1532262355549586 -4 -14 6 -1 2 5 -9 -7
1532262355564573 3 4 4 -2 -4 0 5 4
1532262355602471 -7 9 -40 -2 1 -18 -9 -3
1532262355655326 -3 -15 -8 -3 -2 -6 17 -11
1532262355730103 0 6 -2 -2 -3 -4 -5 2
1532262355783959 -1 43 -1 -3 -3 0 -1 0
1532262355812923 0 -11 -1 3 7 5 -6 -1
1532262355864771 -1 -43 -26 5 2 1 -1 -3
1532262355879730 3 39 39 3 4 5 0 0
1532262355924607 -2 -13 -9 -3 -1 0 0 0
1532262356008359 7 -7 11 0 -3 -2 3 5
1532262356022322 8 -4 -17 -5 -11 -4 -2 -10
1532262356069219 16 9 2 5 2 4 0 4
1532262356082186 13 30 -17 -6 -9 1 0 -1
1532262356097151 11 -2 4 -10 12 6 2 8
1532262356164967 -2 -5 5 10 22 16 1 -2
1532262356241758 -31 -9 3 3 -2 -1 2 -5
1532262356254700 -3 89 11 11 1 -1 1 3
1532262356322519 -17 -21 -10 -2 2 -1 2 -20
1532262356360444 18 2 -6 -3 -5 -2 -7 7
1532262356412279 3 -5 -7 -7 -3 -3 0 1
1532262356442228 1 -5 -3 -1 0 -3 -11 -7
1532262356547940 -9 -28 0 6 2 -2 5 7
1532262356562897 9 -6 -4 3 12 3 -3 5
1532262356623715 3 1 -23 -4 36 17 -3 -6
1532262356644682 -22 -7 2 -51 -90 -35 0 11
1532262356667596 -19 9 -6 -16 -66 -13 -3 -10
1532262356727463 -10 92 15 53 95 3 2 -1
1532262356742423 -3 -54 -8 -20 -34 -6 -5 -2
1532262356787299 2 0 -4 21 -19 -10 -3 -11
1532262356862076 -3 -2 2 1 4 6 2 -3
1532262356929895 8 -8 -8 -6 -3 -3 0 3
1532262356952860 9 -9 -2 1 -1 -1 -2 0
1532262356989734 -2 0 -3 -3 1 0 -1 -2
1532262357027634 0 8 2 -10 2 6 2 -3
1532262357064563 -4 11 -2 -24 -11 -1 -1 -4
1532262357117421 -7 -16 -22 -21 42 4 -1 -2
1532262357140332 1 -5 -28 -18 69 13 4 0
1532262357179252 -8 -16 -5 24 -56 -13 -3 -3
1532262357200194 3 -26 0 -32 -40 -8 -6 -3
1532262357222113 -15 -7 9 32 -21 -1 -3 -5
1532262357245052 7 2 6 7 -16 -1 2 6
1532262357267991 1 -27 1 7 12 -4 -3 1
1532262357282979 0 -27 -6 10 43 1 0 2
1532262357304915 -12 0 3 -1 -19 -2 1 -3
1532262357334840 5 -42 -7 0 14 -4 -2 4
1532262357357778 4 -13 -4 1 3 -2 0 -3
1532262357409612 15 10 0 2 6 1 0 2
1532262357432551 -21 -1 -1 0 6 1 -1 -26
1532262357492391 3 0 -2 -1 -4 0 0 5
1532262357522339 -7 5 -2 23 -5 1 1 19
1532262357605114 -13 -59 -26 45 29 -11 -6 -10
1532262357635009 6 45 8 -24 115 11 1 1
1532262357650967 5 19 9 5 22 7 2 1
1532262357710829 4 1 -14 6 -2 -5 -1 4
1532262357732748 2 16 17 -21 -52 2 1 -1
1532262357769649 8 10 52 -3 -54 -7 3 3
1532262357815526 3 13 40 1 3 -13 -9 -4
1532262357837468 -5 -25 -37 9 15 2 3 4
1532262357875390 -9 -29 -73 8 13 -6 -7 -9
1532262357905315 1 1 -99 5 6 -15 -20 6
1532262358062866 6 -60 -87 -4 2 0 7 23
1532262358084834 7 55 32 0 0 3 28 6
1532262358129714 10 25 -11 -2 -1 3 10 13
1532262358182568 4 7 -11 -8 -8 -10 16 2
1532262358212492 4 5 -2 25 11 4 -61 0
1532262358340138 -4 -18 -22 -6 4 1 8 5
1532262358385026 1 -25 -28 -28 -4 0 -10 1
1532262358489738 9 15 -10 -13 10 0 21 -2
1532262358542609 -39 -45 -56 -73 -6 -2 -29 -24
1532262358587487 5 4 28 65 8 7 16 2
1532262358602446 15 35 -4 -20 -20 -4 -23 3
1532262358737085 6 64 -12 -3 -11 -16 -11 -60
1532262358819864 -10 -34 -28 -6 -11 -7 -6 3
1532262358962487 25 -17 -12 5 2 2 -8 98
1532262359083137 9 34 -13 13 0 0 -17 7
1532262359164918 -15 -44 -65 -13 -3 -4 36 -7
1532262359239718 11 62 22 1 -1 0 7 67
1532262359547894 8 -12 -4 13 1 0 17 -14
1532262359780297 -6 -1 9 4 -5 -1 5 0
1532262359855100 -4 18 -11 -7 -4 -3 -3 -4
1532262359892971 -15 25 8 3 -1 -1 -1 -3
1532262359922891 8 1 37 -12 -2 -1 2 2
1532262359944833 1 0 -21 0 -1 -3 1 2
1532262359967799 -4 7 -7 10 1 -1 0 -1
1532262359989713 5 -38 -28 0 3 -4 -1 3
1532262360019633 -3 -9 -36 8 0 -6 -1 0
1532262360050578 2 -5 -15 -25 -11 -2 -4 -2
1532262360080495 5 51 109 -10 -7 -1 -1 1
1532262360104435 0 2 22 22 2 -2 -3 -1
1532262360125373 1 -20 -31 -11 1 0 1 0
1532262360177238 1 -11 -35 -2 -2 0 1 1
1532262360200180 2 8 43 2 -1 -2 -8 -3
1532262360253031 23 38 -10 -1 -1 -4 -2 18
1532262360267968 -3 -22 -56 3 7 3 8 -6
1532262360282952 -3 -26 -51 -12 -4 -5 -13 -31
1532262360319857 7 7 -2 3 4 3 -2 -23

1532262360357729 6 42 111 7 -2 -1 -1 4
1532262360402632 -10 -20 27 34 5 4 2 -6
1532262360440535 -1 52 3 -27 -9 0 -1 1
1532262360485387 -11 -22 5 2 4 4 -1 1
1532262360507345 0 -9 -9 -6 -2 -3 0 -1
1532262360530294 -7 -10 6 11 -1 -2 1 -3
1532262360597116 0 0 1 3 0 2 -2 -1
1532262360627029 -1 -3 -13 -2 -4 -5 -2 0
1532262360649970 -2 7 12 11 3 0 -1 0
1532262360703812 0 -3 -9 -9 -4 -7 -1 0
1532262360732726 0 11 36 2 -1 -4 -2 0
1532262360754690 4 -10 -17 18 3 0 2 3
1532262360784611 -6 -1 -15 -23 -2 -1 -2 -4
1532262360822485 4 7 38 2 -1 -21 -6 -1
1532262360845424 -2 19 37 -2 -2 -4 0 0
1532262360867389 3 4 -16 2 0 8 3 1
1532262360965130 0 -2 -17 1 1 2 0 2
1532262361062864 0 1 -4 -1 1 1 -2 -2
1532262361084785 0 2 3 -2 -1 2 -2 -1
1532262361107723 2 6 -1 -2 -2 5 2 -2
1532262361129686 0 2 24 -3 -2 0 2 -1
1532262361144652 1 -1 -23 -3 0 9 1 0
1532262361169581 0 -8 -10 3 2 -2 -1 0
1532262361197483 -2 -5 2 2 0 1 1 -1
1532262361287265 -2 -12 -11 0 -2 -1 0 3
1532262361356064 -1 3 10 3 1 -6 1 -2
1532262361429885 -3 -8 3 -4 -2 3 0 -2
1532262361452820 1 5 -16 2 0 -4 0 2
1532262361467785 4 6 21 0 -1 -4 -1 -1
1532262361498701 0 -8 -20 -2 1 -1 2 1
1532262361527624 3 -7 -19 -3 1 4 0 1
1532262361572480 -3 -2 21 2 0 -1 -1 -2
1532262361634339 1 -10 -12 -1 1 -1 2 1
1532262361657253 0 1 35 -3 -1 -1 -2 2
1532262361692184 -3 3 28 2 -3 -2 -3 -1
1532262361715119 -2 -4 -21 1 0 -6 2 0
1532262361738078 1 -1 -8 0 -1 -3 0 -2
1532262361797877 -1 -5 -11 0 4 -3 -2 -2
1532262361849766 1 -3 1 4 0 -2 1 -1
1532262361864721 -1 2 -1 1 0 -2 -3 1
1532262361917585 1 -4 6 -2 -1 -4 -3 -1
1532262361932545 -1 7 31 -1 -2 -3 0 -1
1532262361955478 -3 4 20 2 2 1 0 -1
1532262361985399 -1 -12 0 -2 -3 -2 0 -1
1532262362007318 -3 -3 -4 -2 0 -2 1 0
1532262362030256 -3 2 18 8 2 -17 -3 0
1532262362075158 -7 3 -43 -5 -2 -2 -4 -3
1532262362120043 1 2 -11 -4 -7 -12 -1 -2
1532262362135003 1 1 -44 -3 -3 -22 -10 -2
1532262362164923 4 6 7 -1 0 8 -9 -20
1532262362179879 0 -37 -28 -7 -17 -55 -28 3
1532262362202818 5 14 -24 7 6 27 -13 -11
1532262362224763 -2 16 -30 1 2 -9 2 -2
1532262362239708 1 3 -61 16 -2 17 2 -3
1532262362277595 5 12 14 4 4 12 2 4
1532262362315517 -3 18 60 -19 -19 -5 -5 -3
1532262362337455 1 4 -35 -5 -3 -4 1 22
1532262362375360 3 5 -16 3 16 6 0 -3
1532262362420236 0 -2 -2 -1 2 2 2 1
1532262362465121 2 -9 -10 -5 -4 1 -2 2
1532262362495013 -1 3 -26 0 -6 -3 -3 -2
1532262362517979 -2 -21 -20 -2 6 3 2 -1
1532262362554853 2 12 1 -5 -8 -2 1 1
1532262362577815 0 2 18 -4 -18 1 2 -1
1532262362607737 -3 -2 -5 -6 -3 0 0 -1
1532262362675575 7 20 23 25 11 1 1 10
1532262362697498 0 8 -6 4 10 4 2 -5
1532262362713453 4 9 9 -6 -12 -6 -4 -7
1532262362742352 -4 -12 46 0 -5 -7 -3 -4
1532262362765290 3 16 -6 5 0 -1 -2 -8
1532262362780274 2 3 -1 -6 -2 -1 1 -1
1532262362802215 2 0 5 4 9 3 1 -10
1532262362847072 -1 -4 -1 -2 -4 -2 4 30
1532262362892972 -8 -3 2 0 -4 -3 -3 -7
1532262362914917 -5 3 -7 0 1 -1 -3 -3
