1532264728683926 0 26 -15 -3 -1 -1 -3 -1
1532264728696906 8 21 -38 35 12 4 1 0
1532264728733792 -18 -3 -17 -16 -7 0 0 -2
1532264728754736 3 -9 8 1 -10 -5 -2 0
1532264728816571 -8 1 7 -9 -4 -2 0 -4
1532264728836527 3 -12 1 1 0 0 0 -1
1532264728888378 -1 22 14 -3 -3 1 1 -7
1532264728903338 2 -32 -30 -2 -7 -6 -8 0
1532264728934256 4 -6 -20 -8 -9 -4 -3 2
1532264728964176 -3 -7 45 2 6 4 8 1
1532264728988112 -5 -4 13 0 -1 -7 -39 -9
1532264729045958 0 4 24 3 1 3 7 2
1532264729068896 -3 9 -51 -3 -3 -2 4 1
1532264729083856 0 -2 -28 -3 1 1 8 0
1532264729105797 4 63 39 0 -4 -1 -2 -5
1532264729151677 -1 -13 -6 -4 -1 -1 2 8
1532264729188576 -3 3 -2 -2 -1 1 2 -6
1532264729226475 -2 1 -6 -2 -4 1 -2 -8
1532264729270357 -2 4 15 -12 -22 -6 -3 -1
1532264729369110 -2 -8 -47 -22 3 -4 -1 -2
1532264729405995 -3 -5 7 -25 -13 -5 -4 -1
1532264729450875 -2 -4 -30 -34 -7 5 0 1
1532264729488773 2 5 10 9 8 2 0 -1
1532264729510715 2 -2 52 8 3 1 0 0
1532264729564571 6 2 -3 1 0 -3 -2 0
1532264729616432 -2 0 -21 -14 1 0 -2 -1
1532264729788970 8 8 -15 9 -2 -5 -1 2
1532264729810912 -7 -17 -36 -17 -5 -1 0 -5
1532264729834847 0 7 -48 4 1 -1 0 0
1532264729879728 2 19 -57 3 -6 -2 -2 -3
1532264729909648 -25 -40 94 -12 -4 -3 -3 -7
1532264729931590 1 5 -11 12 -3 2 -4 5
1532264729961509 -10 -19 11 2 4 4 2 0
1532264729983451 2 16 -30 -9 -2 -2 -3 -20
1532264730023343 -9 12 33 0 -2 -7 -1 5
1532264730043291 -4 -43 -36 1 -1 6 -1 -8
1532264730098144 9 20 -37 15 0 -2 10 20
1532264730112107 4 51 -15 11 1 13 4 -17
1532264730157984 2 -20 -4 -23 -9 -7 -5 -2
1532264730207851 -8 5 -13 -5 -4 -10 -5 -11
1532264730234779 6 -45 -29 5 4 -3 -2 -3
1532264730314566 -7 -20 14 -3 -1 -2 -4 -15
1532264730374405 -8 -27 -58 -6 -4 -6 -5 -7
1532264730427263 1 -4 4 -5 -3 -1 -1 9
1532264730487104 -13 -71 -21 -3 0 0 -1 -4
1532264730546944 -10 20 -5 8 11 3 2 -56
1532264730577861 -8 0 -1 -6 0 3 4 0
1532264730599802 5 -13 3 0 -2 -2 11 22
1532264730614763 8 20 7 0 1 -3 -9 -8
1532264730636704 2 33 9 -1 -3 -2 -2 6
1532264730659642 -2 24 -2 -5 -2 0 0 -2
1532264730697541 17 36 29 2 4 -1 -1 13
1532264730710506 5 28 -2 -4 -1 -3 -2 -14
1532264730734442 7 -20 -15 3 -1 -10 -3 -2
1532264730764363 -7 -30 -1 5 2 -5 -4 -3
1532264730788321 2 20 1 4 1 -5 -5 -14
1532264730824219 -4 -9 5 -3 -1 -3 -6 -10
1532264730877068 -7 9 41 1 -1 -7 -5 -14
1532264730950870 0 -11 28 4 2 5 3 -9
1532264730975804 -6 -16 -2 3 1 -1 5 12
1532264731027665 1 -19 -71 -22 -4 -4 1 -2
1532264731035644 9 3 20 -1 -5 -5 -2 1
1532264731057586 -2 30 -14 9 4 1 -2 -1
1532264731079527 -1 -2 -8 -7 -6 0 1 -10
1532264731109445 -4 32 8 -2 -3 -12 -2 -7
1532264731130390 14 18 -29 -2 -2 -6 0 17
1532264731153329 0 15 7 1 0 6 0 11
1532264731160310 -3 6 -7 -2 -3 -5 -1 -11
1532264731193228 -2 -5 33 2 0 -8 3 15
1532264731233115 -27 14 15 11 4 -5 3 -13
1532264731268022 8 5 -10 -30 -13 -8 -3 2
1532264731282983 13 14 -10 -30 -15 -4 -1 12
1532264731318886 1 0 -29 6 0 9 -4 -1
1532264731332849 4 29 18 9 -4 -5 1 -4
1532264731379723 3 -2 14 -6 -3 -4 -2 0
1532264731392689 -15 -7 15 -7 0 -3 0 -12
1532264731452528 -1 -12 -35 -8 -5 -2 2 3
1532264731476465 5 12 15 7 -4 -1 1 3
1532264731499403 1 -5 -3 -3 -6 -5 -2 7
1532264731521345 3 -2 11 13 14 5 -1 -3
1532264731544283 -6 3 8 6 2 0 1 1
1532264731582182 -8 -5 4 -8 2 -3 -2 -1
1532264731597143 -1 -2 -18 -4 -3 1 -2 1
1532264731619083 6 1 -11 -12 12 1 1 -1
1532264731656982 0 3 -8 1 -5 -6 -1 -1
1532264731694880 -6 1 1 -20 7 1 0 0
1532264731701868 1 5 -4 -7 -1 -2 -1 0
1532264731746742 -5 1 -5 2 -6 0 0 -1
1532264731761702 -7 5 -2 -16 -5 -5 -1 -2
1532264731812566 6 -4 2 15 1 4 -1 2
1532264731835507 -4 2 1 0 1 -1 0 -1
1532264731859441 -7 -4 -6 -3 -1 0 0 -5
1532264731889361 -2 -2 -2 -4 1 -1 1 -8
1532264731933243 1 0 -5 3 1 23 -11 1
1532264731963163 8 -1 -9 -3 -4 1 -36 -1
1532264732016021 -15 -4 3 2 -7 -19 7 -5
1532264732052923 7 6 -6 6 9 8 0 -1
1532264732113761 -7 13 6 1 -3 -13 -7 -5
1532264732159638 5 -8 -16 4 -1 -25 -11 -4
1532264732181579 -4 0 11 3 1 -3 -9 -1
1532264732196540 6 -3 -4 -2 -2 -2 -13 -1
1532264732210502 -10 -2 -5 6 5 14 -7 4
1532264732241431 -1 5 0 9 -1 -3 6 3
1532264732279319 -2 -6 2 0 -4 1 -2 1
1532264732302256 1 -4 -4 -4 4 -3 4 2
1532264732324198 11 -1 -4 5 4 4 -12 -6
1532264732339158 -1 -1 0 1 -1 -19 -34 -5
1532264732376060 2 5 -6 11 -2 2 3 -1
1532264732428918 5 -4 6 -2 -3 -3 3 4
1532264732466831 -11 3 15 -4 -4 1 -20 -3
1532264732533637 -5 -1 -4 -2 -4 -5 -8 0
1532264732579514 1 -2 -4 3 2 5 3 3
1532264732617414 -8 -10 -6 -2 16 5 18 5
1532264732677254 -1 -9 4 -5 -5 -3 -3 0
1532264732709169 -7 -17 -3 1 -2 -1 4 0
1532264732722134 -10 -39 -20 -11 -8 -9 -7 -6
1532264732759035 4 17 0 2 0 -1 -1 0
1532264732805910 -15 -5 10 8 1 -3 -4 -11
1532264732848795 -12 4 -11 -8 -2 -1 0 -1
1532264732864752 9 -21 -9 -7 -7 -2 -5 -1
1532264732901654 -9 -14 -7 -4 4 4 1 -4
1532264732915617 -12 -17 0 1 0 0 1 -1
1532264732938555 -7 -5 3 -1 0 1 -2 -1
1532264732975456 7 -2 0 0 1 -1 -2 0
1532264732984433 3 -6 -6 -1 -1 -1 -1 2
1532264733022331 20 16 9 6 2 0 1 0
1532264733050256 -5 -11 -6 2 1 -1 -2 0
1532264733085163 -1 -13 2 -2 2 2 -1 2
1532264733097131 0 7 2 11 1 0 -1 0
1532264733123062 8 -9 0 6 2 2 3 -1
1532264733156980 3 -6 -3 -2 -2 -1 1 3
1532264733171931 -7 1 3 5 2 -2 0 -1
1532264733186890 -1 -5 4 0 2 5 2 1
1532264733239750 7 3 -10 6 -1 1 -1 -4
1532264733344469 1 -3 -8 -5 -1 -1 -1 -2
1532264733366411 3 27 7 1 -1 1 -2 0
1532264733412296 1 -12 4 2 1 -1 0 4
1532264733427248 -2 8 0 -4 -2 -3 -1 -2
1532264733457178 -2 7 -1 -1 -1 -2 0 -1
1532264733466144 -2 -6 -1 -2 -1 0 -1 -9
1532264733487088 -2 -6 1 0 1 1 -1 -2
1532264733530971 -2 -13 17 -1 -2 -1 1 1
1532264733563891 2 5 -34 -3 -3 0 -2 3
1532264733597841 1 12 11 3 -3 2 -1 -2
1532264733629746 0 -1 15 -13 -5 -4 -2 -1
1532264733644705 5 -23 24 9 3 1 0 1
1532264733689588 -4 -24 -60 -11 0 2 5 -1
1532264733718508 -1 12 13 4 0 1 -3 0
1532264733741446 3 -9 -8 -13 -2 -4 -5 2
1532264733778348 -1 20 34 -8 -8 1 -3 0
1532264733883068 9 -16 -1 4 1 4 -6 -2
1532264734004743 -2 2 -3 -14 -3 1 0 6
1532264734026683 7 -23 -39 -6 -4 -3 1 8
1532264734071564 7 2 -53 -7 -2 -2 3 0
1532264734086524 0 -7 24 -13 -1 3 -3 -3
1532264734131403 2 -1 -31 9 3 -2 -1 -1
1532264734146364 -4 6 -5 45 15 6 3 2
1532264734184262 0 1 -28 1 7 2 3 0
1532264734207210 1 -8 -66 -24 -12 -5 -2 -3
1532264734280006 -2 -3 34 15 9 3 -3 4
1532264734296978 -1 -18 -4 1 12 2 -2 -2
1532264734326881 -4 10 46 -5 -7 -5 -4 -2
1532264734349820 7 15 16 1 -1 -2 -1 2
1532264734394699 -5 0 5 -10 2 -1 0 -3
1532264734424629 -5 -23 -4 0 3 -1 -3 -3
1532264734446561 2 15 19 -2 0 1 3 0
1532264734507398 -5 -21 -18 -1 1 0 2 5
1532264734537318 4 8 50 -14 -3 -2 6 8
1532264734627078 2 7 1 -2 -3 10 1 -2
1532264734722822 14 1 -11 -1 -1 -8 6 43
1532264734777675 -7 -11 -4 2 -1 -12 -4 3
1532264734888379 -18 -1 -3 -6 -1 0 -4 -42
1532264734948218 3 6 34 7 -1 -1 -5 -1
1532264735016038 3 4 14 8 3 2 1 3
1532264735042966 -12 -3 3 -6 -3 0 -1 13
1532264735265371 -2 1 -10 7 4 7 -1 -8
1532264735533653 0 -1 -5 -5 3 20 0 -4
1532264735548614 1 5 2 0 -2 -2 -4 1
1532264735586513 -10 -2 1 -3 -4 33 -3 -1
1532264735608453 4 1 4 6 4 -3 8 5
1532264735668294 4 -20 -14 -6 -7 5 0 0
1532264735743100 6 8 27 9 3 -9 1 4
1532264735766038 6 15 0 3 4 6 -2 0
1532264735788978 1 -23 -24 -3 -2 -17 -5 -7
1532264735848817 0 23 26 -5 -3 2 0 0
1532264735862780 -4 -11 -8 1 -5 4 -4 0
1532264735894695 0 -5 -7 0 -2 -8 0 3
1532264735931596 2 2 -2 1 3 -7 1 1
1532264735969494 -2 16 78 9 7 1 -1 0
1532264736038310 4 6 9 -2 -5 0 1 2
1532264736052273 -2 15 22 4 -3 -1 -3 -4
1532264736082193 -3 -1 52 -4 -7 -5 0 -1
1532264736099148 -2 -5 -16 -1 -1 -1 -2 0
1532264736136049 -3 -16 -3 -2 0 -3 -2 -4
1532264736181927 -4 13 85 10 7 -52 -8 -22
1532264736209862 36 75 -74 -2 4 -3 -10 -16

1532264736238879 3 -30 -8 -4 -5 18 -10 4
1532264736262815 -2 -19 -2 3 2 8 -7 -2
1532264736300516 5 -1 -14 4 -2 -7 -4 3
1532264736306499 -7 -32 33 7 0 6 0 9
1532264736329438 -3 -23 3 -14 -3 11 0 2
1532264736351379 -6 18 15 -8 -6 -2 -5 5
1532264736406233 -2 2 0 4 -1 -4 -3 -1
1532264736428174 3 15 0 0 -2 -2 -1 -1
1532264736464078 0 14 80 3 3 -1 -2 1
1532264736480036 -2 6 28 -11 1 0 -1 -1
1532264736518870 -2 -9 -6 6 -2 -3 -4 -2
1532264736540813 0 5 45 -3 -5 -1 0 1
1532264736577714 4 14 7 16 19 9 1 2
1532264736593672 2 -23 -8 -2 -1 0 4 -2
1532264736630573 0 0 -3 6 1 0 0 -1
1532264736636557 0 19 18 3 1 -2 -1 -2
1532264736674456 -20 -27 30 -3 -2 2 2 -4
1532264736690413 6 2 -52 -6 1 -2 9 -9
1532264736744269 -8 -4 -75 -12 -5 -21 -19 -23
1532264736748259 -15 -1 94 10 4 0 -2 -7
1532264736788162 11 18 61 -41 -8 -6 3 14
1532264736794136 5 23 5 31 0 8 5 19
1532264736823058 2 9 -13 21 3 3 -2 3
1532264736849995 -2 14 -3 5 2 1 -1 1
1532264736852979 -2 2 33 -2 0 0 -1 4
1532264736876914 -6 9 53 -17 2 1 -3 -3
1532264736908829 2 8 41 43 10 3 -2 -1
1532264736936754 -10 -8 9 -4 -11 -1 -4 1
1532264736989613 2 -1 -5 -13 -18 -9 -4 -2
1532264737004573 -7 -8 15 -3 -10 1 -2 -3
1532264737034493 0 9 1 16 -8 -16 -2 3
1532264737048456 6 0 -18 2 -2 5 -3 -1
1532264737094333 2 0 -6 -7 6 8 -2 0
1532264737108295 1 -9 -7 5 6 5 0 2
1532264737154174 -5 38 22 -5 -8 -9 -1 21
1532264737168136 22 21 37 7 6 30 5 -23
1532264737184094 5 -14 27 8 7 9 7 29
1532264737214013 3 -8 27 9 12 6 -3 4
1532264737227976 -7 13 -43 -8 -12 -9 -9 -9
1532264737251912 0 -41 -30 -4 -9 -5 -5 -18
1532264737281832 -9 4 11 -6 -8 -8 0 22
1532264737296792 -13 -6 -51 -8 -3 16 3 -13
1532264737334691 -7 -8 0 3 0 -4 -5 -28
1532264737347655 1 8 -10 0 6 1 2 6
1532264737356632 -4 3 12 0 0 -3 1 -5
1532264737394531 4 15 -6 -2 1 -2 3 3
1532264737408507 -1 -1 4 -2 -2 -5 0 6
1532264737423452 -1 -17 -4 0 -5 0 0 -9
1532264737462348 -2 -25 -10 -4 -3 -4 -1 4
1532264737484295 0 -1 6 -1 2 0 1 -2
1532264737514211 0 4 0 2 0 -2 -1 1
1532264737537149 3 9 5 0 -4 -1 0 0
1532264737574051 -2 4 -3 -1 -1 -1 1 0
1532264737588023 -1 -2 -1 -1 -1 1 -1 -2
1532264737647852 3 -2 -2 2 1 -1 -2 3
1532264737716669 -1 0 -25 -6 -8 -8 -3 -3
1532264737791468 1 10 7 5 2 -3 0 1
1532264737814408 -1 -5 47 -2 25 27 0 -1
1532264737865272 -3 1 6 -12 -47 -28 -3 -4
1532264737925112 -4 4 28 -6 -16 -7 -3 -2
1532264737943064 0 0 7 -4 9 -1 0 0
1532264737970988 1 -2 -13 13 24 10 4 0
1532264737993927 1 5 -8 7 -3 -12 -4 0
1532264738039805 -2 -24 -58 4 -8 -1 1 -1
1532264738055764 -2 -10 -35 -7 -1 -3 -3 -2
1532264738078701 2 6 30 9 10 4 -1 0
1532264738105629 1 8 -60 -3 -5 0 1 0
1532264738136546 -4 -1 -6 8 1 -1 -2 -7
1532264738159485 4 17 44 -7 3 3 0 0
1532264738199378 13 49 46 18 9 4 1 5
1532264738257223 3 6 24 19 2 -11 -5 -1
1532264738294125 -14 -45 -4 -20 4 5 2 -3
1532264738390866 2 29 103 26 7 14 7 -5
1532264738661143 8 11 -5 -1 -7 -12 -1 17
1532264738699042 -6 -2 0 -2 -6 -7 -2 -1
1532264738752912 9 27 7 0 -4 -1 -3 -7
1532264738925437 0 2 0 -3 1 -1 6 4
1532264738963335 1 29 -4 -35 -15 -6 -4 -2
1532264738999238 -4 -30 18 2 -4 16 -1 -11
1532264739037138 -10 10 -2 5 0 -2 -3 -10
1532264739059079 -4 -12 1 1 4 41 -1 -5
1532264739090004 -3 11 -12 -3 -4 6 2 -13
1532264739140861 11 15 -3 0 2 13 2 8
1532264739240594 10 -13 -5 -9 -5 -1 -2 -25
1532264739278492 23 8 -15 -9 -5 -16 -3 7
1532264739330354 5 9 -15 -8 -2 1 4 1
1532264739384210 -6 -1 -61 -2 0 -3 3 -16
1532264739388199 20 -38 18 4 -1 -5 -3 2
1532264739427095 -6 5 -8 -2 -2 -4 -6 -9
1532264739442055 -4 -18 -4 3 0 -3 -1 12
1532264739488930 -9 -16 17 0 0 1 -4 -3
1532264739493916 -10 -5 -16 -2 -1 3 -1 6
1532264739547772 -7 5 -11 -4 -2 1 -3 -8
1532264739569714 -5 18 -45 -14 0 -3 -1 -5
1532264739606615 8 -25 -9 -10 -5 2 3 3
1532264739635538 -12 -7 17 12 -1 -1 -3 -15
1532264739673457 -11 -2 -13 -1 -2 -2 1 -7
1532264739696374 3 15 18 4 2 3 -2 -4
1532264739719314 -8 -30 29 -1 -4 -4 0 -3
1532264739758209 -1 2 -27 -8 -3 -1 -2 4
1532264739772172 -1 13 36 17 4 1 4 -2
1532264739802093 -5 -5 2 -8 -7 -2 -6 -7
1532264739831015 3 9 10 2 -4 -1 -1 0
1532264739845975 0 2 -6 -10 -7 -2 -1 2
1532264739870908 0 11 1 -18 -13 -1 1 -3
1532264739890855 0 3 76 2 -8 -3 -1 0
1532264739921771 2 2 -4 -30 -15 -8 -1 0
1532264739935735 1 1 -18 1 -2 -1 1 1
1532264739981613 -1 -6 1 -27 0 -4 -1 -1
1532264739995574 -7 -11 4 -13 -11 -1 -1 0
1532264740041452 5 3 1 -5 -10 -7 -3 -1
1532264740055415 3 1 -1 0 -1 2 0 2
1532264740087330 -2 -2 5 -1 -1 -1 1 -2
1532264740102290 -6 -2 -3 8 -3 -1 -1 0
1532264740147179 4 1 4 0 0 2 -1 -1
1532264740162130 -12 -2 12 15 3 2 2 0
1532264740199031 13 -2 4 -3 1 -2 -3 0
1532264740289788 20 -3 4 -5 2 -13 4 7
1532264740401489 -18 -1 6 -5 3 5 -31 -5
1532264740475292 0 0 20 -4 0 12 4 -1
1532264740522167 -8 -5 -21 3 -1 -1 5 -3
1532264740588988 6 7 22 3 -10 -12 -6 1
1532264740626887 -7 4 -27 0 -6 -4 -1 -4
1532264740641847 -3 1 2 -7 -5 0 1 -1
1532264740664785 7 -7 -8 -5 -6 3 1 8
1532264740701687 0 -1 -23 13 25 9 6 1
1532264740784465 -8 -4 13 -3 36 3 -1 -7
1532264740844304 10 9 46 15 3 -3 0 9
1532264740882204 -25 -29 -18 -15 -11 -8 -11 -27
1532264740904148 -17 0 4 -1 3 6 5 5
1532264740963986 4 -15 0 -12 2 7 5 -2
1532264740977962 7 24 16 13 -6 -9 -5 -1
1532264741032801 8 15 9 -1 0 1 0 2
1532264741054758 -8 -20 -12 -13 -9 -4 -2 -4
1532264741091644 -8 -12 -10 -12 -1 0 0 1
1532264741167441 -9 9 10 7 0 -2 -3 -1
1532264741311057 3 -4 4 1 2 -1 0 0
1532264741325020 3 14 3 -4 -3 -1 -1 -1
1532264741345968 6 19 -2 -2 -1 0 1 0
1532264741407798 -4 -47 1 27 3 1 2 1
1532264741422759 5 -9 35 -15 -2 -1 4 1
1532264741466641 -12 -64 -54 3 2 -1 -3 6
1532264741505537 14 3 -10 2 1 0 -5 11
1532264741534459 2 53 -46 -3 -3 -1 -1 -12
1532264741571361 -5 11 12 7 -1 0 -2 -26
1532264741625218 -5 -3 -6 -2 -2 -2 -2 -1
1532264741646161 -17 -16 30 -3 -2 17 -2 -44
1532264741663115 2 -9 49 1 -2 -8 0 18
1532264741765840 1 22 10 -5 -5 3 -1 -3
1532264741789777 5 -26 -12 -1 2 -2 0 20
1532264741840642 -3 -3 3 7 3 4 -7 -15
1532264741863588 4 -7 -4 4 1 -4 -2 -10
1532264741886518 1 16 20 -9 -3 -3 4 9
1532264741923420 5 12 29 12 2 4 13 -1
1532264741961318 -5 3 -20 -8 0 0 -1 -6
1532264741983260 7 -3 -30 0 -7 -4 -3 3
1532264742104934 -17 -15 7 12 6 4 -2 -1
1532264742194694 1 3 -19 -16 -2 0 -2 -2
1532264742212647 -4 1 -9 11 8 1 -1 -2
1532264742253537 0 -5 -26 0 -2 -1 -2 1
1532264742314374 1 -4 20 -2 0 0 1 2
1532264742366235 3 15 12 4 1 2 -3 -5
1532264742426075 -1 -7 49 -2 -1 7 0 -2
1532264742485915 -2 24 66 16 3 -6 1 2
1532264742607590 1 17 35 3 -1 -6 -2 7
1532264742643494 1 5 2 3 0 2 0 -20
1532264742786113 5 7 6 -3 -2 -5 -3 3
1532264742847947 1 -7 0 0 -3 -2 -3 4
1532264742929729 -3 2 1 0 -2 14 0 -6
1532264743026470 -8 -8 -7 2 2 20 -4 -8
1532264743109248 -2 -1 -12 -5 1 -3 -7 -5
1532264743138171 0 12 12 -4 -4 -7 0 1
1532264743184049 -2 -6 -4 5 17 10 5 0
1532264743221947 1 9 18 8 0 1 1 -1
1532264743236907 2 11 -4 4 2 5 0 -1
1532264743274807 2 11 -2 -1 0 5 3 11
1532264743302731 4 -6 -1 6 2 -1 -1 -2
1532264743341628 -1 -2 9 1 2 1 1 0
1532264743351600 -4 7 -13 -1 0 5 1 -1
1532264743362571 1 1 13 6 1 0 0 -3
1532264743394486 0 11 26 -2 -2 7 2 -1
1532264743425403 -2 -3 -11 -1 0 -6 -1 -1
1532264743432385 -5 -7 20 17 8 3 2 -1
1532264743456321 -5 -5 10 -7 -3 -1 -1 -3
1532264743471281 6 -9 -43 0 2 4 1 4
1532264743516160 -5 -32 -44 -9 -4 -1 2 1
1532264743520149 1 91 -31 -1 -2 11 -5 15
1532264743559046 14 10 -25 1 1 -29 13 -24
1532264743568022 4 -9 41 5 -3 -2 -2 -45
1532264743580995 -1 -54 59 -3 3 4 13 34
1532264743618886 -6 20 93 13 20 5 1 -3
1532264743634843 1 -25 -37 -54 -20 -1 -4 16

1532264743679723 1 -13 36 38 6 -1 -2 0
1532264743731584 14 -10 -89 -9 -2 -10 -3 43
1532264743739563 5 -27 -49 0 1 14 4 -48
1532264743815360 8 2 -32 5 3 78 -4 -76
1532264743844290 1 -5 33 4 3 -2 3 1
1532264743899143 9 9 -20 37 11 18 2 15
1532264743913105 -11 25 -10 13 5 -16 -3 6
1532264743925074 -15 -1 -16 0 2 -4 -1 -3
1532264743980924 -9 6 40 -32 -6 -6 2 -4
1532264743994887 -12 -4 -1 -35 -17 -7 -2 -4
1532264744033794 10 -17 -7 19 9 -2 0 4
1532264744045751 -5 5 0 -1 -7 2 -1 1
1532264744054726 -3 -5 16 4 -1 -2 7 1
1532264744070684 -4 2 -18 4 -10 3 -7 0
1532264744093623 15 -16 -2 -3 -3 -3 -3 -1
1532264744114598 -3 -19 7 2 -5 -6 -3 -2
1532264744138548 -2 59 1 -4 3 -6 -1 0
1532264744153494 -1 8 -2 -6 4 2 0 -2
1532264744174439 0 22 3 6 2 0 3 -14
1532264744212336 3 18 5 -3 -4 -1 0 -2
1532264744225302 2 15 -11 5 1 1 1 4
1532264744272176 0 7 -52 6 0 -6 -3 -3
1532264744285141 2 35 -14 -13 -8 3 -1 10
1532264744308080 5 14 -9 4 2 -3 0 13
1532264744332016 9 -7 10 -2 3 0 -2 6
1532264744353958 -12 -12 10 -2 -2 -1 1 -7
1532264744367920 2 8 -2 0 -2 -3 -5 -26
1532264744391856 -8 -4 0 -1 -2 -1 1 -19
1532264744427760 4 -9 9 1 -2 -1 1 29
1532264744451696 1 2 5 2 1 -1 -2 -15
1532264744474635 6 1 2 2 -1 -1 1 10
1532264744534474 0 -1 -4 -1 0 2 -1 -10
1532264744557429 7 1 -2 -1 1 0 -2 -2
1532264744594315 6 -5 -4 -3 0 -1 1 2
1532264744608279 1 4 0 -1 0 0 1 3
1532264744639195 18 7 12 0 0 3 2 19
1532264744668118 -5 -3 1 -1 1 -1 -3 2
1532264744699035 -2 4 -2 -1 -2 -2 -1 2
1532264744714008 0 -1 -2 0 -1 -1 0 -3
1532264744728955 -2 2 -1 -1 0 0 0 -3
1532264744751893 -2 4 1 -2 -2 -2 -1 2
1532264744788795 0 1 0 -2 -3 -2 1 -2
1532264744802758 -1 2 0 2 3 1 1 -6
1532264744834672 -5 -5 -3 -1 -1 -1 -1 -1
1532264744848635 2 1 1 0 1 -3 -1 3
1532264744870577 -2 -2 -2 -1 -1 0 -1 0
1532264744894512 0 1 -4 -6 -10 -4 -1 0
1532264744931413 3 31 -2 11 -9 -11 0 -1
1532264744954351 2 9 1 12 5 -2 1 4
1532264744968315 -1 -6 9 -17 -50 -8 1 2
1532264745037131 -3 -9 -4 13 7 2 1 0
1532264745044112 -1 -14 -11 4 21 24 0 -1
1532264745074033 -1 -4 -10 -13 -11 -16 -3 -1
1532264745096971 0 -7 -25 -4 9 3 -1 -2
1532264745141860 -3 -12 -38 -26 -21 -11 -1 -4
1532264745194709 5 12 6 -7 -24 -8 0 -1
1532264745216651 0 1 8 1 -1 -5 0 -1
1532264745293460 2 -1 37 5 0 -3 0 3
1532264745321371 1 -5 -69 -11 4 -1 -1 0
1532264745382208 1 5 -1 7 -3 1 2 2
1532264745388192 -2 -10 11 2 0 2 0 -1
1532264745411130 0 4 4 3 -2 -1 -2 -2
1532264745434069 0 0 -18 -3 0 -5 -4 1
1532264745472965 -2 -10 -43 13 3 0 -1 -1
1532264745509867 4 34 26 3 -4 -3 -1 9
1532264745530811 4 -5 1 2 1 -6 1 -4
1532264745560730 -4 -14 -30 9 -2 -4 -2 -1
1532264745578683 -7 2 20 -9 -4 -9 -5 -4
1532264745614587 -5 -7 -35 4 4 11 3 -11
1532264745637525 -5 -1 20 14 10 12 2 -5
1532264745674427 1 5 12 -5 -8 -11 -2 0
1532264745711328 8 25 34 -5 12 5 3 0
1532264745757207 0 3 -2 -2 -8 -3 -2 -6
1532264745802085 11 17 10 11 -2 -4 1 3
1532264745824028 -9 -15 44 -5 -4 -2 -2 -9
1532264745853946 3 -24 28 -8 4 -4 6 18
1532264745899824 -13 -40 -68 -11 -2 4 0 -6
1532264745950688 -8 -5 -15 -2 -2 -3 -3 -5
1532264745974626 -4 -8 -3 12 2 2 0 -8
1532264745996565 -1 0 -27 -16 -15 -2 -3 1
1532264746019504 -3 -26 -15 -15 -3 -2 -3 1
1532264746040448 -4 4 -11 5 10 5 4 4
1532264746087322 -4 -5 25 0 4 -3 -1 0
1532264746124224 -7 -5 -1 5 2 7 -3 -6
1532264746154144 0 0 25 9 5 0 -1 1
1532264746177082 -1 -10 -9 -4 -1 -5 1 11
1532264746191050 7 17 10 1 5 3 -1 -2
1532264746207003 -1 5 6 9 6 -4 -2 -4
1532264746236922 1 5 -3 1 7 4 -1 -12
1532264746265845 6 -2 19 1 1 -4 -1 0
1532264746296762 -5 -18 -9 -5 -11 -2 0 2
1532264746340646 0 6 25 -3 0 26 -1 -3
1532264746379540 7 9 -16 -7 -8 -13 -3 0
1532264746416442 -3 -19 -25 -4 -5 -1 -2 -5
1532264746439381 3 0 1 -6 0 1 1 -4
1532264746462320 1 -12 -30 -5 -3 -6 -2 0
1532264746493237 -13 -2 10 2 1 10 -3 -45
1532264746513184 -4 -8 -11 -7 -3 0 -2 -6
1532264746544101 10 15 5 4 4 -3 -1 -6
1532264746560059 -11 43 5 -1 -3 -4 -3 -57
1532264746582000 0 -15 -4 -3 6 -7 -4 7
1532264746598954 -6 -10 -7 0 15 3 -1 -27
1532264746620909 -19 -114 -11 -3 -7 -3 -4 -27
1532264746643834 4 25 7 -3 -1 0 1 -8
1532264746658796 -12 -15 -15 -1 2 2 -3 -15
1532264746688714 17 21 -2 3 -2 -2 0 23
1532264746701680 -1 66 18 -2 -2 0 4 20
1532264746739578 -9 28 -12 3 1 2 -2 -16
1532264746752544 -18 23 -1 -1 -1 -1 -3 -41
1532264746799418 8 5 0 0 0 1 3 11
1532264746813381 -5 -9 4 -3 -2 11 -2 6
1532264746882197 -3 -33 -25 -9 -5 -12 0 -11
1532264746919098 -1 -2 7 -4 -2 -16 1 0
1532264747010854 -9 -51 -1 3 -8 -23 -5 -14
1532264747062714 -6 9 9 5 2 9 -12 1
1532264747076676 -15 19 8 4 -4 -18 1 29
1532264747114575 -3 4 5 -5 -2 -4 -1 13
1532264747197354 -14 20 -70 -3 -1 23 -2 -20
1532264747233258 -2 -3 1 0 -3 -7 -7 45
1532264747330997 -11 -52 -43 -8 -2 -2 -3 -11
1532264747348949 6 10 15 2 -4 -7 -6 5
1532264747391835 11 5 -12 6 -1 -4 -2 7
1532264747421754 -15 6 -28 -3 7 2 -2 -43
1532264747481594 1 14 -10 -2 -6 -1 -2 8
1532264747504533 -3 8 -4 4 -6 0 0 1
1532264747541434 9 20 12 27 23 11 6 6
1532264747595290 -1 6 -3 -15 3 -1 -2 2
1532264747602271 2 -11 -19 -17 3 3 -3 -2
1532264747675077 0 -3 -9 -28 -15 -6 -4 -4
1532264747781791 26 9 1 -4 -2 5 6 10
1532264747804729 1 -6 1 -7 -9 -2 -1 -3
1532264747916431 1 12 24 -22 -3 2 -1 -1
1532264747969290 -2 -8 2 0 -1 1 0 -1
1532264747992229 14 3 10 7 4 1 3 0
1532264748061044 -9 -17 0 -12 -1 -1 -4 -5
1532264748080991 2 -13 -5 0 0 12 10 -3
1532264748103936 7 8 3 6 5 -19 -5 -2
1532264748118896 7 4 -1 -5 -5 -11 -38 -2
1532264748149827 8 9 -3 -31 -10 0 6 4
1532264748223616 -7 -2 5 -2 -4 4 16 -1
1532264748238576 -6 0 -1 7 2 -5 -5 -5
1532264748307399 -2 1 0 2 4 -9 0 1
1532264748360251 -2 1 -4 2 -1 2 -3 1
1532264748381195 1 -4 0 0 1 -2 -1 3
1532264748436048 -3 4 10 1 -6 -7 -7 0
1532264748448015 -3 -2 -8 -3 -2 -4 -4 0
1532264748538773 6 -4 8 1 3 13 3 -2
1532264748600608 -10 -5 -4 1 -2 2 6 -2
1532264748622549 -1 -2 8 2 0 4 -3 -3
1532264748689370 0 -9 -7 19 3 1 4 3
1532264748817029 -2 -7 -10 -1 1 -2 -1 0
1532264748853930 -10 -2 -8 -7 -5 0 -2 -2
1532264748968631 -7 -3 -8 -4 -2 0 -1 -2
1532264748981589 -1 -1 -11 -8 -5 -2 -3 -4
1532264749176069 5 -2 -3 -3 1 2 1 0
1532264749212970 3 -3 -3 4 6 13 0 -1
1532264749380522 5 2 4 0 -2 -8 1 -1
1532264749425402 1 -13 -17 -2 0 -5 0 0
1532264749446346 -8 -11 10 -4 -3 -2 -1 -4
1532264749483248 -4 -9 -10 0 1 -3 -2 -18
1532264749553061 -6 2 15 1 -3 2 0 -3
1532264749635839 4 11 8 -9 -2 0 -2 8
1532264749663765 -6 0 28 17 -2 1 1 -2
1532264749697678 0 11 11 -29 -3 0 1 -1
1532264749785440 -8 -23 -5 -8 -5 0 1 1
1532264749798404 7 19 16 0 1 -2 -2 -1
1532264749892155 -2 -3 76 54 31 4 0 -4
1532264749898138 -2 -20 -21 -28 -9 -1 -1 -2
1532264749972938 -4 -3 -24 -20 -7 -2 0 -2
1532264749992885 3 8 -18 2 -3 0 -2 -1
1532264750128522 -5 -7 13 -1 -3 -1 -1 -1
1532264750173403 4 -6 -1 7 3 0 0 4
1532264750189360 2 2 -39 -4 -2 2 0 1
1532264750249199 4 3 -8 10 4 0 0 2
1532264750323002 3 -13 -58 1 -2 -12 2 35
1532264750429716 4 14 23 4 -1 -7 0 -5
1532264750503519 -5 -6 -12 1 -2 -4 4 18
1532264750526458 3 -2 -15 -5 -2 -2 22 -3
1532264750706976 -4 -12 -14 -4 -3 -3 -1 -3
1532264750728916 -1 5 1 -7 -6 -4 -5 -7
1532264750871535 -18 -5 -3 -3 -1 -10 -1 -2
1532264751006175 -1 2 41 5 -1 -14 -1 0
1532264751126860 -1 -30 -98 -1 6 0 0 2
1532264751134838 1 -3 -5 -2 3 5 2 1
1532264751156780 2 0 21 2 -1 5 0 -1
1532264751171740 -3 -3 -17 4 -3 -8 0 1
1532264751186715 0 -10 -12 -13 -7 -4 3 1
1532264751224606 -1 1 -17 0 0 -3 -1 -2
1532264751231580 -2 17 28 2 0 4 0 -1
1532264751286433 -1 -2 -21 -2 3 1 -2 -1
1532264751305383 1 -2 36 2 1 -3 -2 -1
1532264751360236 6 7 27 5 5 -7 -4 2
1532264751390156 7 45 -54 3 4 -12 8 21
1532264751421073 12 33 -36 -2 4 43 -14 -48
1532264751449012 -1 37 120 -12 2 -8 12 13
1532264751485900 -7 7 -93 -21 -11 -4 -3 12

1532264751516818 -3 36 21 23 7 10 7 -1
1532264751553897 28 -66 -6 3 3 39 85 -36
1532264751614734 11 5 110 -12 -6 -5 -7 -24
1532264751665598 -5 13 73 13 7 1 -24 13
1532264751683551 5 44 -68 -34 -11 4 3 -17
1532264751727433 2 11 30 11 -12 -8 -14 -5
1532264751757359 -30 0 2 -20 -16 -13 -15 -2
1532264751786276 15 -36 -1 -13 -8 -7 -2 1
1532264751818190 8 12 -4 -68 -19 -3 -2 -2
1532264751854094 8 23 -15 -7 7 0 0 3
1532264751877033 2 -2 0 1 -5 -3 -1 -1
1532264751891993 3 -5 0 -9 -4 -1 1 0
1532264751905956 6 80 6 -1 1 -3 -1 0
1532264751928894 1 -3 18 5 0 -1 1 2
1532264751951833 1 -39 -45 8 10 -3 -3 -3
1532264751965796 -17 -19 33 7 8 4 -3 -26
1532264751995716 2 37 77 -6 3 -2 -2 3
1532264752020648 1 3 13 8 13 10 4 4
1532264752043588 6 3 -35 -3 -5 -7 -3 6
1532264752101433 4 3 0 -5 -7 -2 -2 4
1532264752131353 3 11 -3 0 0 -1 1 -3
1532264752154292 17 -7 -11 0 -1 0 -2 -6
1532264752192190 -1 0 0 -1 -2 -1 -1 6
1532264752214132 -27 0 -13 -4 -3 -3 -1 -15
1532264752228094 23 2 -5 1 0 0 -2 12
1532264752273971 -4 -2 -7 -1 -3 0 0 -6
1532264752295913 -3 1 -7 0 -2 -1 0 -4
1532264752334809 -2 -2 4 2 4 0 2 -7
1532264752356753 2 2 -15 -3 -2 -1 -2 -1
1532264752379692 -1 -6 -4 1 1 3 2 2
1532264752395653 -2 2 23 0 -4 -2 0 -1
1532264752431550 -1 4 5 2 1 0 1 0
1532264752461470 2 -1 -7 -1 -8 -2 0 -1
1532264752468452 -2 -2 5 -1 1 0 0 -2
1532264752484424 -1 4 6 -1 -4 -6 0 0
1532264752513331 0 -2 -2 -7 2 3 1 0
1532264752528291 -3 0 -9 0 -7 -5 -2 -1
1532264752574169 -1 2 -3 -5 -1 2 -1 -2
1532264752588132 4 1 -13 -9 40 23 3 0
1532264752597120 -3 5 19 -16 -3 11 0 -1
1532264752634009 -3 -5 8 1 -6 -3 -3 -1
1532264752656952 -7 3 11 13 0 -2 0 0
1532264752693849 2 7 3 -50 53 53 0 0
1532264752716787 0 -4 -19 -6 30 12 2 2
1532264752740724 1 7 13 22 30 17 5 3
1532264752767651 -1 5 20 20 -4 -9 1 -3
1532264752823502 -1 1 -7 -11 32 3 2 1
1532264752837465 0 8 25 10 2 -13 -4 -1
1532264752912265 -1 -7 -15 7 -4 -5 -1 -1
1532264752934206 -3 1 -5 5 -5 -1 -1 -1
1532264752978089 0 0 -1 -4 -16 -7 -2 -1
1532264753026968 4 9 -1 2 7 2 1 4
1532264753031944 5 28 3 -1 19 2 1 1
1532264753078819 -17 12 15 3 -8 -3 -1 -5
1532264753114724 -8 -8 41 -1 5 4 0 0
1532264753152622 1 18 7 0 -2 -2 -4 5
1532264753189523 22 51 35 14 0 -19 7 16
1532264753264323 23 4 26 10 -2 -16 -4 12
1532264753497699 -11 56 7 3 2 -27 -7 -22
1532264753653283 9 8 -3 4 0 1 2 -9
1532264753744041 4 4 -3 -3 -4 -3 -8 -34
1532264753810862 23 29 9 1 4 2 3 -33
1532264753856738 0 -21 -12 -2 0 0 2 -11
1532264753953480 -4 91 2 1 1 -2 -4 -5
1532264754038253 2 -26 -23 -13 -4 -11 -5 7
1532264754045235 25 -4 -9 -5 -2 -6 -1 12
1532264754093108 -12 -4 7 -3 5 -4 -2 -9
1532264754110062 -14 12 9 5 5 -4 -2 -32
1532264754166910 -19 -12 -13 13 5 3 1 -12
1532264754170899 3 -10 -29 -4 -3 -2 7 14
1532264754201832 -6 8 12 2 -2 0 -1 12
1532264754225752 -4 -13 3 1 -1 2 -6 -18
1532264754262654 -3 -14 -11 -2 0 -1 1 1
1532264754276616 3 -9 24 -4 -2 3 -1 73
1532264754299555 6 -75 -20 0 3 4 3 13
1532264754375352 8 -9 31 10 -1 -1 -7 -20
1532264754412254 -5 70 63 -39 -7 4 17 -14
1532264754473091 -12 -4 -44 8 2 8 41 24
1532264754501016 -21 35 -1 7 1 -7 -8 -17
1532264754577823 5 14 6 16 5 5 1 7
1532264754681534 -3 5 -5 -2 -8 -4 0 -1
1532264754794232 -10 -9 10 23 -15 3 0 -6
1532264754869032 1 -2 -11 -58 -19 -8 -11 -2
1532264754966771 1 6 0 7 2 -2 -2 9
1532264754989709 3 34 18 10 5 -1 1 -7
1532264755018631 11 -36 0 4 5 3 2 34
1532264755078472 -5 40 -9 0 1 -1 0 -1
1532264755133325 1 -8 -36 -3 -11 -5 1 -7
1532264755161251 -2 12 12 3 1 2 -2 -8
1532264755199150 -3 -5 8 0 -4 -1 0 -3
1532264755303869 0 31 2 -1 -3 -3 -1 -2
1532264755378669 -1 5 1 -2 -2 0 0 -1
1532264755409587 0 0 3 3 1 3 -1 0
1532264755431528 0 -1 5 7 -1 -6 -1 -1
1532264755461448 -1 -10 11 3 4 3 2 -3
1532264755498349 1 -4 1 -7 5 3 -1 1
1532264755521288 3 -1 -4 3 6 6 2 0
1532264755574158 -3 -5 -14 -28 -13 -3 -5 -2
1532264755589106 7 4 11 -15 -3 2 0 3
1532264755648946 -3 -14 -16 -5 8 2 2 -5
1532264755701805 -3 5 6 5 2 2 0 3
1532264755738706 -1 -15 10 -3 -1 -1 12 0
1532264755761645 -19 -1 -3 -1 5 7 12 8
1532264755800541 -4 4 0 -1 -6 3 -4 -3
1532264755942163 -17 -3 2 -6 -5 -11 -17 8
1532264756015965 -2 4 -4 -1 -5 -5 -33 -3
1532264756038904 9 6 4 -5 6 8 -6 9
1532264756084780 3 -6 -3 9 20 15 2 -8
1532264756167559 2 0 -5 -17 -12 -9 3 -2
1532264756206456 -4 -8 -20 6 1 8 2 0
1532264756445816 4 -9 11 10 3 1 -2 -2
1532264756540569 3 3 -1 -6 -2 -4 -1 3
1532264756685176 -1 0 -1 -3 -3 1 0 -2
1532264756700136 -2 -9 0 -1 3 1 3 -1
1532264756759975 1 0 -12 -2 -1 0 3 6
1532264756780920 3 21 17 -3 -3 -2 -2 1
1532264756804855 -1 6 9 4 1 -1 -1 -1
1532264756856722 -2 -59 -52 -6 -2 -1 2 -4
1532264756886637 2 -12 -8 -9 -3 -4 -2 -4
1532264756938498 2 29 0 13 5 -1 -3 2
1532264756956450 -1 -8 -6 -7 -2 2 1 6
1532264756985373 1 -16 7 7 1 0 -4 -4
1532264757014300 1 24 -13 8 4 2 -2 11
1532264757038246 -25 -27 -56 -15 -5 -2 -4 -53
1532264757074136 -1 -17 -5 -2 -2 1 0 10
1532264757112034 0 -19 -20 1 1 -2 -1 -1
1532264757126994 -5 11 1 -11 -1 1 -1 -1
1532264757140957 -4 34 -13 -3 -2 1 -3 -22
1532264757248668 10 -1 -1 3 -2 -1 -2 1
1532264757254652 9 20 44 2 0 -1 1 -1
1532264757299533 0 -39 0 7 3 1 -1 -2
1532264757320477 -6 5 9 -10 -4 -1 -1 -3
1532264757354394 0 22 -38 -3 -3 -1 1 0
1532264757380317 3 18 17 4 19 8 2 1
1532264757434173 2 3 20 31 15 5 1 -1
1532264757508984 -8 -7 -33 -27 -17 -3 -3 -3
1532264757734370 5 18 71 20 3 1 2 7
1532264757801191 6 5 16 0 2 0 4 2
1532264757847068 4 -2 -2 4 2 18 3 6
1532264757989687 -6 -11 -4 1 1 -10 -4 -1
1532264758237026 -4 -2 1 -5 -2 0 -7 -19
1532264758274925 -2 -4 4 0 0 -3 1 -3
1532264758514296 0 -4 -3 -3 11 3 -3 -6
1532264758531239 -13 -15 -8 0 -12 -29 -1 -7
1532264758589084 1 2 0 -4 -4 3 2 4
1532264758649921 -9 -24 -40 5 2 13 2 -2
1532264758701782 2 22 43 -6 -4 0 4 2
1532264758746663 7 3 -6 0 -1 8 2 5
1532264758792540 4 10 66 1 1 -4 -1 1
1532264758829441 3 29 22 -3 0 0 1 1
1532264758851383 -1 -28 -43 3 4 0 0 -1
1532264758948124 1 -5 -33 2 3 0 -5 -1
1532264758972060 3 50 -13 -27 -8 1 -2 -1
1532264759019932 -5 5 -35 0 -1 -6 -3 -2
1532264759071793 -6 -36 32 3 -1 -1 -4 -2
1532264759092738 4 39 23 4 -4 1 1 0
1532264759105703 -10 -39 -3 -6 -3 -63 -25 -38
1532264759181510 -3 39 35 -7 -8 -16 -5 2

1532264759220395 -15 -30 49 14 2 3 -7 -16
1532264759243335 0 9 -7 -46 -21 -9 -4 3
1532264759256300 -23 -11 -10 3 1 -2 -2 13
1532264759298188 -17 30 -5 -6 -2 2 33 -27
1532264759323122 14 -54 54 -16 -10 35 12 8
1532264759347057 -6 -6 -128 -25 -4 10 29 4
1532264759371991 7 -29 35 -87 -26 -14 -11 5
1532264759407895 3 27 127 42 3 -12 -10 -4
1532264759525580 -2 -25 21 15 1 4 1 0
1532264759549516 0 -8 7 11 2 -1 -4 -2
1532264759685153 2 0 -16 4 -7 -5 -3 -2
1532264759722055 -2 -8 -20 -1 2 0 3 0
1532264759789873 -1 -11 -24 -10 -1 -3 0 0
1532264759863676 1 0 -2 23 -2 -1 1 0
1532264759983356 -2 8 14 -10 -7 -2 3 0
1532264760230694 -1 -4 -1 3 -5 0 3 -1
1532264760419190 5 13 -8 2 5 -1 0 -1
1532264760440134 -2 -16 -18 0 19 7 2 -3
1532264760494988 -29 -9 7 0 -5 0 0 -11
1532264760568790 -2 -21 -3 -3 -4 -1 1 -5
1532264760592727 6 33 -29 -1 2 1 2 14
1532264760643591 -2 -16 -14 4 10 7 2 0
1532264760699441 -4 -10 -38 -19 -7 3 -1 -1
1532264760710412 5 -1 -5 -3 0 19 13 5
1532264760734348 1 14 1 2 -2 8 3 -10
1532264760817126 -7 -10 -35 -54 -39 -25 -10 -4
1532264760847046 -2 -7 -42 1 -8 -10 -4 0
1532264760854027 -4 -10 26 -18 1 1 -1 -4
1532264760996646 3 8 35 -3 1 -2 1 0
1532264761071446 4 2 20 6 16 7 1 2
1532264761086406 -1 1 12 -4 -3 5 0 -2
1532264761116326 -2 -15 -78 -5 -4 -3 -2 -2
1532264761153228 2 8 -20 33 5 3 0 0
1532264761215062 0 -7 -21 -10 -2 -4 -2 -3
1532264761295846 -5 -8 53 0 5 8 3 1
1532264761333745 7 17 69 5 11 14 1 -4
1532264761416523 27 94 123 16 4 -6 7 7
1532264761476363 -17 -43 -88 -7 8 7 -2 -19
1532264761568118 2 -19 -42 3 21 11 2 -6
1532264761626961 4 10 17 4 -11 -7 0 19
1532264761680817 4 -5 10 5 -4 -2 2 8
1532264761792518 -1 36 -9 0 8 0 1 -7
1532264761844379 6 9 8 1 1 1 1 4
1532264761867318 2 24 8 1 -2 1 2 -2
1532264761911201 9 -27 -4 2 -3 -3 -3 8
1532264762070773 -2 -37 3 -2 -3 0 -3 -7
1532264762128619 9 9 2 -4 1 6 4 3
1532264762158539 -1 16 31 24 7 -4 -5 -8
1532264762196438 1 -9 2 -3 0 -1 -4 -11
1532264762233339 8 21 12 -11 -3 -5 -1 3
1532264762326091 4 8 -17 -2 2 -2 -1 8
1532264762406875 1 -6 7 1 2 5 10 -9
1532264762435798 -5 9 -59 4 -4 -3 -6 1
1532264762489654 10 5 7 -6 -1 0 -1 0
1532264762549494 -8 16 -24 5 5 -2 -3 -15
1532264762579414 -7 5 6 6 4 0 -2 -15
1532264762639254 -1 9 3 34 22 11 1 5
1532264762699094 -2 -3 -19 -41 -23 -7 -1 -4
1532264762737989 0 -1 -10 -23 -11 -5 -1 0
1532264762765914 -10 -4 8 74 17 5 3 1
1532264762893574 -11 -10 -6 -5 -2 1 -1 0
1532264762961392 6 7 5 8 -2 -1 2 1
1532264763014251 -19 -6 10 11 0 0 -1 -6
1532264763142907 -26 -15 -47 4 3 13 6 2
1532264763293504 -6 0 -7 -3 -3 2 6 4
1532264763329414 2 -17 -52 -10 -2 -5 -45 0
1532264763344368 -2 -3 -84 16 -5 -6 -8 -1
1532264763547824 -9 -26 -26 -1 -1 -1 -1 -10
1532264763622624 6 0 -15 -10 -2 1 2 2
1532264763658528 -8 -6 4 3 0 -4 -2 -3
1532264763676479 -12 -21 -21 -13 -6 -3 -2 -2
1532264763773255 -2 -12 6 4 -1 -4 -1 -2
1532264763780203 -8 -3 -5 -8 1 1 1 -1
1532264763802144 0 6 11 6 0 1 0 -2
1532264763897888 -4 2 -3 31 8 0 -2 -4
1532264763923818 12 -2 0 2 0 -1 0 3
1532264763959722 3 1 -9 -9 -3 -1 -2 -7
1532264764025547 10 5 -1 -3 1 -2 -2 3
1532264764088378 3 7 -2 -2 -3 -1 -1 -2
1532264764103339 0 4 -7 -5 0 0 -1 1
1532264764126284 -7 -27 -6 -3 -2 0 0 -6
1532264764164190 -6 3 36 2 0 7 1 -1
1532264764192101 -8 -1 -17 0 -2 -3 1 -2
1532264764198086 -7 -5 -12 16 4 1 5 5
1532264764275876 -2 1 -39 -6 -1 0 -1 -1
1532264764289840 -9 16 46 -6 -1 -1 1 -20
1532264764327738 9 -4 47 4 1 -1 2 -15
1532264764381595 0 -4 -23 1 -3 -3 -4 -28
1532264764408523 -12 68 29 7 0 -3 -3 -3
1532264764455397 1 -22 25 -3 -1 -2 -1 -6
1532264764471354 -5 -16 -8 6 10 2 1 16
1532264764492299 4 -6 30 -11 -3 0 0 1
1532264764605009 27 56 26 1 -1 -4 0 39
1532264764640902 -6 -10 -33 2 -3 -1 -5 -10
1532264764679797 -4 -12 20 4 -2 -1 -1 -10
1532264764701738 13 16 33 -9 -1 0 0 8
1532264764762576 -1 6 -29 11 -3 3 -1 -9
1532264764791498 -5 -18 -2 21 -1 -1 -2 -9
1532264764835381 -7 -4 3 15 9 2 2 -3
1532264764895221 1 18 3 15 27 4 1 2
1532264764995952 4 7 -14 -17 -8 -3 -1 0
1532264765024874 -2 -5 -13 -6 -1 -2 -3 -2
1532264765046816 0 -1 -3 -12 -3 1 -5 -12
1532264765421813 5 -2 1 4 5 -18 2 14
1532264765526533 2 4 0 1 -1 -2 -1 -5
1532264765639235 -3 2 -1 0 -1 -2 0 -1
1532264765865626 -6 -8 -14 -6 -9 -47 -12 -5
1532264765894548 0 19 38 11 5 2 -6 -1
1532264765932447 2 33 -7 -1 -4 7 6 4
1532264765983312 -2 -4 -9 1 5 -1 -2 -1
1532264766029189 3 4 24 10 3 -6 2 1
1532264766074085 -3 1 -22 -1 -1 -4 -2 -4
1532264766118948 -3 8 14 4 6 3 1 0
1532264766133909 -4 3 12 -2 3 0 9 0
1532264766171807 -2 3 -61 -1 -7 -2 -20 -3
1532264766210703 1 -12 -60 -1 0 0 -12 -1
1532264766231653 -1 -5 34 0 -7 -4 0 1
1532264766270543 -1 -25 -5 -1 0 -2 1 0
1532264766283508 4 -1 -21 -4 -3 4 -5 -8
1532264766381247 6 -45 49 0 3 48 2 83

1532264766421144 9 23 -12 -8 -5 -23 5 21
1532264766436100 3 4 83 6 -17 -4 -9 2
1532264766485967 13 -15 -91 18 9 -5 -1 72
1532264766496938 19 10 -5 -16 -12 2 -18 -2
1532264766547801 -22 -100 5 -3 -5 -20 13 -39
1532264766571737 -5 16 -54 -95 -32 -9 -18 -5
1532264766599663 4 24 -77 -78 -3 -11 2 -2
1532264766605648 1 1 25 49 -2 -6 2 -2
1532264766683439 -6 -11 -7 10 0 -8 -7 0
1532264766690429 -3 3 -34 -19 -13 -7 -5 -3
1532264766712361 0 5 -11 -35 -20 -9 -1 0
1532264766740287 6 -19 0 -6 -7 -5 -4 -2
1532264766787162 -7 -8 -13 -21 -19 -11 -2 -3
1532264766831044 2 0 -1 -7 1 -2 0 1
1532264766876922 -5 -27 -5 0 4 1 3 0
1532264766929780 1 -93 -44 2 -7 -4 -3 9
1532264766974678 -1 27 23 -7 -25 -6 -1 1
1532264767011562 6 21 27 -6 16 11 2 7
1532264767034500 2 27 35 -4 -12 10 14 1
1532264767064420 -4 -13 -31 0 -4 -8 -11 -3
1532264767094340 0 31 35 7 -1 -2 -3 -4
1532264767132238 -2 -7 -21 0 3 -3 -1 -11
1532264767154180 1 -2 -13 0 0 -3 -6 -9
1532264767177119 -5 1 -9 0 1 -4 0 0
1532264767192079 -7 3 4 -2 -2 -4 -2 -6
1532264767214020 3 0 -4 -1 1 2 3 7
1532264767227983 -4 -9 -19 -1 1 -2 -2 -2
1532264767251919 8 -6 -8 -1 -1 6 -1 23
1532264767281839 3 2 0 1 -2 -4 -3 -9
1532264767311760 7 3 2 -1 -2 -2 0 0
1532264767334697 -14 2 -2 0 -3 -1 0 -14
1532264767347663 -1 0 4 -2 -3 2 -1 3
1532264767371599 -1 -1 -6 2 6 1 1 -4
1532264767431439 -2 -1 2 1 -3 0 2 1
1532264767455375 2 -2 3 5 10 -1 2 -1
1532264767476318 0 -1 -1 -3 0 -2 -2 1
1532264767499258 -2 0 -3 3 6 3 0 0
1532264767537156 1 1 -2 3 -14 -3 -1 1
1532264767559098 -1 1 3 2 -8 6 -9 2
1532264767574058 0 0 -16 -6 -32 -12 2 -1
1532264767596996 -3 -1 11 -10 16 1 -1 -1
1532264767633898 1 -1 -5 -14 0 -4 -1 0
1532264767670798 0 0 4 0 -6 -11 -2 0
1532264767724655 -2 -7 19 17 19 3 1 -3
1532264767731636 2 3 10 10 -7 -1 3 1
1532264767761555 -3 -2 14 -15 -1 5 -3 0
1532264767837354 -1 -13 -7 -7 -3 -2 -2 1
1532264767851317 -1 -2 1 5 -1 3 0 0
1532264767897194 -1 -2 -6 2 15 9 3 -1
1532264767934095 -3 1 3 4 -4 0 -1 -2
1532264768000916 1 2 19 9 -4 0 0 -2
1532264768053775 -2 -9 -10 -1 7 6 2 0
1532264768084692 -1 -1 13 5 -2 10 -1 -1
1532264768121594 -3 -14 -25 6 1 -14 -3 0
1532264768173455 15 43 -4 9 15 45 10 7
1532264768213348 -8 -21 -33 -6 -13 -7 7 -1
1532264768218335 -5 -30 -108 -27 -10 -2 -2 2
1532264768294132 -2 -16 4 -21 -5 -19 -15 -6
1532264768317071 -1 5 -15 7 -3 -11 -5 -1
1532264768438745 -10 -18 -113 -13 -8 4 3 -26
1532264768504569 -31 -88 -21 -21 -17 7 -5 10
1532264768533492 5 19 13 19 -6 -78 13 4
1532264768571391 29 23 29 6 5 -7 -1 15
1532264768617268 -2 -18 -12 7 -3 33 0 24
1532264768693065 9 7 -39 0 -1 5 -3 3
1532264768841678 2 16 42 -25 -12 -4 -3 0
1532264768930430 -7 -34 -16 1 6 -1 -4 -13
1532264768978306 7 8 -2 6 -3 -1 1 -4
1532264769022185 10 12 -11 7 0 -3 0 9
1532264769096985 4 13 -11 -2 2 -4 -2 1
1532264769172782 0 12 23 7 4 -11 1 -4
1532264769275508 2 -50 -33 -2 -7 3 2 12
1532264769338339 -7 -11 -11 6 6 9 0 7
1532264769388206 -12 1 35 -2 -2 5 2 14
1532264769458020 -6 30 19 0 0 -13 -16 -1
1532264769501903 -4 13 -27 2 -7 -8 -30 -1
1532264769531822 -5 -52 -26 20 -7 5 6 4
1532264769576702 5 -4 40 -63 -1 4 3 7
1532264769612607 1 -6 20 2 6 -1 3 -4
1532264769636543 -8 -11 -48 -7 -3 -4 1 5
1532264769673443 -2 17 -7 8 1 -2 -4 0
1532264769719321 -3 -12 -37 -5 1 2 3 0
1532264769749241 0 5 -18 1 -4 -2 1 2
1532264769757219 4 7 28 16 -2 6 4 5
1532264769793132 0 10 -33 -10 -17 -11 -5 2
1532264769839998 -6 -2 2 -3 -12 -9 -6 -4
1532264769877897 4 1 -8 2 7 5 2 2
1532264769884879 0 0 -15 12 5 1 0 -1
1532264769914798 1 0 -10 -7 11 2 2 1
1532264769981620 3 1 9 -4 1 0 -2 -1
1532264770056420 -4 -3 -9 -16 -4 -2 -2 -3
1532264770101300 2 -8 -17 -14 -4 1 -1 -2
1532264770139198 -6 4 8 0 4 6 20 5
1532264770258878 -15 -9 -12 -4 -3 -3 9 -2
1532264770379555 8 0 0 -3 0 -2 1 2
1532264770439395 -8 -8 4 3 -3 7 3 0
1532264770484275 11 0 7 9 23 10 20 0
1532264770499235 -6 5 21 -3 -13 4 8 -3
1532264770535139 -1 8 -13 1 1 -2 -2 -1
1532264770597972 -4 0 24 1 -2 0 4 -2
1532264770611938 5 4 19 4 -3 -1 1 1
1532264770649833 14 7 5 2 -7 -6 0 2
1532264770715657 2 11 33 5 -3 -12 13 5
1532264770746574 7 -7 -5 -5 -4 -5 -4 -5
1532264770784473 -10 -2 2 5 0 -4 -1 0
1532264770822372 -11 -16 -6 -11 -8 0 2 -3
1532264770861267 -3 -5 -8 -2 3 1 7 3
1532264770866253 -2 -11 0 4 0 -1 1 0
1532264770895177 6 16 21 11 3 -3 -5 13
1532264770929086 0 -11 -3 -2 -3 -4 -2 3
1532264770964989 -24 -13 4 15 -1 -1 -2 -9
1532264771001892 6 -7 -50 -12 1 4 -1 -4
1532264771046771 7 -4 -26 1 1 -1 0 1
1532264771100627 5 7 -2 -3 0 0 1 -1
1532264771153486 -4 -14 -34 1 0 1 -2 -2
1532264771199363 -7 17 45 2 -2 2 3 -2
1532264771236265 -8 -25 33 -2 -1 -1 -1 1
1532264771279150 11 46 25 5 -1 -3 6 34
1532264771293113 -24 -5 29 -8 -2 0 -3 -36
1532264771324031 -5 33 16 0 0 -6 7 40
1532264771352952 -1 5 45 7 3 -2 -1 14
1532264771391849 3 19 44 -18 -4 -6 0 12
1532264771451688 10 -4 44 12 1 1 -4 11
1532264771511528 0 -16 5 -12 -6 0 3 -2
1532264771533470 -9 -20 -7 2 -1 -2 -1 -2
1532264771564387 13 20 1 3 0 1 0 2
1532264771587326 4 -5 4 -17 -5 -1 -2 0
1532264771617246 6 -40 -102 17 -3 0 -2 -3
1532264771633202 -1 -14 12 0 2 0 1 2
1532264771647166 -3 -36 9 -1 -12 -5 -1 -2
1532264771686062 2 6 -10 -37 -19 -3 -3 0
1532264771707006 11 24 4 -21 2 2 2 2
1532264771727950 3 0 1 -28 -9 -2 -1 2
1532264771766846 -15 -15 -14 -25 -2 0 -3 -7
1532264771804744 -7 -12 -18 -12 -4 -3 -4 -3
1532264771817710 3 8 49 -5 -7 -3 -2 -3
1532264771834664 0 -18 -25 -20 0 0 -1 0
1532264771864585 6 14 13 5 -4 -1 -3 2
1532264771877549 -11 10 -11 2 2 0 -1 1
1532264771908467 7 0 -11 -2 0 2 0 1
1532264771917443 -2 3 12 7 1 2 2 -1
1532264771968307 6 14 50 16 2 1 -2 2
1532264772021166 10 6 -17 -4 -2 -2 -4 5
1532264772080008 -4 -15 -43 -3 -1 -1 4 -2
1532264772186723 17 36 65 7 -3 -19 -11 -9
1532264772224629 -7 -14 -55 -5 -1 0 -3 -10
1532264772320365 0 5 -52 0 2 1 1 -10
1532264772352280 -8 9 31 -1 0 -2 1 11
1532264772463982 10 -3 -13 -4 -2 -2 4 38
1532264772516841 10 16 4 7 4 -2 -2 -6
1532264772614579 -4 3 -12 0 -1 -3 -2 6
1532264772680403 1 -4 -30 -6 -6 -13 -5 5
1532264772831998 -14 7 -4 -1 -6 -8 -13 -2
1532264772869896 0 4 -2 -1 2 -8 2 -1
1532264772929736 -3 -9 -5 -4 0 16 1 2
1532264772989576 -5 -13 -77 3 0 6 1 -3
1532264773132194 0 26 -31 -2 -1 -2 -5 -2
1532264773169096 -4 6 -3 -1 1 0 0 -1
1532264773228935 0 -20 -50 -5 0 3 1 1
1532264773251874 2 -3 -9 -3 -3 -7 -2 1
1532264773274819 -2 -12 5 2 0 -1 -1 -3
1532264773289773 -3 -8 -38 -3 1 3 -2 -1
1532264773325677 0 2 32 1 -1 -1 1 0
1532264773343629 -1 8 -40 3 2 -3 -3 -2
1532264773374546 3 20 11 4 2 -2 1 2
1532264773439373 5 -51 2 0 -3 -11 -17 6
1532264773484252 -8 -8 -18 -14 -3 -2 -15 1
1532264773491243 0 30 111 -13 3 8 2 7

1532264773537112 -9 -4 22 -6 1 -2 -2 -1
1532264773552072 -2 -2 39 14 6 6 -10 -36
1532264773588973 24 49 -44 -7 3 -8 45 -8
1532264773602936 -24 -69 78 -8 -4 -28 -16 -48
1532264773649810 -13 -10 61 24 11 30 16 8
1532264773662775 -5 -12 7 43 8 -22 -9 -4
1532264773671751 0 -9 51 27 6 17 11 14
1532264773711645 -5 12 9 4 2 17 5 -4
1532264773715635 -10 -14 32 47 13 6 2 1
1532264773731592 1 5 20 -26 -22 0 0 2
1532264773763506 -5 -8 20 31 15 6 1 -5
1532264773791446 -4 10 5 -6 -12 -4 1 1
1532264773814370 -2 -2 0 25 8 1 1 3
1532264773837309 -3 -9 -2 -4 -2 -2 0 1
1532264773852268 2 8 0 1 -11 -8 -2 -3
1532264773873214 1 10 5 -4 3 3 1 -1
1532264773891165 1 -7 -9 -4 -3 -5 -2 -3
1532264773913107 -1 -7 -5 -7 2 0 1 1
1532264773967960 0 24 -10 -9 1 0 -1 1
1532264773973952 10 25 12 -3 2 1 2 -1
1532264774016829 5 -27 -25 3 2 -4 -1 6
1532264774030792 3 55 13 13 13 8 0 -10
1532264774054728 10 0 -52 5 9 15 6 15
1532264774091629 6 -25 1 -3 -1 -1 2 21
1532264774113570 -3 -12 4 -9 -8 -5 -2 -9
1532264774128530 5 4 -10 -8 -1 -5 -3 -20
1532264774151469 15 -9 -4 -3 -1 -5 -2 21
1532264774174407 -4 -8 -13 -3 -2 -3 0 5
1532264774219287 -3 -17 -10 -4 -5 0 1 -1
1532264774234248 0 -3 -34 -4 0 -2 0 -4
1532264774294087 -2 -6 4 -1 -4 0 1 -6
1532264774309047 9 -5 4 0 -1 0 -2 3
1532264774330989 -14 4 1 -4 -3 -3 0 -11
1532264774353928 -3 5 -5 1 1 1 0 -5
1532264774368888 -4 -11 11 3 0 0 2 6
1532264774406790 2 -5 1 -1 -3 -3 -2 9
1532264774424754 -4 -7 0 0 2 1 -2 -24
1532264774459645 4 1 -4 -1 -1 -1 -1 2
1532264774481586 -3 -2 -6 -3 -2 -3 -3 2
1532264774519486 -2 -5 1 -1 -3 -1 -3 2
1532264774540442 -5 12 -2 -2 -2 -1 -1 -5
1532264774571345 -3 -8 -2 1 0 0 -2 -6
1532264774587303 -11 -5 -2 -2 -1 0 0 -11
1532264774600269 3 -4 0 -1 0 -4 -1 -2
1532264774639165 0 -4 -2 0 1 0 -1 -2
1532264774669085 0 -3 -1 -2 -2 -2 -1 -2
1532264774685042 2 -9 -5 2 0 -1 -1 3
1532264774720946 -2 -5 -5 -1 -4 -2 -2 1
1532264774759842 0 -1 -2 1 -3 0 1 -1
1532264774781784 -1 -2 -7 0 -1 -2 -1 -1
1532264774862568 0 -1 -1 -2 -1 -4 -3 0
1532264774885518 0 0 -4 -4 -3 -2 0 -1
1532264774923404 -1 -1 -3 -6 0 -1 0 0
1532264774947340 -1 1 -1 1 -1 -1 -1 -1
1532264774983257 0 -3 -3 2 -2 1 2 -2
1532264775008178 1 -3 0 -1 11 9 -1 2
1532264775066023 -3 1 -2 2 -5 -2 -2 -1
1532264775080983 1 -2 -4 -1 -11 -3 2 0
1532264775125864 0 -1 -18 9 18 16 2 3
1532264775164760 -3 -4 -13 -9 18 5 -2 -2
1532264775201661 1 1 1 16 25 -1 -1 1
1532264775222605 1 4 12 9 -36 -13 -2 -3
1532264775246541 -8 -4 7 -13 -14 -1 -2 -5
1532264775298402 2 -5 -61 -9 23 19 -1 0
1532264775317353 0 2 25 -12 -18 -13 -2 0
1532264775381180 -7 -26 3 -7 -13 -3 -3 -3
1532264775396141 2 13 17 -32 -31 -9 -3 -1
1532264775465954 -2 -2 7 -3 -1 2 2 -1
1532264775480914 -3 -1 -9 -4 -6 -2 -4 -3
1532264775501858 -2 4 2 -16 -23 -8 -3 1
1532264775554717 -3 -4 23 -6 -2 -3 -3 1
1532264775567682 2 0 -68 -11 8 4 -1 -5
1532264775591618 -5 -7 101 10 -3 -3 -3 -1
1532264775614557 -7 -35 -5 -6 2 -1 -2 -7
1532264775636498 7 16 -13 4 8 6 4 4
1532264775651457 10 21 -19 7 6 -4 3 3
1532264775681378 5 39 104 45 8 19 -4 -9
1532264775719276 1 10 69 12 -1 5 1 -29
1532264775794076 2 45 -50 -1 -6 -10 -1 44
1532264775817015 -8 -10 -63 -22 -6 0 3 30
1532264775921735 -8 -20 13 7 0 0 -2 11
1532264775951655 -18 31 3 -4 -3 0 0 1
1532264776034434 -4 -64 5 -3 -5 -5 -7 -22
1532264776057374 8 -23 8 1 -2 -2 -3 6
1532264776072333 11 -10 -2 2 -5 3 2 7
1532264776094273 8 26 0 2 4 1 0 25
1532264776153116 5 52 14 -15 -10 -5 -2 4
1532264776266813 -21 10 3 -3 -3 1 -1 -34
1532264776304711 -4 -4 6 -2 1 3 1 3
1532264776325655 10 4 9 -6 -7 -8 -3 14
1532264776347596 8 -4 -9 2 -2 1 0 6
1532264776379511 12 1 -1 2 -2 -4 -1 9
1532264776430375 10 11 35 6 1 2 3 25
1532264776477249 10 0 47 17 5 -3 1 7
1532264776513153 -10 -9 17 -8 -5 1 0 -19
1532264776537090 -19 4 -25 -1 -1 0 0 -34
1532264776573991 -7 4 -45 -4 2 1 1 0
1532264776619868 13 -1 20 2 1 4 -1 26
1532264776643804 -7 -27 22 8 3 2 0 7
1532264776693671 17 -5 -14 0 3 3 2 13
1532264776753510 -7 -14 79 -4 -11 -2 -3 -1
1532264776829318 -1 16 -40 -13 -5 0 2 -17
1532264776873191 2 -2 22 13 6 1 3 13
1532264776904108 2 4 -4 11 4 0 2 1
1532264776933031 -6 -6 -18 -1 0 3 1 -5
1532264776956967 -12 -10 -26 -2 -2 -5 -3 1
1532264776978908 10 4 21 6 -2 -3 0 12
1532264777039745 0 10 11 -18 -19 -5 1 -4
1532264777144466 0 -1 -7 -10 -6 -3 -1 -4
1532264777173388 -1 4 0 7 7 7 2 0
1532264777196327 4 1 -3 2 -2 -3 -1 0
1532264777287088 0 2 7 -4 -3 3 10 2
1532264777384822 -20 0 8 -7 -3 7 12 -2
1532264777398785 4 -7 -9 -18 -3 -1 14 0
1532264777496524 3 8 5 10 0 4 2 2
1532264777502508 3 3 10 0 1 -13 -16 2
1532264777533425 -6 1 26 6 -4 -5 16 -1
1532264777549382 5 5 -2 -11 -11 -15 -3 -6
1532264777593264 -9 -3 -26 0 4 33 -20 0
1532264777616204 -6 -2 28 -6 1 -29 -36 -7
1532264777684023 -3 0 39 7 -1 3 -35 -7
1532264777759846 4 -2 -4 -1 0 7 12 3
1532264777795742 -11 -5 4 -12 -9 1 30 -3
1532264777840621 -1 -18 -40 -12 -29 -22 -23 -5
1532264777924404 0 -4 7 7 -4 -3 -2 -2
1532264777939357 -10 -6 -6 2 6 -3 -1 -7
1532264777963294 -4 -2 -6 -3 3 8 15 -1
1532264777976259 -7 -17 -9 20 7 2 -1 4
1532264778037096 14 38 17 8 4 2 1 2
1532264778059037 -10 -35 -64 -14 -3 -6 -10 -5
1532264778088957 7 -23 -30 -3 3 -3 -2 14
1532264778141816 -8 -2 5 -3 -7 -4 0 10
1532264778164755 4 23 41 -3 1 -2 -1 0
1532264778261496 2 4 -15 -2 2 -2 3 -1
1532264778352253 -7 -14 29 -4 -2 0 -4 -3
1532264778406109 1 -1 11 -1 -1 -1 0 -2
1532264778457987 0 -17 6 11 5 0 -1 0
1532264778492877 0 -11 2 -9 -5 -2 1 2
1532264778518808 -8 -7 15 -4 -2 -2 0 -3
1532264778561693 -3 -13 0 -6 0 -2 -2 2
1532264778584632 -6 5 1 1 -1 -3 -1 -2
1532264778605576 -5 -35 31 -7 -5 -1 -1 1
1532264778627517 -5 35 7 -13 -7 -4 -6 -41
1532264778646466 0 8 -3 4 3 0 0 6
1532264778684366 11 8 10 10 1 -3 1 -4
1532264778704312 -3 13 11 7 0 2 -3 4
1532264778727255 -3 23 -38 -10 -3 1 -2 -7
1532264778772131 0 -49 -7 -6 2 -1 5 24
1532264778787090 -2 20 25 19 0 -2 -2 9
1532264778848925 11 -5 -40 -9 -5 -9 10 -16
1532264778913752 -14 -16 -11 -9 -8 -4 2 -20
1532264778960626 -3 -20 -15 0 -3 2 -2 0
1532264778974597 2 -4 -9 -5 4 1 0 -6
1532264778983565 -8 -5 31 -5 1 0 0 -6
1532264779065347 -3 0 -43 -8 -9 1 3 -3
1532264779124190 -4 5 1 -21 -14 -7 -3 -6
1532264779163085 -6 4 -24 -9 3 2 4 0
1532264779191014 19 22 21 24 12 3 2 5
1532264779216941 16 18 58 14 1 0 -2 4
1532264779259826 5 5 -3 17 4 -9 5 1
1532264779281767 -9 -13 -9 1 1 -2 0 -3
1532264779341608 12 23 25 10 2 1 -5 2
1532264779364547 3 2 29 -5 -5 -13 1 -1
1532264779454306 -2 -1 1 -5 -3 0 1 0
1532264779498189 1 -7 -9 5 8 6 0 5
1532264779589944 10 38 85 19 14 13 12 5
1532264779626845 -12 -40 -33 3 -6 -9 2 -12
1532264779748519 3 14 60 -11 2 19 3 0
1532264779791405 -1 9 -48 0 -2 4 -10 -12
1532264779829304 0 -12 -35 8 0 12 -1 2
1532264779890141 -4 -6 -37 -2 -3 -3 -4 -7
1532264779955965 0 2 7 7 3 3 0 -11
1532264780047719 -6 -14 -6 -6 -1 2 1 2
1532264780236216 3 -19 1 -7 -4 5 -6 -11
1532264780323981 3 -16 -3 0 1 5 2 6
1532264780450642 2 20 77 -6 -5 0 -15 2
1532264780475575 -1 -25 -11 0 -1 4 -3 -2
1532264780498524 2 10 -53 -7 -4 -8 -4 0
1532264780526439 5 -3 14 0 1 -1 0 2
1532264780548381 -4 -30 0 4 1 2 2 2
1532264780572316 -1 -21 8 -2 4 -1 1 0
1532264780618207 -7 6 48 3 1 -1 -2 -3
1532264780631159 -4 -10 -28 -7 -6 0 -3 -2
1532264780671053 7 22 0 -2 -4 -2 -3 1
1532264780690999 1 6 18 -5 -3 -1 -1 1
1532264780713938 -1 -6 -12 -5 -4 0 2 -1
1532264780728898 0 20 5 4 2 -3 -1 1
1532264780774775 1 -49 -30 -5 -2 1 2 0
1532264780804695 3 26 17 9 3 2 3 3
1532264780810679 -2 -11 -85 -16 -3 0 -1 -3
1532264780865533 -2 -2 -106 -8 -2 -2 2 2
1532264780889468 4 70 -37 -3 -3 -6 -3 -14
1532264780941350 19 23 8 -9 -9 -14 -11 -30
1532264780976237 -11 -125 27 -1 1 -9 4 7
1532264780987208 -11 -19 -15 -7 -9 4 7 3

1532264781014135 -4 -25 -50 16 6 6 0 5
1532264781044055 8 3 29 18 16 22 21 -28
1532264781105890 5 104 37 7 7 -18 -28 -99
1532264781148776 -2 -25 -108 39 -7 -25 -27 8
1532264781185676 -6 -29 -36 -3 15 -4 -8 12
1532264781216594 -2 -10 -73 -32 -5 2 -5 4
1532264781276434 -12 -16 -27 -22 -15 -7 -6 -6
1532264781286407 -8 -7 48 51 21 6 1 2
1532264781306354 -31 20 -11 15 4 2 2 2
1532264781343255 9 -14 -30 -27 -5 -9 3 9
1532264781366194 5 -1 13 5 -19 -3 -4 -6
1532264781389132 4 0 27 -21 -9 -1 -3 0
1532264781412071 -6 13 36 17 15 16 4 2
1532264781448972 8 -15 -12 0 0 0 1 -1
1532264781471911 -1 -7 23 -2 2 4 -1 -1
1532264781531751 -1 -13 -14 -5 -14 -7 -2 6
1532264781545713 -4 -22 -20 12 9 4 4 16
1532264781568652 -3 28 29 -5 5 -1 0 -15
1532264781599569 -14 13 -106 -2 3 -4 8 39
1532264781613532 8 22 -30 6 -2 -3 4 26
1532264781628493 8 9 20 -3 -4 -5 -3 -1
1532264781665394 -12 -11 -5 0 -3 -1 -4 -41
1532264781712267 -9 -26 1 -4 0 0 3 27
1532264781734238 -3 18 3 3 -1 -2 1 12
1532264781749170 1 17 -3 2 3 1 -5 -9
1532264781772109 -2 23 20 3 -3 0 0 6
1532264781808013 -8 -20 3 -1 -2 -2 -1 -4
1532264781846908 6 15 1 1 0 0 -1 -1
1532264781868849 -3 5 3 -1 1 -1 1 2
1532264781899767 -8 -15 -1 -1 -1 1 0 0
1532264781959607 -21 1 2 0 2 0 0 -29
1532264781966589 2 -5 2 -2 1 1 0 0
1532264782011468 2 2 -1 0 -2 1 -1 2
1532264782033409 3 3 0 -5 -2 1 0 3
1532264782048369 7 -2 -1 3 0 1 4 16
1532264782094247 -2 -2 -2 -2 0 -2 -2 5
1532264782108210 3 1 -2 -3 -2 0 -2 4
1532264782132145 -5 -3 0 -2 -2 0 -3 -4
1532264782154087 -7 0 -1 -1 2 0 4 -3
1532264782169046 6 0 1 0 2 -2 -2 8
1532264782191985 -2 0 0 -3 -4 -1 -1 0
1532264782205948 -1 0 -2 1 0 -1 2 -6
1532264782228887 -2 -2 1 -1 -1 1 1 5
1532264782265788 -14 -2 -4 -1 -2 -3 2 -11
1532264782288727 3 -2 2 -1 -1 -3 -3 -3
1532264782311665 2 1 -3 0 -2 0 0 0
1532264782325628 1 0 -1 2 0 2 -3 2
1532264782348567 1 1 1 2 2 -1 0 2
1532264782371505 1 0 -1 2 2 1 0 5
1532264782394444 3 6 -2 -3 -2 0 -2 2
1532264782408407 -2 -5 0 -3 -4 -2 -2 2
1532264782468247 -2 -1 -2 -2 0 0 -1 0
1532264782514124 2 2 3 5 -5 3 4 1
1532264782573978 -1 -1 -2 -10 6 7 2 -1
1532264782611865 0 -4 -19 2 8 4 0 0
1532264782634801 -1 -2 -8 29 22 -3 -3 0
1532264782707607 -2 -4 -24 33 10 2 0 -2
1532264782822300 2 14 49 3 -1 -3 -5 1
1532264782846236 -8 -17 -47 -5 1 -1 0 -1
1532264782972925 -2 -10 -46 -1 -6 -2 -1 1
1532264783046727 10 34 57 -8 -2 -1 0 1
1532264783099586 -16 -8 -2 0 0 4 3 -7
1532264783137490 12 6 17 4 9 14 6 21
1532264783211287 2 -3 -19 0 5 -2 -1 -2
1532264783248189 -16 -40 6 -12 -4 -2 -3 -2
1532264783273121 3 14 -8 3 -3 0 0 -7
1532264783302045 2 -4 -29 4 8 2 -2 0
1532264783361884 -5 3 8 1 -6 -5 -1 -2
1532264783376844 0 3 -15 4 -2 -2 -1 -1
1532264783421724 -9 -22 -29 -14 2 5 0 -6
1532264783436684 -1 6 -25 1 -3 0 1 2
1532264783518466 5 6 16 2 -1 -2 -1 2
1532264783557366 0 -4 2 -3 -6 -1 -2 -2
1532264783602242 -14 -20 21 -12 -6 2 6 21
1532264783631164 -16 -1 -10 -4 -14 -22 -5 3
1532264783654103 6 -36 -126 -6 -2 3 -1 5
1532264783736882 -1 -26 -42 -3 -4 5 -4 -2
1532264783804700 10 14 3 0 -1 -2 0 -10
1532264783870524 5 -22 -9 2 3 2 -12 1
1532264784217596 -13 3 15 1 -4 0 1 -6
1532264784247516 3 -11 -7 -6 -7 -3 -1 -6
1532264784307356 -2 -10 -13 0 -1 -3 1 8
1532264784322316 -9 -14 -3 0 2 1 3 -12
1532264784388140 -3 29 9 3 2 -3 2 28
1532264784435015 -8 -58 4 1 1 -1 6 23
1532264784502833 -4 2 -14 -3 -2 0 -4 -14
1532264784509815 15 -22 -6 -2 0 0 1 -6
1532264784525772 1 7 -27 2 1 -2 0 3
1532264784561676 -3 32 29 -1 0 0 2 8
1532264784591596 -3 0 -4 -21 -9 -2 -1 -3
1532264784660412 0 -3 1 -1 1 3 0 3
1532264784673377 7 17 -9 -52 -15 -3 0 3
1532264784703297 -12 -23 -10 2 3 1 2 -15
1532264784742194 -3 -10 46 8 -2 -4 -3 1
1532264784773111 -1 -13 -41 -4 6 -1 1 -1
1532264784816993 -4 -8 -12 14 6 6 5 1
1532264784852897 -1 -11 -13 -40 -3 -4 -3 -1
1532264784876833 3 7 5 -35 -12 -6 0 2
1532264784899772 3 -2 4 58 14 4 1 0
1532264784937671 0 -4 -7 18 17 7 4 6
1532264784981553 -8 -8 -4 -35 -12 -6 -5 -2
1532264785042391 20 10 6 -2 -5 -3 0 4
1532264785102231 2 -3 -1 -13 -4 -4 -4 -1
1532264785116193 -2 -2 9 38 7 -1 -2 2
1532264785162073 -4 -3 26 -18 3 38 13 1
1532264785191000 1 -4 11 7 -3 -6 -10 2
1532264785221910 -4 -5 -5 3 1 -11 -5 -5
1532264785295725 6 -2 -4 8 0 -8 5 -1
1532264785341591 11 -1 2 -7 -1 8 2 -1
1532264785380491 2 -6 1 15 2 6 8 1
1532264785469249 -6 -5 1 -2 0 -7 0 -2
1532264785492188 9 -1 1 0 -3 -10 11 5
1532264785544048 -2 5 6 -1 6 0 -19 -1
1532264785566988 -5 0 -2 -4 2 8 0 1
1532264785581948 -1 0 -2 2 0 2 0 -2
1532264785621841 -7 -3 -2 -6 -1 -1 -4 -3
1532264785655751 -9 -12 -11 1 -2 1 -2 -1
1532264785696641 -2 1 -1 4 4 1 -1 -1
1532264785715590 4 8 12 49 9 5 2 1
1532264785746508 -7 -4 -9 -21 -6 -3 -1 -5
1532264785769446 -1 -6 -9 -17 -6 -3 -1 0
1532264785822304 -5 -6 -6 -8 -8 -3 -4 -3
1532264785843249 1 0 5 -4 -1 -1 -1 -2
1532264785927028 -10 -4 27 7 1 -2 -1 -5
1532264785972903 -16 4 8 3 5 0 1 -2
1532264786009804 4 -4 1 1 1 1 2 4
1532264786061665 1 -1 -4 -2 0 0 -1 -2
1532264786136465 -2 -11 -3 8 -2 -3 -1 -1
1532264786144444 -4 1 8 -2 2 0 5 -1
1532264786184336 1 -34 -22 -3 1 0 8 20
1532264786188326 -7 -6 -19 3 0 1 -3 -4
1532264786206278 3 -22 -80 -2 0 -3 -1 -14
1532264786251158 3 99 26 -1 0 0 -3 -2
1532264786279084 -3 -46 -13 -4 0 2 0 8
1532264786323977 1 4 58 4 -2 0 -1 7
1532264786337926 3 18 8 -3 -1 -1 -3 20
1532264786391783 -21 -25 3 -7 -6 -2 -2 -7
1532264786421702 1 -10 -16 0 0 11 -2 -10
1532264786465585 -5 -6 16 -5 -4 -6 -6 -1
1532264786504481 7 -13 -24 4 1 -4 10 7
1532264786541382 6 -72 -31 6 6 -2 -1 4
1532264786564321 4 30 -4 9 0 1 -3 -4
1532264786579281 0 12 15 -25 0 -2 0 0
1532264786624161 -5 -37 6 10 -2 -4 0 -3
1532264786647099 -6 -21 18 -27 -14 -4 -3 -4
1532264786729880 3 5 -9 -28 -10 1 1 1
1532264786782737 5 12 23 15 -4 -1 1 -1
1532264786834597 3 -5 2 11 2 -1 -1 2
1532264786894438 5 18 25 -5 -5 0 1 2
1532264786901419 -4 -24 2 3 -1 0 -1 -2
1532264786932337 8 17 11 0 0 -2 0 0
1532264787007137 -4 -3 5 -2 -1 0 0 0
1532264787104875 6 13 82 9 5 6 7 21
1532264787127817 7 -8 -115 0 5 1 -9 -33
1532264787260459 -16 -16 -10 6 -1 9 -3 -27
1532264787359195 0 -21 7 -4 -2 0 2 -4
1532264787440977 9 22 70 0 0 0 -4 -17
1532264787545696 -5 -8 11 4 2 2 2 -8
1532264787674359 13 6 20 -4 -35 -2 -4 6
1532264787740176 -3 57 31 2 39 8 5 7
1532264787803008 7 -38 -12 1 1 0 10 -2
1532264787845894 -2 -3 31 -1 7 -11 -1 0
1532264787922689 -7 -9 -18 4 5 2 2 -3
1532264787966570 -5 -49 -27 0 3 6 3 1
1532264788028406 2 10 12 6 0 -5 -3 1
1532264788049350 -9 26 -12 4 4 5 -7 -2
1532264788079270 -1 10 -19 -2 -3 -1 -2 -6
1532264788156064 36 95 14 10 13 13 -30 -4
1532264788207925 -17 -3 -8 5 5 -35 20 18
1532264788214906 14 -34 -43 -7 -2 -1 5 -18

1532264788274747 -1 -11 76 -31 -1 0 5 -1
1532264788305664 -5 -7 -3 0 -5 -1 1 -8
1532264788326621 -6 39 50 24 1 -53 14 -71
1532264788350557 -17 -15 -60 20 -2 24 22 -9
1532264788386461 5 -40 -99 -81 -29 -11 8 -2
1532264788410396 -4 -23 68 17 7 22 22 -6
1532264788423362 11 -15 -47 -25 -2 7 5 8
1532264788470237 4 12 -89 -24 -3 15 9 -5
1532264788484212 -4 -19 -38 -2 15 -1 3 -2
1532264788506141 6 -6 -15 -16 -15 4 7 -1
1532264788537059 -34 17 -10 33 15 0 -4 -1
1532264788573959 -21 -5 12 15 -43 -12 -3 -8
1532264788595901 59 -15 -22 -24 -5 -8 7 9
1532264788625821 36 -31 -38 -33 -11 -1 2 5
1532264788656738 9 -46 3 -10 0 6 3 2
1532264788671698 7 0 -5 -1 -5 -4 -3 -2
1532264788686658 5 43 9 -11 -4 0 -1 2
1532264788709597 19 78 32 -5 -15 -3 2 24
1532264788723560 -9 2 9 -7 -5 -11 -3 -23
1532264788769437 4 14 -75 6 -3 -11 -3 0
1532264788783399 -13 -5 -12 9 11 8 -6 -58
1532264788814317 -3 0 1 -12 -9 1 -4 -4
1532264788837256 1 -13 -5 -16 -24 -4 0 8
1532264788843240 4 -3 -25 3 52 13 2 11
1532264788866178 -2 -2 16 -4 -26 -3 0 9
1532264788897096 -11 -4 -7 -1 2 3 3 7
1532264788912056 8 -4 12 3 0 3 -2 -22
1532264788940979 3 1 -29 -5 -1 -2 0 13
1532264788962919 -2 -5 2 -4 -3 0 -1 7
1532264788985858 1 10 23 -1 -1 -1 1 6
1532264789039714 -2 -65 11 3 -2 -3 -5 0
1532264789069634 -22 13 -8 2 3 1 4 4
1532264789099560 -5 -9 -8 1 -4 2 -3 -15
1532264789128476 4 16 -4 -1 1 -3 0 2
1532264789151416 -1 4 -1 -1 -1 1 -2 -6
1532264789174357 5 10 -3 0 1 -1 0 13
1532264789212253 0 -2 9 5 6 3 0 0
1532264789272093 0 1 -5 6 5 0 0 -3
1532264789316973 -2 -1 -15 -19 4 8 -2 -2
1532264789331933 1 1 7 20 0 -3 -1 -3
1532264789345896 1 0 9 -4 -7 -1 -2 0
1532264789354872 -1 1 18 3 -6 -6 -2 0
1532264789391772 0 6 11 12 8 -4 -1 0
1532264789405735 -3 -4 -2 9 -15 -6 -3 -3
1532264789429671 0 2 -1 -11 -6 -1 -2 -2
1532264789465575 2 -6 -21 -15 -13 -3 0 2
1532264789482541 -1 -1 0 -6 -2 -3 -2 0
1532264789511453 -1 4 0 3 31 6 1 0
1532264789525415 0 -6 -22 -19 -38 -19 -2 1
1532264789557347 -1 -3 19 5 -5 8 1 1
1532264789572290 -2 -10 -49 1 21 16 2 -2
1532264789585255 0 5 -20 16 6 1 -2 -1
1532264789632130 -1 -2 -64 13 22 16 2 0
1532264789691969 0 0 14 -22 5 1 2 0
1532264789751810 1 7 8 -1 0 2 3 1
1532264789773774 -6 -14 33 -9 -7 -3 -3 -3
1532264789796690 -3 -4 53 -18 0 2 0 -1
1532264789835586 3 25 39 -6 -8 -5 -1 3
1532264789871490 7 10 32 21 1 1 1 2
1532264789962247 12 29 59 49 9 -58 -15 7
1532264790014109 6 -23 -90 -1 0 30 -11 0
1532264790058989 -2 12 -20 -7 -7 11 -17 -4
1532264790087911 13 -7 94 3 9 -11 -12 0
1532264790120823 -18 -15 -42 -11 -12 3 0 -3
1532264790194626 18 39 -8 -15 -3 -14 -2 11
1532264790231527 5 23 22 24 8 -2 -1 -5
1532264790261446 3 4 -15 2 -4 -2 1 0
1532264790291367 0 -18 -39 -2 18 2 -2 2
1532264790412044 -5 -41 -4 -3 -12 -8 0 -5
1532264790433986 4 17 2 5 -2 0 2 8
1532264790518759 -7 -17 -16 1 -1 1 -2 -2
1532264790653399 2 -5 -3 -2 -4 18 -3 -4
1532264790704263 -11 -20 79 9 -4 -27 -7 -17
1532264790756125 0 12 -16 -5 -3 5 -3 -5
1532264790771084 -2 4 47 1 0 -11 0 0
1532264790794023 -15 35 34 3 0 46 4 -12
1532264790816962 12 78 15 12 4 -3 2 10
1532264790845884 4 49 -11 -5 -1 -6 2 -4
1532264790890774 14 -23 -41 -1 -1 19 2 -12
1532264790923678 2 -2 32 7 3 -2 -1 14
1532264790973547 -2 4 47 1 0 -11 0 0
1532264791011441 14 -12 -20 2 -1 -11 -31 -9
1532264791033383 -4 -6 -40 -25 -7 -20 -10 -12
1532264791070284 -12 13 28 34 1 5 0 -3
1532264791095218 7 13 -25 -64 -20 -3 5 0
1532264791130124 8 -24 11 4 -4 -3 -5 25
1532264791155058 5 -5 15 3 9 2 6 21
1532264791184978 -6 -14 19 -2 3 -4 -4 -8
1532264791236839 2 -1 15 27 6 1 5 -4
1532264791259778 2 1 -4 -17 1 -3 -2 -3
1532264791432316 6 6 7 1 0 -5 -1 1
1532264791477206 6 -1 1 2 -6 -30 7 -3
1532264791505121 0 0 7 4 6 10 27 -1
1532264791550998 -2 2 10 18 7 53 -7 -1
1532264791625799 -11 -12 -8 -2 -4 -30 20 0
1532264791664695 4 -1 -9 -10 1 -22 -20 -1
1532264791760439 0 0 -7 1 -10 -24 5 4
1532264791799335 5 -1 -2 -2 3 10 14 2
1532264791880119 1 -2 -2 0 -4 -3 -2 16
1532264791918017 7 -4 -3 -3 -1 -8 -29 11
1532264791940956 7 6 -3 2 9 -3 0 6
1532264791964906 0 0 5 3 1 4 3 -5
1532264791988828 20 6 -1 -3 -8 -6 1 7
1532264792001793 16 -6 -2 -10 -15 -7 3 -7
1532264792042684 -8 7 21 -1 2 -1 -11 -2
1532264792069612 -18 -20 -10 2 -1 -2 -5 -5
1532264792099532 -4 2 -15 -4 0 0 1 8
1532264792144411 0 -1 -15 -9 -7 0 0 -3
1532264792173335 -1 -6 -11 0 1 0 -2 -1
1532264792188294 1 10 -4 12 4 -1 0 -2
1532264792206247 -3 -8 -12 -6 1 3 1 -2
1532264792245143 2 7 -6 6 -2 -4 -2 1
1532264792295009 2 12 0 4 1 -2 1 -1
1532264792316951 4 -8 -17 -16 -8 -6 -3 3
1532264792353852 -4 0 7 5 1 -2 0 0
1532264792407715 5 0 1 -1 -1 -4 -1 -2
1532264792451590 -3 -11 0 -3 2 1 1 2
1532264792472535 4 4 7 11 1 1 -2 0
1532264792521415 5 12 11 7 5 1 2 1
1532264792527399 -2 10 3 -5 0 -1 0 -1
1532264792572279 13 69 -5 5 3 0 2 5
1532264792617174 4 52 22 -9 -3 -1 -2 -2
1532264792653063 -5 17 0 2 -2 1 -5 -12
1532264792682982 6 18 -15 5 0 -1 -4 25
1532264792721885 -2 1 6 2 1 -1 1 1
1532264792759777 -8 -42 -3 -3 -3 0 -3 -25
1532264792781719 -1 -17 -54 -7 -2 -3 1 4
1532264792796678 -3 12 27 2 -2 -1 -2 -7
1532264792819617 0 12 4 3 1 -2 0 -2
1532264792856518 -7 -10 -2 2 -1 -2 0 -3
1532264792941292 0 -10 -17 -1 2 -3 0 -4
1532264792984177 4 36 -36 -11 -3 -1 0 4
1532264793022076 -6 -26 -38 1 2 2 4 -8
1532264793036038 -1 -1 48 6 0 -1 -2 5
1532264793058977 -1 3 -18 15 2 1 5 -4
1532264793089894 -3 -3 16 -6 -3 -1 3 1
1532264793095878 1 -11 12 4 4 1 4 8
1532264793111836 -1 22 35 -14 0 0 -2 0
1532264793141756 -4 -20 1 -9 -10 -3 -2 -1
1532264793164694 -3 -6 0 10 2 0 0 0
1532264793188666 -1 -5 -25 -21 -1 -3 -3 1
1532264793203636 2 3 -3 -7 -11 -1 0 -1
1532264793239530 4 19 59 22 5 2 0 3
1532264793261471 -2 -3 1 29 -2 -3 -4 -1
1532264793275434 -3 -16 -4 -1 2 0 1 0
1532264793359209 -2 -8 -30 -16 0 1 -1 -3
1532264793389130 -7 -9 -18 0 1 -1 -3 -4
1532264793427028 7 17 33 5 -1 2 1 3
1532264793463930 -5 -5 7 -3 -3 -3 -3 -5
1532264793569647 9 31 45 8 1 -20 4 9
1532264793591588 1 0 0 7 -1 -3 -3 6
1532264793705284 -6 -13 10 -12 -4 6 -7 -35
1532264793711269 -1 -6 33 4 4 9 5 0
1532264793741188 1 3 8 2 -1 -5 7 0
1532264793823967 2 -1 -15 -2 -3 -4 1 -1
1532264793847903 -4 2 17 0 -3 0 1 -11
1532264793943646 -2 -6 -14 -5 -1 4 1 11
1532264794072303 -2 -1 0 -2 -1 -14 -6 -3
1532264794101226 1 6 -2 2 -2 -19 -7 6
1532264794148099 1 -1 -3 10 -5 -69 -15 0
1532264794161066 -3 -6 8 8 5 31 2 -8
1532264794197967 -3 10 -4 -3 1 17 7 5
1532264794220905 3 -6 12 30 9 27 3 0
1532264794280746 5 2 22 3 2 6 3 -2
1532264794317647 6 27 16 -1 0 -3 -1 6
1532264794386463 -3 -1 -24 -9 -3 -5 -1 0
1532264794423381 0 -2 -18 -13 -6 4 -3 -3
1532264794438323 2 4 -10 4 -1 0 -3 -1
1532264794461263 0 27 9 8 2 -4 1 0
1532264794484202 2 26 4 3 -1 2 24 10
1532264794507140 1 14 2 14 7 4 2 -1
1532264794544041 -1 -12 13 -6 5 5 -10 -1
1532264794565982 1 37 18 3 2 4 -2 -1
1532264794592911 3 34 32 -13 -10 -8 -9 -3
1532264794628815 7 -1 -48 -20 -9 0 -2 9
1532264794655745 -2 -11 15 -13 -5 3 -4 14
1532264794682671 -23 -51 -15 -9 -5 48 -1 -97
1532264794702617 -22 -108 -69 -18 -8 -50 -8 -8
1532264794739518 -5 13 39 -22 -4 -15 -1 17
1532264794763455 -3 -1 20 36 13 -14 -13 -13

1532264794808336 -8 -11 -41 5 -7 7 -9 6
1532264794816313 0 24 61 -3 -5 -15 -5 5
1532264794845235 -20 60 -40 6 -2 -17 -40 -94
1532264794918571 -16 -114 26 -1 -9 6 -29 -90
1532264794960460 -4 9 11 2 0 0 13 28
1532264794982401 13 26 -56 58 3 -13 -1 64
1532264794991380 3 0 44 -22 17 4 3 10
1532264795008332 -6 -15 -36 -24 -11 -1 10 15
1532264795026283 6 -17 -15 -10 3 3 2 5
1532264795061189 -3 12 -1 -42 -12 -2 -3 2
1532264795084129 -1 -6 10 12 7 -1 0 2
1532264795121029 -1 5 0 27 6 0 -3 0
1532264795143968 5 -7 6 -6 -4 0 -1 3
1532264795166907 -6 -3 -3 0 -4 -6 -3 1
1532264795180869 3 1 19 74 27 5 1 2
1532264795203808 -3 -6 -10 -34 -5 0 -2 -4
1532264795240710 2 -15 14 -5 -1 0 -2 -2
1532264795263648 11 1 -45 -13 -16 -2 -2 10
1532264795294565 -1 60 11 -5 -4 -3 -1 -5
1532264795300549 -10 -87 -28 -13 -6 -1 0 -2
1532264795323492 5 7 37 -4 -1 -2 -3 -15
1532264795346426 -2 -9 -30 -7 -4 16 3 -14
1532264795368368 -7 -35 -14 3 14 17 -1 6
1532264795407265 32 6 36 -10 -3 -4 0 24
1532264795420230 -13 6 14 6 3 1 0 4
1532264795458128 -6 -2 -8 -5 -1 -2 -2 -21
1532264795489046 4 -8 -31 1 -3 -2 0 2
1532264795504006 -1 -1 -8 1 2 1 -1 0
1532264795526944 -11 -4 -4 0 -3 -1 0 -11
1532264795549892 1 -1 -15 0 -1 -1 -1 2
1532264795563846 -6 1 10 4 -1 -1 -3 -12
1532264795609723 11 9 5 -3 -1 -2 -1 7
1532264795622688 2 -2 -2 -1 0 1 -1 8
1532264795637648 -1 -2 -8 -2 -3 2 -2 0
1532264795669563 -2 -10 2 0 -2 -1 0 5
1532264795692502 -8 -9 -9 -4 0 -2 -3 0
1532264795708459 7 6 -1 2 2 1 2 8
1532264795743366 -4 5 -2 1 0 -1 2 1
1532264795767301 -3 8 -1 -3 -2 0 -1 -2
1532264795789242 -4 -6 -3 0 0 2 1 3
1532264795803206 -6 -1 4 0 1 2 2 -2
1532264795834122 4 -20 -8 -4 -2 -2 0 -6
1532264795863045 -6 -4 0 -2 -2 1 1 -9
1532264795908923 10 0 -2 0 -1 1 1 16
1532264795931861 0 17 0 0 0 0 1 5
1532264795976742 -4 -2 -2 1 -2 -2 -1 -7
1532264796006661 -4 0 -2 -2 -2 -2 -1 -2
1532264796036581 -2 -1 0 1 0 -2 -2 1
1532264796043563 -3 -1 2 0 -17 -6 -1 -1
1532264796089440 -1 -5 -40 0 3 1 -1 0
1532264796103402 1 7 26 0 -9 0 1 1
1532264796127339 -2 -3 5 10 2 3 -1 0
1532264796149280 -1 -2 -5 -7 -15 -16 -4 -3
1532264796172219 -4 -10 -17 -4 -32 -6 -3 -3
1532264796209120 -1 -1 -9 -22 -44 -9 -2 -2
1532264796223082 -1 -7 -12 -1 7 6 1 -3
1532264796254997 0 7 8 19 10 -7 0 1
1532264796282923 2 1 -59 18 5 -2 1 2
1532264796314837 -4 0 52 -12 17 2 -2 -3
1532264796335781 2 1 -35 16 -18 11 0 1
1532264796434517 -4 -18 -90 -36 -3 7 0 0
1532264796479398 1 9 17 -3 -1 -7 0 1
1532264796523280 -1 6 10 2 -4 6 0 0
1532264796546218 -4 -14 9 -8 14 4 -2 -2
1532264796592096 -10 -26 -50 -6 -9 -12 -2 -2
1532264796635979 5 9 -7 -22 -11 38 2 1
1532264796644954 -15 -42 -35 -24 0 -14 -2 -3
1532264796689834 -8 -12 -31 -7 -1 13 -1 -5
1532264796719755 7 11 -8 3 0 15 5 -2
1532264796795551 3 -7 -55 -10 -6 -20 -11 -1
1532264796846416 -3 -5 -4 -2 9 4 -2 -7
1532264796937173 2 1 15 3 2 12 1 3
1532264796974091 -9 -24 -40 -18 1 -10 -4 -4
1532264797011973 2 7 16 5 9 2 -4 -1
1532264797032917 -12 -5 -8 -4 2 14 1 4
1532264797274272 -3 -2 -2 -1 -6 -4 -2 -7
1532264797312188 -1 0 -4 0 -6 -2 -2 1
1532264797363053 -2 11 -24 -2 0 -2 0 -9
1532264797415912 10 -11 8 -20 -12 -4 -5 22
1532264797440862 -45 -15 -1 -1 2 4 3 -24
1532264797476749 6 62 -18 -2 -3 -1 -1 11
1532264797497693 -2 -13 15 -5 -4 -28 -2 5
1532264797552546 6 -15 6 -1 -2 2 -1 -3
1532264797603410 0 -41 -37 4 2 38 0 -9
1532264797648290 -4 -52 -68 -8 -5 -28 -2 3
1532264797717106 3 -40 -16 -19 -7 6 0 -11
1532264797738050 -13 9 15 3 2 12 1 -7
1532264797776945 -7 15 -1 -2 -1 23 -2 -8
1532264797828807 -4 20 -28 1 1 -10 -1 33
1532264797887650 0 -32 43 0 2 -5 0 -2
1532264797919564 -5 -7 27 -3 -3 -7 -3 -5
1532264797980402 -11 -47 15 53 10 -6 -1 -1
1532264798024299 -7 -58 7 -12 6 5 1 0
1532264798054205 2 12 26 -9 -2 -2 -4 20
1532264798092103 2 3 -3 10 3 2 -3 -11
1532264798128007 6 15 -1 10 31 14 2 0
1532264798144962 -5 -6 2 13 3 0 0 -2
1532264798219762 -7 -8 -7 3 25 8 3 -5
1532264798272621 0 1 -8 -37 -8 3 -2 -3
1532264798330466 3 0 0 12 2 1 2 0
1532264798391303 -13 0 3 -2 5 2 0 1
1532264798420226 -21 -19 -1 7 9 1 0 -3
1532264798474091 -3 3 2 -3 -5 0 -7 -2
1532264798510983 -17 -5 -5 -4 3 -2 -9 -4
1532264798533922 -18 -4 6 23 1 -4 -26 -1
1532264798564839 17 0 -8 -5 4 -2 -1 -2
1532264798594759 14 -9 -7 -12 -4 9 38 18
1532264798624683 -11 0 -3 0 6 -30 -85 -14
1532264798676540 0 -4 1 -6 -8 0 7 -4
1532264798738376 -14 -15 -22 -14 -5 6 41 -1
1532264798810183 3 7 9 6 2 5 -8 2
1532264798834119 -8 -8 6 3 -6 -5 -6 -4
1532264798871020 3 -1 12 -4 -10 -6 6 -6
1532264798916897 -11 -3 -11 -10 -9 -8 -19 -10
1532264798939836 3 0 24 12 33 21 34 4
1532264798954796 5 -5 3 3 15 5 17 0
1532264798976738 -11 -2 -20 -12 -31 -9 -10 -5
1532264798990706 10 13 45 -2 6 8 0 4
1532264799074476 -8 -16 -17 8 3 5 27 -5
1532264799096418 0 -8 -8 -2 -6 -4 -6 0
1532264799127336 2 -2 -5 7 -4 -4 -6 -3
1532264799233053 -3 0 -5 -5 0 3 2 1
1532264799241030 -1 -9 -9 -11 -3 -1 -1 -2
1532264799253996 -2 2 10 9 1 -2 2 6
1532264799306870 -10 5 11 -2 1 4 3 -1
1532264799345751 0 -12 -8 3 -2 -3 -4 -1
1532264799352732 -6 -5 -28 17 -3 -7 -3 -5
1532264799397612 -1 -7 1 4 4 1 -2 -2
1532264799420550 2 3 5 4 0 6 4 3
1532264799458465 -3 -5 -3 -6 -3 -4 -4 -3
1532264799510329 2 19 5 -2 3 4 -3 3
1532264799563184 -3 -54 -7 7 0 -6 -6 5
1532264799615046 0 -24 -13 -6 -1 0 -3 2
1532264799636987 1 2 -31 -3 2 0 0 3
1532264799674885 -7 -18 13 8 0 -4 -5 -3
1532264799719765 0 -47 -23 -2 -3 0 -3 20
1532264799770629 -4 -22 15 -7 -2 -1 -6 -37
1532264799800550 5 -1 -3 2 0 0 0 10
1532264799809533 10 12 -14 1 0 0 2 6
1532264799846426 4 -15 -11 2 -1 -1 -5 6
1532264799862384 4 21 8 1 -1 -2 -7 1
1532264799877343 -1 -5 -34 3 -3 -2 1 2
1532264799899285 6 15 3 -3 0 2 40 6
1532264799914245 -2 -2 -47 2 4 6 5 -8
1532264799973088 0 -48 52 8 8 -3 -9 -2
1532264800049883 5 -11 -5 7 3 6 4 -5
1532264800100746 -1 -8 -15 -8 -4 0 1 1
1532264800124712 4 0 -9 -5 -4 -1 2 -1
1532264800146624 -2 -9 1 -3 3 4 2 1
1532264800161584 6 -1 -9 -55 -43 -7 0 -1
1532264800202474 2 17 15 -33 22 21 1 2
1532264800208459 -2 -4 -18 10 -21 -19 -3 2
1532264800252341 -9 -20 13 -5 6 19 -4 -5
1532264800269296 3 13 -14 1 6 -11 0 0
1532264800281264 5 6 -21 -4 -13 -1 -2 1
1532264800341104 -8 -25 -21 -17 -8 -2 -3 -6
1532264800379003 -9 0 9 -15 -5 16 -2 -5
1532264800430864 5 9 8 1 -3 -6 -1 2
1532264800475744 -3 -10 -10 -15 -4 4 3 -3
1532264800529600 5 6 3 -7 0 -3 -5 -1
1532264800589440 0 -6 3 2 -2 0 -1 -2
1532264800641303 3 6 19 6 2 -5 -1 3
1532264800679199 -10 -18 -13 -15 -9 20 4 -3
1532264800739040 21 39 85 19 4 23 3 8
1532264800775941 -2 -10 13 7 3 -8 1 19
1532264800820821 11 21 17 3 4 3 -1 -5
1532264800978400 2 -4 -31 -3 0 3 3 11
1532264801038240 2 10 -2 -2 1 -2 0 -1
1532264801099077 7 9 -26 4 9 9 -4 3
1532264801158917 -10 -2 -5 -10 4 -14 -14 -9
1532264801301536 4 11 4 -3 -6 -3 -9 -3
1532264801361375 1 19 7 -11 -12 -6 -4 0
1532264801452132 -5 -15 -34 0 -11 -2 -1 -1
1532264801488037 0 -14 -23 2 4 0 3 2
1532264801549871 1 -2 -71 -2 0 4 -2 -1
1532264801564832 -4 6 0 -4 -4 0 1 0
1532264801578794 -9 12 31 0 -1 3 -4 -1
1532264801615696 6 19 -11 0 1 -1 -1 0
1532264801639632 3 17 40 -3 -4 -2 -3 -1
1532264801661573 1 -13 10 8 10 7 3 -2
1532264801684511 -2 -44 20 -5 -6 -1 0 0
1532264801698475 0 -2 -11 -2 -2 -1 -2 0
1532264801737369 -2 1 -28 -2 1 -2 -1 0
1532264801744352 0 0 -7 0 2 1 2 -5
1532264801783247 -15 -15 -53 -6 -4 -5 -2 -4
1532264801788244 6 -18 -39 -3 -1 -20 -1 9
1532264801826133 -22 55 39 7 8 51 -5 -17
1532264801841093 -2 -28 55 1 -1 6 4 28
1532264801872010 9 -7 -18 -6 -2 -23 -9 5
1532264801894949 6 8 -86 -40 -14 -14 -5 17

1532264801924869 2 -6 -26 -3 -7 -8 0 1
1532264801946810 3 -2 -25 -8 -4 -8 -1 6
1532264801960773 -5 -11 -21 -7 4 0 -1 -2
1532264802008644 -18 -9 -21 13 0 -30 15 23
1532264802022608 -46 12 102 0 -2 8 -11 63
1532264802029589 27 14 -56 12 1 -16 80 -51
1532264802051530 -3 26 39 7 1 -32 -20 15
1532264802066490 3 -36 -54 -18 8 19 -7 -4
1532264802111370 -9 -28 -9 -49 -47 -33 -5 -20
1532264802141290 0 0 1 -11 -4 -7 -4 4
1532264802165226 -4 -8 4 25 0 1 -2 -2
1532264802178191 1 3 -19 -22 -21 2 11 0
1532264802224081 -3 2 -11 16 2 -3 -6 3
1532264802247007 -6 10 56 73 18 1 0 4
1532264802260970 15 -1 -49 -37 -30 -6 -3 -5
1532264802283909 -8 -12 14 -38 -19 -3 -4 0
1532264802306847 -3 1 -40 -8 1 -2 -1 -3
1532264802344746 5 -3 -10 16 40 9 3 -1
1532264802366687 -2 -12 -3 -9 -13 -3 -3 1
1532264802372671 1 -22 -19 2 -13 -4 -6 0
1532264802404586 -10 -3 -16 -39 -48 -8 -1 -10
1532264802426527 -2 11 20 6 -2 -2 -6 0
1532264802449466 -4 -3 3 25 10 -1 3 23
1532264802472405 -30 -7 -3 9 4 1 0 -44
1532264802500330 -7 -11 0 3 5 1 -5 -33
1532264802547205 -10 -5 -30 -5 0 -3 -3 -4
1532264802569146 8 -14 75 11 -4 -4 3 19
1532264802586116 -1 -16 -118 -12 -1 3 3 8
1532264802621007 -2 0 -47 -3 -4 3 -1 -21
1532264802643946 8 3 37 0 -3 -1 1 -1
1532264802674863 -12 29 109 5 1 -2 -7 -42
1532264802704783 30 8 -3 3 2 3 5 31
1532264802726724 -4 -11 2 2 2 -1 0 -16
1532264802749664 -1 -1 -6 0 -1 0 -2 11
1532264802786564 -1 -8 19 -1 0 1 0 9
1532264802800527 -1 0 -13 -4 -3 0 2 3
1532264802824463 3 -2 -1 -1 -1 -4 -3 -3
1532264802847402 -8 -14 -7 1 -1 -1 -1 -1
1532264802877331 0 -9 -1 -1 0 1 -2 -13
1532264802886298 -6 -9 6 -1 0 -1 -1 -5
1532264802916233 -1 -8 -1 -2 -2 0 -1 -8
1532264802929183 -15 -10 -2 0 -4 -5 -6 -24
1532264802946138 2 -6 -33 4 23 8 -1 2
1532264802968096 -3 -16 21 13 20 10 0 -3
1532264802996015 1 -11 -8 -12 -32 -13 -3 0
1532264803029914 1 5 7 5 25 2 1 2
1532264803048862 -2 -8 -17 -21 18 -1 -1 -4
1532264803092745 3 -3 -18 23 39 -3 9 5
1532264803116706 0 6 8 -20 -29 -11 -9 -2
1532264803146626 -5 -8 -2 -21 15 -7 -5 -2
1532264803183527 1 5 -14 -24 5 -4 -3 -3
1532264803229404 2 5 -15 -6 -19 -10 -4 3
1532264803252343 6 6 16 4 19 4 2 9
1532264803303207 0 -16 -11 4 8 2 4 9
1532264803349090 -3 -12 -10 -10 11 3 0 -2
1532264803416903 -10 1 -20 -3 0 -5 -2 -5
1532264803439841 9 32 89 14 5 3 1 2
1532264803491703 16 37 79 15 13 3 2 2
1532264803529601 -3 -6 36 -11 -6 1 1 7
1532264803542567 6 17 -3 0 1 5 0 0
1532264803612380 -10 -7 23 1 0 -6 -7 -14
1532264803642308 -8 -6 -68 -8 4 4 -1 -3
1532264803663244 -9 -11 -13 -4 -7 -23 -7 -15
1532264803709121 -8 2 -43 -19 -4 23 1 -44
1532264803747020 -10 -22 7 1 -1 -4 0 -10
1532264803768961 -11 45 3 0 0 -10 -4 -20
1532264803830796 -16 -48 9 1 -6 1 -1 -17
1532264803859718 -16 -12 8 2 2 1 -4 -14
1532264803896620 -11 -54 -2 4 3 -2 -10 -33
1532264803919559 -34 -75 -17 -15 -15 -15 -7 82
1532264803949479 11 13 8 1 -1 -1 1 25
1532264804017297 -5 -52 -8 -1 -8 -3 0 15
1532264804085116 7 19 51 56 10 0 2 3
1532264804114039 -2 19 -4 2 0 -1 1 10
1532264804152935 -12 1 7 -3 1 -2 0 -15
1532264804172881 -6 5 7 5 2 -1 0 -9
1532264804211777 30 34 -20 0 0 -2 6 59
1532264804226737 -8 -11 -13 2 0 2 -1 -10
1532264804287575 0 -8 -29 -3 -2 -4 -2 -14
1532264804302535 -4 -7 12 4 1 -4 -1 -13
1532264804319489 -5 7 -8 -19 -4 -3 0 -12
1532264804339436 5 1 -3 -15 -9 -3 -2 -1
1532264804377334 -9 12 7 -10 -3 2 -2 -22
1532264804399276 -1 -15 -30 -4 -2 -3 1 3
1532264804414235 22 8 9 -11 -2 5 0 4
1532264804429195 -7 -18 8 -10 -3 0 -3 1
1532264804465099 -27 45 -21 -1 -1 0 1 0
1532264804503996 5 12 10 -3 0 3 -1 -11
1532264804549873 -2 19 7 2 1 -1 1 -1
1532264804579793 5 -25 -86 -19 0 2 3 4
1532264804631654 -3 0 33 13 2 0 2 5
1532264804654593 -2 -11 -1 -9 -5 -3 1 -7
1532264804692497 -1 9 -68 26 1 -1 -2 -1
1532264804728396 -4 4 47 -7 8 2 0 3
1532264804782251 2 3 4 4 8 -1 0 -3
1532264804835110 3 6 17 -8 -5 -4 1 6
1532264804858063 3 8 12 28 2 1 -2 -3
1532264804885974 2 3 11 2 2 -1 1 0
1532264804931852 -5 -2 30 -6 -5 -1 -2 -2
1532264805096412 1 -1 -3 12 16 3 2 -1
1532264805194167 -3 -1 2 -20 -14 -6 -3 -4
1532264805464427 1 1 0 -8 1 -3 -5 -2
1532264805524275 7 -1 -5 -4 -3 -7 -10 -1
1532264805599067 -1 2 7 6 3 9 5 0
1532264805636966 15 2 12 5 1 21 14 4
1532264805673871 -3 -8 -9 -4 -2 -1 -9 -1
1532264805711780 0 0 1 -1 -2 7 7 2
1532264805771606 0 1 3 1 -2 -19 -9 -1
1532264805854385 -8 -5 4 2 -2 -9 -11 0
1532264805891286 0 -1 -2 -4 0 -2 4 -2
1532264805914225 -3 3 2 3 17 19 -23 -4
1532264805944145 -1 4 0 -3 -5 0 -4 -4
1532264805965089 -8 -5 -9 -1 -3 -9 4 -4
1532264805996006 10 10 17 -6 -6 -1 7 6
1532264806017948 -9 -15 -10 -17 -8 -3 -2 -2
1532264806062827 2 17 5 13 10 0 5 0
1532264806101724 2 14 -5 2 3 0 3 5
1532264806131644 5 20 8 2 -1 1 6 10
1532264806192481 8 21 12 2 2 -1 -2 2
1532264806230379 -6 -14 0 4 0 1 -2 -5
1532264806250326 -6 7 -1 1 1 1 2 0
1532264806267281 2 3 3 -1 0 0 1 0
1532264806304182 3 -13 -8 -4 -5 -3 -5 -2
1532264806343078 -4 -9 -11 -6 0 -2 -1 -1
1532264806357041 8 1 -10 -4 0 1 -4 0
1532264806379979 0 -5 -9 -12 -9 -2 -4 1
1532264806393942 2 7 3 1 -2 2 1 1
1532264806430844 6 8 3 1 -1 -1 1 1
1532264806498662 -5 -19 9 9 4 1 -1 -3
1532264806508635 0 1 15 -1 -1 -1 -2 1
1532264806560497 -12 -9 -12 -1 0 -2 4 -15
1532264806584433 -2 63 10 -6 -2 -2 5 -8
1532264806612358 -11 -26 -35 0 2 -2 5 3
1532264806634299 7 30 8 -3 -3 1 0 17
1532264806656241 3 20 76 -4 -2 0 -2 4
1532264806663222 -1 6 -7 -4 -2 1 -4 -23
1532264806724064 -5 -25 19 -4 -2 -1 -4 -16
1532264806761958 -4 -3 1 1 0 -1 -6 -12
1532264806829777 3 -10 1 -5 5 -2 -8 3
1532264806872661 -3 -42 -49 1 0 2 -4 -2
1532264806920534 9 -5 41 -22 -7 -4 1 3
1532264806926518 -3 0 -7 15 10 4 3 2
1532264806980374 2 24 32 -17 3 0 -2 -6
1532264807017275 -1 -9 -7 42 5 0 4 0
1532264807048193 3 -2 4 3 -4 -6 0 3
1532264807092076 2 13 -2 -7 -5 -2 -1 2
1532264807113020 -8 -9 -20 20 5 -1 0 -4
1532264807158897 -7 -23 -20 -25 -5 -2 0 -5
1532264807180850 -5 -18 -10 -12 5 -1 -3 -1
1532264807203776 -5 -10 -27 1 6 1 2 1
1532264807243670 0 -3 7 -7 2 1 2 -1
1532264807303510 -2 -9 -12 -2 0 -8 -3 -2
1532264807338416 5 9 24 -6 -3 -12 2 2
1532264807444134 -2 -26 -35 -4 -4 -2 -5 -4
1532264807459094 1 -4 7 1 5 -14 4 2
1532264807543868 -7 -20 -22 -4 -3 -8 -8 -6
1532264807594731 -10 4 -6 -5 1 21 38 4
1532264807698454 -5 -11 30 6 -1 11 1 -4
1532264807758307 0 -7 -21 4 1 -2 -5 17
1532264807856031 -2 2 12 -3 -1 2 3 -7
1532264808023584 1 -2 -5 3 -6 -12 -6 1
1532264808074449 1 4 0 2 -7 32 5 3
1532264808127307 0 -2 5 -3 0 4 6 1
1532264808262944 6 9 23 -1 -10 13 19 11
1532264808298849 -4 -28 4 -6 -4 2 0 2
1532264808335749 3 23 -76 -44 -28 -7 -2 -2
1532264808398582 -2 -26 20 -9 -5 -4 -3 -1
1532264808448448 3 1 16 0 -1 -1 1 2
1532264808503301 7 -8 11 -1 -1 0 -2 2
1532264808515269 -4 -6 -13 -3 -4 -8 -6 20
1532264808564138 10 8 -51 7 -3 1 -1 1
1532264808616997 13 29 69 -3 5 -7 8 10
1532264808639937 -5 -1 1 76 25 1 0 -38

1532264808681824 -11 -20 -2 -31 -14 -13 -2 -16
1532264808719723 -6 18 59 5 -3 -1 1 -7
1532264808743659 15 47 -30 7 12 -24 -11 25
1532264808765600 49 -14 -54 4 8 21 -3 82
1532264808780561 -2 -11 -95 -14 -3 -8 11 21
1532264808831424 -19 -46 112 -10 -35 -18 -3 -1
1532264808846384 -7 -13 25 -2 -15 6 4 -12
1532264808893263 -3 -18 -33 -3 -4 -4 -1 0
1532264808922181 -1 -20 -38 -10 -25 -10 -4 -2
1532264808952101 -9 -8 -26 -25 -11 -10 -4 -11
1532264809006954 7 -23 -30 -32 -4 0 -17 -10
1532264809026901 -1 -15 0 -2 3 -38 -4 -11
1532264809079760 -2 2 -11 16 -1 -2 -2 4
1532264809086741 4 2 -3 8 -7 -5 -1 1
1532264809110677 -6 -3 -3 12 -17 -4 -1 -3
1532264809133629 -2 -4 3 14 15 6 3 0
1532264809184479 21 50 15 3 -18 3 5 38
1532264809198442 -3 4 73 2 32 10 2 -4
1532264809244320 -8 -30 -31 8 12 -1 3 7
1532264809282218 -4 9 18 2 -10 4 -5 -38
1532264809304160 -12 -1 35 -18 -65 -10 -2 31
1532264809318122 -12 -10 -38 -7 90 33 7 5
1532264809349040 3 -17 -12 -3 -21 -8 2 -10
1532264809385941 13 15 1 13 -4 -10 -2 22
1532264809409877 -4 -8 -3 4 3 -8 -3 -6
1532264809446778 2 7 0 0 -4 -4 -2 -4
1532264809461738 -9 6 5 1 1 -2 1 -8
1532264809484677 15 2 1 2 -1 -2 -3 4
1532264809506629 3 4 2 2 2 -1 1 -13
1532264809520581 -3 -2 3 2 -7 -2 -1 17
1532264809544517 -7 1 -3 -1 1 -2 -3 -8
1532264809566458 -4 -3 0 -1 -1 -2 -3 -9
1532264809604357 -1 -6 -6 -3 0 -1 0 -2
1532264809618320 -4 -1 4 3 10 3 0 -3
1532264809627302 -2 -12 -38 -5 -13 -6 -2 -1
1532264809664197 -2 8 23 4 -18 -4 -2 -4
1532264809687137 2 5 2 11 -13 -3 -1 2
1532264809724043 3 10 20 -8 -50 -19 -3 -2
1532264809760938 -5 -2 -22 -5 -46 -14 1 -2
1532264809784875 -4 2 -15 -12 -3 -4 -4 -1
1532264809797840 1 -4 -20 -5 9 -5 -2 -1
1532264809814794 1 -5 -22 -23 -27 11 1 2
1532264809844715 3 -4 -11 21 32 11 3 1
1532264809866655 2 4 4 2 27 3 -2 -1
1532264809881616 2 2 -3 21 99 38 4 2
1532264809904554 -9 -16 -9 -30 -69 -13 -5 -7
1532264809927501 2 -11 -3 -32 58 18 0 3
1532264809948437 -5 -7 -13 21 2 5 3 0
1532264809966388 -1 5 -14 3 -4 -16 -2 -2
1532264810001295 -2 2 13 -1 -19 5 0 -1
1532264810061135 -5 -13 19 -6 -6 -4 -2 -3
1532264810077093 5 -2 -40 -2 -4 3 0 2
1532264810120975 -15 -38 -36 0 -20 -11 -5 -7
1532264810144912 1 12 9 -5 -3 -2 0 2
1532264810189792 10 30 61 20 16 5 3 0
1532264810204751 5 0 -20 10 -3 3 0 3
1532264810226692 0 1 -34 3 0 3 1 -1
1532264810240663 -10 -26 -40 -19 -4 9 0 -3
1532264810264592 -5 -2 38 30 1 8 -1 -2
1532264810300495 3 17 48 -22 -10 -11 -2 -2
1532264810346373 -2 -19 -78 -7 5 3 -2 1
1532264810360335 -13 -16 -12 -10 -4 -25 0 -8
1532264810444112 -8 -26 -30 -21 12 -7 0 -4
1532264810467050 0 30 114 5 1 8 -2 0
1532264810533872 5 17 13 7 -3 3 3 3
1532264810683471 -5 -21 -5 -7 -7 3 3 12
1532264810750293 -5 -19 -5 -1 2 -2 0 -8
1532264810784203 -5 54 -3 0 2 4 1 -6
1532264810797168 -12 -73 -4 -2 3 1 0 -5
1532264810810133 0 12 11 3 1 3 0 -4
1532264810849028 8 27 0 2 -5 -2 -1 -3
1532264810923829 1 33 7 -3 -1 -1 -1 0
1532264810961727 0 18 3 5 1 -1 0 -1
1532264811016596 6 5 0 5 4 16 4 31
1532264811043508 5 0 7 1 -3 0 -1 -19
1532264811076425 6 -4 9 2 3 2 -1 -7
1532264811119306 2 -12 -20 -7 -4 1 3 0
1532264811163189 0 27 -13 -4 -2 0 -1 -8
1532264811186127 -1 16 8 -4 0 5 1 0
1532264811239983 7 -1 -10 -1 -4 -5 -2 -2
1532264811276885 -1 1 6 3 0 -1 1 15
1532264811314783 -3 -10 -8 -1 0 1 4 0
1532264811329743 -6 34 -7 -4 -5 0 -3 -1
1532264811380607 5 27 42 16 16 4 0 0
1532264811403545 -4 23 29 -8 -7 -3 0 -2
1532264811465380 3 25 41 -36 -15 -1 1 6
1532264811487333 -1 4 -6 -1 2 1 -2 0
1532264811509263 -1 4 -45 -8 2 1 -2 -1
1532264811523226 -3 -11 7 -4 0 0 3 0
1532264811553146 -2 1 26 42 1 0 -4 -6
1532264811606004 0 1 23 -19 -8 -2 -3 -2
1532264811612986 -3 -4 -7 -21 -11 -1 -1 -1
1532264811651892 2 2 -2 10 6 3 0 -1
1532264811672826 -1 8 25 -3 2 -1 -2 1
1532264811719701 -9 -1 -5 9 7 2 0 -2
1532264811749621 -5 0 2 -21 -7 -2 -1 -2
1532264811786522 3 -1 -2 -12 -3 -6 0 3
1532264811793503 0 -1 1 7 13 6 0 -1
1532264811846361 -1 6 -2 -1 1 1 3 0
1532264811869301 14 4 1 11 5 1 1 2
1532264811906202 -1 1 11 -11 -3 2 4 -1
1532264811967039 0 4 -13 -2 2 4 4 -7
1532264811995962 10 1 3 1 12 -9 -24 -1
1532264812020897 -22 -5 -9 -7 4 11 -4 -2
1532264812079738 17 0 16 18 9 10 7 3
1532264812176479 4 -4 -29 -7 -3 -18 -5 -4
1532264812214389 -4 -6 14 -6 1 24 -7 -4
1532264812265242 4 1 12 -2 -1 -9 -2 0
1532264812289177 10 -1 -49 -3 0 9 -1 -2
1532264812356996 -14 -7 25 -6 4 -18 -14 -2
1532264812438777 3 -28 -10 11 -13 -8 1 -10
1532264812499615 11 17 4 19 -9 -4 3 7
1532264812514575 4 15 37 5 3 -1 3 -1
1532264812678137 10 9 -12 -3 -2 6 3 37
1532264812702073 -1 -10 2 5 3 -1 0 8
1532264812726010 7 13 -19 -11 -2 1 -3 -1
1532264812769892 5 5 -9 -4 -4 -3 0 -1
1532264812783855 3 8 -5 4 1 4 0 7
1532264812814772 8 -1 -12 0 3 1 4 3
1532264812828735 -4 -13 -5 3 -3 -6 -5 -3
1532264812842697 1 -21 -17 -9 -1 0 0 1
1532264812877604 2 -4 -3 2 -2 -1 -4 1
1532264812914506 -3 -6 -6 -3 1 3 1 -4
1532264812944426 11 19 16 14 -1 0 -3 2
1532264812957398 -5 0 -6 -4 0 0 1 0
1532264812993295 5 -38 -3 4 0 -2 -3 -1
1532264813017231 -2 34 18 3 0 -1 -3 -2
1532264813054132 1 24 6 7 1 -3 0 -3
1532264813100009 -2 6 -70 0 1 1 -2 -3
1532264813129941 -2 -15 -7 -2 -2 -2 -3 0
1532264813145902 -1 -57 -12 -3 -1 -1 -1 6
1532264813181797 1 37 -23 6 -1 0 2 -11
1532264813210713 -9 8 51 -1 -1 0 -1 36
1532264813241631 0 -15 50 -13 -4 -1 -1 -3
1532264813257588 -21 -62 1 -3 -3 -23 -1 -48
1532264813331390 5 -15 -14 4 1 -6 0 -16
1532264813406191 -2 -27 21 2 -4 7 8 1
1532264813444089 -8 -11 -5 -9 -3 -8 -11 -3
1532264813459049 -1 1 -35 -13 -3 -4 -9 1
1532264813474013 1 -4 12 -4 -2 1 -4 4
1532264813533849 -3 1 -15 -6 -11 -4 -3 -2
1532264813555790 -2 -2 -14 5 6 1 2 2
1532264813593689 0 1 60 -2 -8 -9 0 0
1532264813624607 2 9 26 47 12 2 -1 -1
1532264813646548 -3 -11 -2 -25 -14 -4 -1 -1
1532264813691428 -3 -10 14 25 12 4 1 -1
1532264813736308 -5 -19 -35 -26 -1 2 1 0
1532264813773209 6 12 9 -7 -7 -2 1 1
1532264813855988 6 13 12 10 6 1 0 0
1532264813870947 1 3 8 1 -2 -2 0 1
1532264813925802 4 7 2 -3 -2 -1 1 0
1532264814013566 4 10 30 -30 -1 2 -3 0
1532264814112302 6 12 75 12 1 -5 -5 -2
1532264814230985 2 13 14 24 4 6 8 8
1532264814268884 -2 2 -25 -14 -4 4 3 3
1532264814351663 6 6 42 21 2 -1 4 14
1532264814592020 6 7 24 -2 -1 3 10 15
1532264814720675 5 -9 -3 4 14 -11 2 19
1532264814757586 3 0 1 7 11 2 2 11
1532264814795476 2 -1 -10 -2 2 10 -2 3
1532264814853321 -1 -3 -3 -10 -9 2 1 1
1532264814899198 4 14 9 -2 2 -1 0 2
1532264814953054 3 -8 -2 1 -5 -3 1 1
1532264814996937 -2 9 -20 3 2 1 0 1
1532264815020873 -1 2 -38 0 2 0 1 0
1532264815079716 2 12 16 2 -1 3 0 1
1532264815108651 1 -11 48 1 4 0 1 1
1532264815161497 0 0 -3 1 3 3 -3 -3
1532264815191417 -2 4 2 6 -2 -1 0 -3
1532264815223333 -4 -9 46 -6 -6 -3 -2 -1
1532264815238291 3 3 -66 11 6 -1 7 3
1532264815259236 30 37 -77 -3 12 48 32 -2

1532264815387891 -10 -14 -73 -11 1 -9 -21 -8
1532264815402851 -1 -2 -6 -32 -23 2 -2 -15
1532264815439752 51 94 29 18 18 17 19 -65
1532264815523529 -25 5 44 -36 -13 -9 -5 -4
1532264815552460 -10 -14 -24 -67 -14 -27 5 6
1532264815566414 -2 -25 -66 11 11 -10 -8 4
1532264815619273 -1 -53 -59 53 25 3 3 2
1532264815642211 -7 24 -1 -66 -29 -16 -1 -5
1532264815687091 -7 -7 -26 -57 -19 -3 -2 -4
1532264815702051 6 6 22 -43 2 3 2 4
1532264815716014 -16 8 15 13 9 0 1 -2
1532264815738953 14 3 6 32 0 0 4 6
1532264815775855 -4 7 -8 -1 0 2 1 -3
1532264815799790 -2 9 -6 3 8 -1 0 -1
1532264815844670 -2 -9 -17 4 5 -2 0 0
1532264815881570 -5 0 12 6 -17 -5 -3 -3
1532264815904521 -1 0 9 0 -2 3 1 -2
1532264815921465 0 32 -18 -9 -7 -5 -1 3
1532264815943406 -2 14 -5 6 -6 -1 -2 1
1532264815964350 12 3 25 -6 1 1 -1 61
1532264815981304 -27 -8 15 -1 2 -3 5 -87
1532264816019203 15 0 20 -3 0 -2 2 20
1532264816062088 12 43 -8 -3 -7 -4 2 33
1532264816098990 -2 -6 -3 1 -4 0 -1 -10
1532264816121928 -5 -26 -12 -1 -2 -1 0 -3
1532264816143870 -5 -12 -12 1 -9 1 3 3
1532264816165825 -2 -7 -16 2 -6 -1 1 0
1532264816204706 5 9 16 4 0 -4 0 -4
1532264816264547 -2 3 -26 0 -3 -7 0 0
1532264816301448 -7 14 -18 -14 0 1 0 -2
1532264816368270 5 13 13 -7 0 6 0 2
1532264816378243 -2 5 7 -22 -28 -12 -4 -2
1532264816435091 3 -5 0 -3 0 -3 -3 -13
1532264816467005 -3 8 -12 12 9 5 3 4
1532264816495929 -3 3 33 84 51 10 7 0
1532264816534824 0 2 -1 -4 -2 2 -1 6
1532264816564744 0 1 -7 18 6 -3 -1 -1
1532264816609624 -2 7 79 -13 -24 0 3 -2
1532264816638547 -3 -3 4 6 -21 -11 0 -1
1532264816752243 1 0 -6 6 -5 9 5 -3
1532264816804104 0 -1 6 7 2 5 3 2
1532264816827042 3 1 -7 1 -3 -4 0 -2
1532264816863945 3 3 30 32 17 2 1 -1
1532264816877907 -1 -6 -21 -20 -5 0 -3 -2
1532264816924782 -1 13 41 -2 -4 4 1 -6
1532264816937746 2 -9 -28 1 2 3 -1 -1
1532264816946723 10 16 -19 20 9 38 4 5
1532264816970659 8 17 -67 15 1 -13 11 4
1532264816985618 -9 -35 7 -3 -12 -13 -8 -6
1532264817014541 -15 -37 -58 -33 -15 -80 -12 5
1532264817044462 8 8 14 -7 -22 -66 4 -5
1532264817058424 -32 -58 -115 -21 0 105 10 -9
1532264817142201 -8 -4 91 12 8 -13 18 4
1532264817252905 -1 13 15 -4 -5 90 15 -9
1532264817284818 0 -13 -8 -8 -7 10 1 -11
1532264817435416 19 6 2 -3 -7 -4 -6 -4
1532264817448381 4 7 2 0 -2 0 -2 -12
1532264817525176 1 -14 -30 -19 -7 4 0 9
1532264817561080 2 15 -2 9 -1 1 4 2
1532264817584018 -15 -26 28 8 -2 4 4 20
1532264817599976 9 17 19 4 5 2 7 12
1532264817696718 8 -21 4 0 -3 -5 -4 -14
1532264817764536 -8 35 30 2 -2 0 -4 21
1532264817786477 -19 -7 -13 7 -2 -2 -3 -31
1532264817809424 3 -46 18 1 1 4 5 -29
1532264817847315 -25 -27 7 -4 -2 -10 5 -89
1532264817877235 -18 -13 -6 -4 0 8 13 -10
1532264817914136 -3 0 79 5 -1 8 -8 14
1532264817954030 -26 24 -5 1 -1 -5 -1 8
1532264817980957 16 42 65 39 -1 -3 0 15
1532264818011874 1 -14 -111 -51 -30 -8 -3 -2
1532264818086674 -3 -13 -5 -6 -9 -3 -5 -9
1532264818124573 1 29 15 3 7 7 1 8
1532264818160476 -9 -29 1 -4 0 -3 -1 -9
1532264818207363 0 -4 -11 4 21 11 15 11
1532264818229296 -4 4 -12 -31 -12 -4 2 2
1532264818267195 1 -2 -7 -28 -7 -2 -3 -3
1532264818348973 -6 -1 5 16 7 -2 -1 -4
1532264818446712 7 -9 -7 4 1 1 -6 -6
1532264818483612 -7 0 13 1 -5 -18 -7 -8
1532264818506551 -2 0 -2 -1 2 -11 -7 -2
1532264818567389 6 3 -1 -7 0 13 16 -2
1532264818687069 -1 -3 -24 15 12 54 18 5
1532264818746909 4 2 -3 -5 -6 -55 -17 -2
1532264818806749 3 5 3 6 3 7 6 0
1532264818842653 -9 -2 -5 -8 -2 2 -8 -4
1532264818972306 -7 -7 -3 -1 -6 -2 -5 -3
1532264819010221 3 1 -8 -10 4 -14 -1 13
1532264819069047 0 -9 -20 -9 -2 2 -5 -8
1532264819235602 3 -4 -30 -14 -1 4 1 -5
1532264819257543 -1 -6 -13 -15 -8 -3 -8 -2
1532264819286466 -9 -11 2 7 2 1 2 -2
1532264819310401 -9 -6 5 11 5 4 -1 -4
1532264819338328 -1 8 -3 -8 2 2 1 3
1532264819438061 2 -15 -14 -9 -4 0 -3 0
1532264819480946 -8 -12 -7 1 -2 -2 1 0
1532264819534802 10 4 2 11 2 1 0 3
1532264819603618 -1 11 2 5 0 0 1 -1
1532264819624579 1 4 1 2 1 -1 -1 0
1532264819649496 11 56 6 7 -1 -3 -1 0
1532264819714322 6 -1 -91 -2 0 1 3 7
1532264819730279 -7 -63 -26 5 -2 -4 2 8
1532264819752223 2 -49 -16 -3 1 0 -1 -3
1532264819765186 -3 5 57 1 2 -1 -1 6
1532264819789123 -1 8 62 -6 -6 -1 1 1
1532264819819042 -1 9 9 -5 -3 -3 -1 -7
1532264819834999 -2 -19 -19 -3 -4 -1 0 5
1532264819895837 9 20 -3 -3 -2 3 1 16
1532264819908801 -4 -23 -2 23 9 5 1 -4
1532264819953682 -1 19 23 -4 0 -1 1 -3
1532264819969639 4 -54 -27 -7 2 -4 -3 -5
1532264820013522 4 64 27 5 2 2 1 1
1532264820089319 3 0 16 0 -2 -1 1 2
1532264820112258 -10 -18 9 1 -1 -4 -7 -6
1532264820134199 2 -2 -7 -39 -14 -4 -3 -3
1532264820194039 1 -2 33 10 9 2 -1 -2
1532264820209996 -8 -23 -14 -45 -15 1 -2 0
1532264820253879 -3 -7 0 24 7 1 0 -3
1532264820269836 -2 -12 -48 3 -2 -4 0 -1
1532264820290784 -11 -23 -26 -7 3 2 2 -4
1532264820321698 6 11 -1 16 8 0 1 0
1532264820351618 8 3 -2 9 -1 -15 -1 2
1532264820388519 0 8 10 5 2 3 0 -2
1532264820422429 -7 -16 -17 1 -1 1 0 -3
1532264820471298 -8 -9 13 0 0 -7 -3 -3
1532264820510208 -1 -5 -3 4 1 -3 -1 -2
1532264820538119 1 0 -5 -3 -2 0 0 0
1532264820569036 2 -13 -6 -2 -3 -6 -2 0
1532264820613917 12 44 116 38 12 -2 -1 3
1532264820650818 10 -26 0 2 10 73 36 23
1532264820673756 6 -11 -24 2 -6 -62 -8 12
1532264820733597 -4 21 5 2 -2 3 -4 -9
1532264820748557 -1 7 6 2 3 -2 -7 -7
1532264820839314 -12 -26 10 -9 -6 -12 -8 -14
1532264820853276 12 -2 -5 1 -4 -8 -5 8
1532264820891175 -4 10 31 -4 -1 -8 -6 -17
1532264820958994 -2 3 -39 -5 -3 0 -3 8
1532264820995895 -9 5 26 6 3 1 -3 -16
1532264821115575 2 -4 2 0 2 7 1 1
1532264821176412 -4 0 -4 -3 -3 -13 -3 6
1532264821191372 -2 0 -1 -4 2 16 -9 -15
1532264821236252 -14 1 2 -11 -3 -10 -5 -9
1532264821251212 8 20 -1 -2 -2 -4 3 -3
1532264821297090 -3 -14 -2 0 0 18 -5 0
1532264821341970 3 4 -8 0 1 -8 3 3
1532264821356930 -4 -19 -21 1 -5 -3 2 -2
1532264821416769 1 6 53 1 1 1 10 5
1532264821453671 3 32 11 0 1 -3 -2 -3
1532264821514508 -6 2 11 2 0 -1 2 -2
1532264821544428 0 12 13 3 -1 -4 -2 2
1532264821551409 0 0 0 12 3 -2 -5 -6
1532264821574354 -8 -15 17 -6 -3 -4 -8 -2
1532264821604268 2 -25 -95 -8 -6 -1 1 4
1532264821611250 1 -2 44 7 5 5 -1 -1
1532264821634188 4 -17 7 2 0 4 3 2
1532264821657135 -3 4 -55 -10 0 3 2 -1
1532264821753868 21 70 127 1 -1 12 0 47
1532264821821688 4 4 -64 10 6 9 3 5

1532264821867564 -3 -30 28 -6 2 3 3 0
1532264821971467 -4 -20 -73 -61 14 12 9 1
1532264821993408 3 13 -40 9 7 22 18 -15
1532264822031307 -1 -6 13 11 -14 -9 4 -8
1532264822042277 -5 -5 -30 -24 -5 12 6 -11
1532264822062224 6 2 30 23 21 -3 1 -1
1532264822085163 10 5 46 74 21 2 1 1
1532264822090149 -2 0 -28 -2 -17 -3 2 -5
1532264822113088 16 2 6 -71 -12 -1 2 0
1532264822150987 -14 -1 1 0 -6 -3 -1 -5
1532264822172927 -8 -4 -11 15 5 1 -2 -4
1532264822219803 -4 -3 -2 5 1 2 0 0
1532264822232768 -5 -3 14 -9 0 2 6 4
1532264822256704 -25 -2 24 -1 -6 -7 -9 -5
1532264822279642 -6 -4 -10 12 17 9 5 -21
1532264822301584 -1 7 57 0 5 5 0 3
1532264822339483 4 -56 -73 0 -7 -8 1 3
1532264822429243 -7 3 8 3 -3 -2 -4 -15
1532264822459163 7 5 21 -3 -1 -1 0 1
1532264822482102 -31 -3 0 0 0 1 0 -13
1532264822532965 5 -9 -3 -1 1 1 -1 -5
1532264822579840 -3 -4 -1 -1 -5 -1 -1 -2
1532264822639679 2 2 2 0 0 2 -2 7
1532264822698522 4 -8 -2 1 2 1 0 2
1532264822744400 2 -20 -2 -1 0 -3 -1 13
1532264822773322 3 10 0 -4 -3 -2 0 -1
1532264822821194 -4 6 -2 0 -1 1 -4 -3
1532264822871061 2 0 -2 -3 -4 -3 3 -2
1532264822967802 -2 3 5 -2 7 8 1 -1
1532264823059558 0 -4 41 1 9 -4 2 2
1532264823179237 -1 0 -16 -11 -2 -9 -3 -3
1532264823209157 -1 4 12 -3 -13 -4 -2 -3
1532264823268000 1 7 -5 2 1 1 -1 2
1532264823290938 -1 13 21 -1 10 6 4 0
1532264823336821 7 18 37 5 -3 0 1 3
1532264823396656 2 6 -43 -9 9 -10 1 3
1532264823435552 5 4 -10 0 -10 -12 -2 3
1532264823464488 6 29 32 21 5 9 0 -1
1532264823502373 8 31 51 11 6 -6 0 -2
1532264823530298 -4 -9 -22 -6 -9 -7 3 17
1532264823562213 10 41 1 33 11 3 -3 -13
1532264823590138 -15 -36 -2 3 -7 -1 2 0
1532264823613076 3 -14 9 -11 -11 -6 -2 17
1532264823689872 -19 -64 -27 -12 0 -4 11 2
1532264823726773 2 27 -4 1 2 1 -2 1
1532264823839471 6 11 51 8 15 5 9 0
1532264823875375 -4 -15 -7 1 7 6 6 3
1532264823899311 -5 5 3 3 15 1 -5 5
1532264823975109 -6 -5 -9 5 9 2 5 -2
1532264824041929 0 7 -2 0 1 0 -3 1
1532264824080826 -8 -82 -8 -1 0 1 -2 -13
1532264824116730 2 0 -8 5 -1 -2 -4 10
1532264824169589 4 30 -3 -3 -2 -3 -10 0
1532264824207504 6 7 16 -3 -4 7 -26 -4
1532264824222447 2 -41 -2 -2 -3 -19 -9 3
1532264824258351 16 17 -44 13 1 0 7 17
1532264824267334 -2 56 5 -9 -2 -4 -26 -27
1532264824289268 5 0 -12 3 -3 -8 -3 5
1532264824306236 -6 -19 23 -3 -2 -4 3 8
1532264824327167 2 -15 -48 -4 1 -2 12 7
1532264824388005 10 -74 18 -5 -2 2 1 -10
1532264824393989 -13 14 -2 -7 -1 8 1 -11
1532264824454826 -6 -23 4 -4 -1 -2 18 3
1532264824490730 4 3 -7 -2 0 -2 -8 1
1532264824521647 4 11 -12 -39 -11 -2 2 -6
1532264824544585 16 -3 20 21 7 14 46 13
1532264824567524 -14 -56 7 13 5 -1 -15 -11
1532264824583488 -2 -14 17 -13 -1 -6 8 -9
1532264824612405 5 35 52 5 2 1 9 -4
1532264824641327 5 -5 -9 -1 3 0 23 -14
1532264824687204 0 3 -5 -11 -5 -2 -3 -1
1532264824708149 6 21 -2 -9 -4 -2 3 -1
1532264824783946 -3 -25 -5 4 3 2 -5 -3
1532264824820847 -6 1 -15 0 -1 -5 0 -4
1532264824857749 3 -7 -13 -35 -7 -5 -1 1
1532264824888666 -3 -4 21 0 -4 -2 -4 -1
1532264824926564 -6 -2 2 19 4 1 0 -2
1532264825047242 -6 -1 10 10 -10 -1 4 -1
1532264825114064 -3 4 -9 9 10 2 -1 -1
1532264825189860 0 3 -2 16 1 -1 -5 0
1532264825287612 2 -10 -11 -12 -5 15 -18 -3
1532264825323503 -3 0 -11 -14 -5 10 0 -4
1532264825384341 7 6 -1 -2 -6 -6 -59 -2
1532264825429221 5 1 -16 3 6 35 4 2
1532264825564864 -11 -19 8 4 0 -13 -5 0
1532264825609747 1 -3 -7 2 11 -3 0 2
1532264825669595 1 -9 -4 2 -6 -16 -2 -8
1532264825841119 -5 8 13 -4 -4 -3 -2 -2
1532264825893977 1 -12 -14 -3 3 7 6 -1
1532264825938857 -8 -19 13 10 2 -4 -2 0
1532264826008671 2 20 1 -13 -10 -5 3 1
1532264826020639 4 2 -16 -9 -1 5 9 0
1532264826066516 5 -5 11 16 2 -3 -3 -3
1532264826074494 -22 1 19 5 -2 -5 -2 -3
1532264826111396 -3 1 15 3 3 0 7 0
1532264826127354 1 -6 -11 -9 -4 -7 -11 -4
1532264826149296 -4 4 0 2 1 0 -2 -1
1532264826187193 -6 2 3 2 -1 0 -4 0
1532264826313855 -4 -63 4 -7 0 1 1 -1
1532264826359732 -5 -31 -77 3 1 0 0 -2
1532264826389652 7 57 54 -1 -1 0 2 -9
1532264826450489 -8 -46 1 -5 -3 -1 -1 1
1532264826599092 -14 -24 18 -12 -5 -2 -2 -9
1532264826630009 7 21 17 1 1 -3 -2 0
1532264826673893 6 -2 55 -7 -1 0 1 1
1532264826710793 -4 -14 -16 -5 -2 2 1 1
1532264826748692 0 13 -2 13 6 0 0 1
1532264826771631 4 13 24 2 -1 0 -3 -1
1532264826786591 1 39 12 34 25 5 2 1
1532264826816510 1 20 9 10 3 -1 0 1
1532264826846431 0 2 -27 -12 -4 0 2 -3
1532264826868372 -1 -3 -19 -27 -12 -9 -2 -1
1532264826891328 -4 -15 -1 -41 -12 1 -2 0
1532264826908265 3 6 1 -13 -10 0 1 -2
1532264826928212 -4 -5 -9 25 17 3 2 -2
1532264826953145 9 13 -14 25 0 -1 0 2
1532264827004009 8 -3 -8 -3 -1 0 0 -1
1532264827018969 -3 3 -20 -11 -1 -1 -1 -1
1532264827079806 9 11 38 13 0 -1 -1 1
1532264827094766 10 8 10 2 -1 -1 0 3
1532264827116708 -3 -13 -1 -13 -4 -1 -1 -1
1532264827168569 9 19 23 4 5 3 1 3
1532264827191508 -5 -2 2 4 -1 0 -2 -3
1532264827228415 -7 0 -15 -3 0 2 2 -6
1532264827288249 9 17 49 10 1 0 4 7
1532264827326147 4 14 68 0 2 2 -2 4
1532264827385988 -4 14 -9 -1 0 3 4 -22
1532264827445828 5 5 -6 5 0 1 2 -7
1532264827491708 -6 -7 -16 9 3 -2 -1 -3
1532264827574490 -1 -7 -1 1 0 0 -3 -3
1532264827625348 -2 6 11 2 -1 -2 -2 -5
1532264827685187 1 -7 -30 -1 -2 -8 2 10
1532264827724091 -2 -6 -8 -1 -1 -2 2 10
1532264827761982 4 8 6 3 -3 -2 -1 5
1532264827851742 3 21 33 3 -1 2 4 -8
1532264827950478 2 0 -5 -2 -11 -45 0 -3
1532264828002339 3 4 12 -3 -1 -9 3 -2
1532264828068163 -4 -21 6 0 0 3 -1 -14
1532264828080132 -1 -21 -5 4 -1 -5 -6 -15
1532264828114041 -6 -2 21 4 2 -2 -5 -3
1532264828150942 2 -60 -12 2 -1 0 3 2
1532264828174878 3 4 -50 -3 4 4 1 -3
1532264828188841 1 29 49 10 -1 5 2 -2
1532264828219758 2 6 7 -8 -4 0 1 3
1532264828240713 -6 -46 -26 8 1 -5 0 2
1532264828251677 2 20 19 21 11 3 -1 1
1532264828301553 -2 6 -4 -17 -10 1 -2 -4
1532264828331459 -1 7 -2 -1 0 -1 -1 1
1532264828378334 0 7 -2 -6 -1 0 1 1
1532264828429198 -12 -3 13 -4 -1 -2 -5 -32
1532264828468094 5 -9 18 2 0 -3 2 21
1532264828518959 -6 87 -50 -10 -7 -4 -15 -7
1532264828572814 -13 27 24 -15 -12 -2 -10 -12
1532264828578798 11 -13 -121 74 35 19 11 26

1532264828632654 -1 -20 -18 -18 -3 -5 1 2
1532264828663572 59 60 11 -20 -15 -24 80 105
1532264828684515 -9 37 -31 -2 -7 -1 -18 -113
1532264828768291 6 10 -73 43 7 0 7 23
1532264828775273 -12 -18 127 23 9 8 -9 -17
1532264828812174 4 -3 3 13 14 5 0 0
1532264828871016 -4 13 -9 -46 -21 -5 1 -3
1532264828924873 1 -2 6 -12 -7 1 -2 -2
1532264828946821 -1 -14 -14 -74 -27 -9 -2 -1
1532264828976733 -7 3 -13 4 4 3 -1 -2
1532264829014632 -2 2 -2 -10 -3 -3 -3 -1
1532264829050536 4 -16 -14 -5 14 4 2 18
1532264829134312 6 -28 -71 -2 3 9 1 7
1532264829231056 8 -34 24 -4 -5 -4 1 -2
1532264829276931 7 1 9 1 0 -1 2 15
1532264829389630 8 2 -3 1 1 9 4 0
1532264829405587 3 3 5 -3 -8 -4 -5 -6
1532264829457452 -4 -14 -12 -4 2 0 -1 -2
1532264829517288 9 9 6 4 24 4 13 7
1532264829614030 1 0 -1 2 -8 -4 -3 0
1532264829666888 0 -6 3 0 1 -2 -4 -3
1532264829680867 -1 -3 -3 0 -1 -4 -2 0
1532264829734707 2 16 31 5 8 3 1 -8
1532264829899267 -1 -2 -2 -2 -7 3 0 -1
1532264829944147 -2 -1 23 18 22 1 1 0
1532264830124664 -2 -1 9 32 22 -21 -4 -1
1532264830282242 1 12 51 -18 -20 0 -3 -4
1532264830327123 -3 7 -26 -4 -6 2 29 -3
1532264830392947 3 16 50 -6 2 1 23 4
1532264830499662 2 18 39 21 3 14 -22 -32
1532264830536562 11 7 2 4 -13 -6 -42 22
1532264830596403 -13 -2 -12 -1 -7 9 2 -4
1532264830619342 7 2 -4 3 21 3 17 9
1532264830741038 -27 6 15 5 -10 -10 -9 -19
1532264830775923 15 88 -4 -11 -4 -5 -9 0
1532264830881640 -1 -10 2 0 -4 -3 -1 -1
1532264831002317 3 -1 -23 -1 -6 -3 0 10
1532264831108044 -13 -17 9 -4 2 8 1 0
1532264831144936 13 14 25 -2 -2 -1 -3 0
1532264831159896 -1 -11 -18 -1 1 -5 -6 -14
1532264831181837 6 57 36 -12 -8 -1 4 -4
1532264831220734 -1 46 -3 -7 1 3 4 19
1532264831234696 -4 -5 -23 13 2 1 -2 10
1532264831293539 3 -3 -21 -3 3 2 0 3
1532264831339416 3 -17 7 1 -2 -2 0 18
1532264831362355 -6 25 10 2 -1 -2 -1 -7
1532264831422194 -2 -30 10 16 11 6 -5 3
1532264831444136 0 -13 -56 85 23 5 2 -16
1532264831459096 -3 -36 13 -40 -15 -6 -5 5
1532264831495997 0 24 33 -21 -21 -8 -9 -4
1532264831615677 11 25 -3 -6 0 1 -1 3
1532264831645597 -2 39 28 22 6 -1 -3 -6
1532264831721394 5 0 -1 -8 0 2 -1 2
1532264831758296 -10 -8 -3 7 6 -1 -1 -2
1532264831827111 -13 -2 -2 -23 -9 -2 8 -7
1532264831864013 1 1 -2 5 0 0 -2 0
1532264831877975 3 8 6 -2 -3 -3 -4 -1
1532264831962749 7 0 6 -2 1 0 5 2
1532264831999650 -2 6 9 10 4 1 -9 -2
1532264832067468 -2 2 8 3 -1 7 11 -1
1532264832083427 12 3 7 -5 -5 3 -2 8
1532264832113347 0 -2 4 -5 -1 -12 4 -4
1532264832136285 -13 -7 -11 -4 -4 -9 11 -5
1532264832201112 -3 1 -4 -2 0 6 6 1
1532264832297853 8 7 0 5 10 9 0 4
1532264832343730 13 1 0 2 -6 1 -1 1
1532264832381629 -7 -3 -6 -7 14 0 10 1
1532264832404568 -9 -4 0 1 -5 -3 -6 2
1532264832465404 -9 0 -7 -8 -12 -1 -3 -4
1532264832487346 1 -18 -26 -3 3 4 2 1
1532264832547187 -9 -11 -15 -4 -5 -1 0 -1
1532264832585084 -9 7 6 0 0 3 1 -2
1532264832607026 5 -1 -5 -5 -7 -9 -7 -4
1532264832645921 0 8 -4 -8 -2 0 -1 -1
1532264832668860 -3 4 2 -13 -5 -2 0 3
1532264832697791 2 17 3 -6 2 0 2 0
1532264832704765 -3 -1 11 14 4 4 1 0
1532264832733688 5 2 1 -6 -3 -2 -2 -1
1532264832816466 5 -3 -3 -8 -6 -5 -2 -3
1532264832860349 -1 -56 -13 0 1 1 2 1
1532264832967063 5 23 62 -2 -2 -2 1 1
1532264832997988 -2 17 -24 -6 0 0 4 9
1532264833109682 2 12 54 6 -2 -5 -1 -6
1532264833176507 -18 -70 -60 -12 -1 1 2 3
1532264833206423 -4 0 -51 -11 -2 -3 -4 -3
1532264833243325 5 8 16 -2 -2 -2 -4 -4
1532264833289202 5 9 19 5 3 1 2 3
1532264833326103 8 -11 -8 -2 -1 0 1 -2
1532264833349042 12 -4 7 9 0 2 1 6
1532264833385944 1 29 0 7 -9 -5 -4 0
1532264833423842 -1 -3 -34 -11 -5 -2 0 -2
1532264833468722 -6 -20 -8 1 -1 2 0 -1
1532264833506620 -2 4 6 12 0 -1 1 -1
1532264833528562 2 1 19 5 -4 -3 -2 0
1532264833566460 7 12 25 14 -3 -4 0 2
1532264833627298 4 -1 -13 20 0 -1 -3 -2
1532264833702098 1 13 9 2 3 0 -1 3
1532264834017255 -4 -11 39 -4 2 3 7 19
1532264834031218 7 -14 16 -4 2 -5 2 28
1532264834106017 2 21 33 8 1 -1 4 5
1532264834173877 -20 -5 -38 -32 -9 -3 -3 -25
1532264834233676 -12 -45 -34 5 2 3 -2 -10
1532264834294514 -4 0 16 6 3 4 -5 -9
1532264834346375 -1 17 31 -8 -3 -1 -2 -8
1532264834391254 -16 -27 22 -5 4 6 4 -4
1532264834452106 -2 15 64 -4 -3 -3 -4 -11
1532264834571773 -9 -4 6 0 -6 1 -4 -25
1532264834586732 3 0 8 1 4 -3 -4 -4
1532264834639591 -3 -23 3 10 7 5 6 2
1532264834654551 7 27 23 -1 10 7 -6 -10
1532264834676492 8 9 -18 -4 1 7 4 -5
1532264834692452 -8 -4 -7 -6 -3 10 2 1
1532264834752289 5 -9 0 0 0 -4 -2 14
1532264834766252 -1 -6 34 4 -3 4 1 3
1532264834812130 0 -1 -45 -7 -3 -6 -3 7
1532264834826092 -5 4 7 2 0 -4 0 -7
1532264834850028 1 -9 -31 0 -2 -1 0 0
1532264834893910 -1 9 46 40 11 2 0 1
1532264834923831 -3 17 31 -14 -8 -3 -4 -2
1532264834954748 0 -17 -50 -11 -1 -2 2 0
1532264834999627 4 49 20 0 -2 -6 -3 -1
1532264835006609 -6 -3 -7 -3 -1 1 -1 0
1532264835036529 3 3 73 -4 -1 2 1 -3
1532264835052486 -5 12 65 3 -2 0 -3 18
1532264835074428 -7 15 -32 7 2 11 18 -1
1532264835111329 -54 55 -24 7 16 -18 5 -46
1532264835151223 -6 -58 -80 5 9 82 24 -39
