1532261784529333 0 -1 -4 -5 4 -6 -4 -1
1532261784595157 0 -2 -5 -6 1 -11 -3 -4
1532261784694890 0 0 4 -16 -47 0 10 -8
1532261784730801 1 0 -3 -3 -1 1 3 0
1532261784744763 -3 -6 -8 -17 -1 -1 -2 -9
1532261784791639 -2 1 3 -3 -4 -6 -7 15
1532261784894364 -4 -2 1 3 8 -1 -2 -2
1532261784958204 -2 -1 -1 2 1 0 5 -5
1532261784966172 3 1 -2 -4 2 3 7 10
1532261785022056 -6 -3 2 3 4 27 -24 -10
1532261785058956 3 0 1 1 20 54 4 -15
1532261785081894 5 5 2 1 -4 16 53 22
1532261785149724 9 3 -1 0 12 -20 120 66
1532261785209553 -1 -1 1 3 7 -43 116 41
1532261785345190 -2 1 3 -1 18 27 44 15
1532261785426971 -15 -6 -7 -10 -12 -9 -2 -16
1532261785448913 -7 -4 -3 -3 -11 -13 13 -11
1532261785495787 6 2 -1 -1 -13 74 9 24
1532261785518726 4 0 2 0 9 19 9 1
1532261785554630 1 -2 -3 -3 8 -3 -47 12
1532261785592530 -1 -2 -3 -19 -10 58 -23 13
1532261785614471 -6 -2 -3 9 13 -80 -49 -30
1532261785660347 -2 -1 -3 -3 -4 -7 -38 -46
1532261785833884 -1 -5 -7 -11 -19 -40 8 -2
1532261785856823 -6 -2 -3 -6 0 42 -86 -42
1532261785907686 -1 0 -4 -3 3 -42 -19 -3
1532261785943609 -1 -3 -3 -6 2 8 -19 -18
1532261786111142 -1 0 -2 -7 -9 18 -8 -22
1532261786131089 4 1 3 7 -13 18 7 8
1532261786193921 -2 0 -8 -17 0 44 -1 15
1532261786221845 -5 -2 -2 -3 12 65 30 -4
1532261786261739 -2 -3 -3 -10 -7 70 37 -5
1532261786308614 3 -1 -2 -2 -11 -37 -32 10
1532261786381420 -7 7 -2 -4 -4 -55 -38 -15
1532261786389404 -3 5 -1 -1 4 20 -2 5
1532261786402375 0 -2 -4 0 4 -12 -13 -4
1532261786530022 -5 -4 2 8 -12 -79 -32 -54
1532261786550966 3 2 1 -4 -1 26 -4 33
1532261786679622 -5 -2 -2 1 0 -38 -50 -25
1532261786702561 2 1 0 0 -16 12 -7 3
1532261786838198 1 1 6 -4 -3 -7 2 -2
1532261786876101 0 2 -2 -2 -1 3 -1 3
1532261786882081 1 1 -1 -4 0 -3 -2 1
1532261786927958 -2 0 -2 3 0 -10 -3 1
1532261786949899 -1 -1 2 1 2 -10 -2 -2
1532261787031681 -1 -3 -2 -3 25 -18 -8 0
1532261787046641 -7 -10 -7 -5 26 27 7 -4
1532261787130423 -1 0 -8 -13 1 -4 3 -2
1532261787175303 -5 -7 -14 -18 -7 -22 -16 -9
1532261787234146 0 -5 -3 -7 -27 -12 -4 -1
1532261787346844 0 2 1 0 -65 -8 -2 2
1532261787454556 0 -3 0 1 7 -9 -1 0
1532261787476498 -1 -3 -2 -4 -5 -9 -4 0
1532261787572242 1 -1 -1 0 32 -5 0 -2
1532261787647042 -2 -1 -1 -1 5 -4 -2 1
1532261787693917 0 0 0 -2 -4 -4 -1 -3
1532261787751762 -1 0 -1 -1 -3 -1 -2 0
1532261787774701 -4 2 -1 -1 -3 -5 -1 -2
1532261787917319 -1 0 0 0 -1 -1 1 0
1532261787969180 1 1 -1 0 0 0 0 -1
1532261788028022 0 -5 -3 -3 0 -1 -2 1
1532261788051959 -3 -3 -1 -1 -2 -5 7 -1
1532261788082877 0 1 -2 1 0 5 -2 1
1532261788224498 0 -2 -3 -1 -5 -3 0 -1
1532261788247446 -2 0 0 0 -3 0 -2 -3
1532261788293314 0 -2 -1 -1 1 0 -1 -3
1532261788352156 -1 1 0 -2 -2 -1 -1 -1
1532261788510732 1 -2 -3 -2 -4 -33 -1 -1
1532261788531676 0 -4 -3 -10 -4 0 -4 0
1532261788568578 -3 -9 -5 -11 -13 -10 5 -1
1532261788580546 -16 -19 4 14 33 87 10 -6
1532261788591517 -1 4 6 12 3 -8 -2 -1
1532261788614454 1 -2 -4 5 -6 -12 -1 0
1532261788637394 0 0 -1 -8 12 9 0 -1
1532261788660342 2 3 3 1 0 -12 -1 0
1532261788727162 0 1 2 -1 3 13 10 -2
1532261788774028 1 1 -1 -3 -6 -10 -4 -1
1532261788848828 1 -12 0 1 -2 -11 -1 0
1532261788863788 5 -5 -5 -1 0 11 -9 6
1532261788899692 -1 -9 -4 -1 5 14 -9 -3
1532261788920636 -5 30 2 3 34 15 6 -14
1532261788974492 -6 7 0 -2 -9 -13 1 1
1532261789095176 2 14 -5 -12 -6 27 19 -1
1532261789118115 -5 7 -7 -3 8 -24 4 -3
1532261789147037 -2 -44 -7 -5 24 17 -6 -8
1532261789154019 3 -15 1 -4 -13 -18 -1 -1
1532261789199896 -5 9 1 9 23 15 -24 1
1532261789213898 1 8 -4 -8 -13 -5 2 0
1532261789259760 -4 -3 -8 -20 -10 -3 -7 -5
1532261789274720 -1 5 10 34 -5 -23 7 2
1532261789319608 -3 -2 -8 -14 -27 -10 3 0
1532261789342546 -2 0 3 -2 -11 2 1 -2
1532261789410364 -4 -5 -7 -3 16 -12 -3 -2
1532261789418343 2 2 8 49 14 0 11 3
1532261789453250 1 0 1 26 29 1 9 3
1532261789492147 -3 0 1 -13 39 35 -6 -6
1532261789636759 -1 0 1 0 3 -20 -16 -1
1532261789688632 0 10 -1 1 4 -15 -5 0
1532261789719540 2 4 1 2 -29 2 7 1
1532261789732510 -2 -9 1 0 1 -5 -15 -5
1532261789754451 -1 -21 -5 1 -36 -18 -5 0
1532261789802324 -3 0 -3 0 -28 -31 -13 -2
1532261789912030 0 -2 -1 4 68 4 -8 -2
1532261789956910 1 15 3 11 11 11 15 1
1532261789981856 -2 -7 -5 -2 54 4 -8 -4
1532261790004782 3 -2 3 -7 -14 0 6 -1
1532261790047668 1 -32 -3 -2 5 -11 -7 -1
1532261790092547 0 -2 -3 6 21 13 2 -1
1532261790234169 2 -3 1 -1 -9 8 1 1
1532261790261097 0 -3 -2 2 -5 -11 -1 1
1532261790301987 0 -2 -1 -4 17 18 -1 -1
1532261790338893 0 13 5 1 -3 5 4 -1
1532261790369806 0 -5 -2 -5 -12 -7 -1 2
1532261790399726 3 6 1 -1 1 -2 -1 0
1532261790423678 -1 2 2 2 2 4 5 -3
1532261790467565 -1 -3 -1 -1 -5 2 -8 1
1532261790513433 1 -5 -3 0 -2 -12 -2 -1
1532261790536371 -3 -6 1 3 3 26 5 6
1532261790543352 0 -2 0 -3 -5 -8 -9 5
1532261790594216 -7 0 -1 0 0 -2 1 -5
1532261790613166 -3 -5 2 1 -5 -7 2 -10
1532261790632114 -2 -16 -3 -3 -4 1 -5 -10
1532261790655054 0 2 -3 -3 -2 9 -9 -3
1532261790739827 -6 -2 2 2 46 14 -2 6
1532261790806648 -42 7 -3 6 -47 -43 -3 5
1532261790909374 24 23 12 5 6 6 11 23
1532261790976195 46 16 9 25 15 59 5 5
1532261791015091 -31 -8 1 -16 2 16 -7 -4
1532261791022072 15 -20 -5 0 -11 11 9 9
1532261791046008 -30 -14 -1 5 1 -2 16 -3
1532261791081911 -13 5 14 37 -39 -35 7 5
1532261791119811 -81 6 4 -9 2 7 -1 -4
1532261791179651 42 -6 -7 -1 8 18 1 14
1532261791201592 5 -5 7 9 44 7 15 6
1532261791247469 -21 -2 -6 -11 -32 6 -6 -11
1532261791384106 47 -23 -4 -14 -4 2 -4 -12
1532261791419010 17 45 5 2 0 -1 -2 1
1532261791577586 -3 21 5 -4 -32 -4 -10 0
1532261791614487 -44 25 8 -9 4 -1 -12 -8
1532261791658371 -13 -1 0 5 8 -1 2 5
1532261791681310 -14 -11 -4 -3 17 -2 -6 -5
1532261791801987 -33 -12 -4 -2 -54 -1 -11 -7
1532261791838888 30 6 0 -1 9 -1 12 15
1532261791891747 -14 -5 -5 -15 -16 0 -6 -4
1532261791967552 -9 14 4 16 -41 -3 8 -6
1532261792101212 10 -3 0 -3 4 7 -2 -4
1532261792147090 18 16 5 2 1 -2 0 21
1532261792170029 7 1 -3 -1 6 -3 1 -3
1532261792244829 -39 -4 -9 -10 4 -4 -4 -6
1532261792267768 3 7 -1 -19 -37 4 -15 11
1532261792357527 10 -2 0 -1 2 -1 2 -1
1532261792425345 7 9 3 -4 -2 -1 6 -3
1532261792447287 26 6 0 2 13 0 -18 -11
1532261792558989 4 2 0 0 -1 -2 4 -2
1532261792665703 -7 -10 -3 -4 1 -3 4 0
1532261792687644 -14 2 5 7 11 0 3 -2
1532261792738509 6 -9 -3 -1 30 1 2 2
1532261792821288 -5 -3 -2 -18 -44 -3 -4 -3
1532261792914039 -37 1 0 0 7 4 -6 -1
1532261793009783 28 5 -2 -18 0 -5 1 2
1532261793054663 -3 -3 -5 -8 -12 -6 -10 -1
1532261793129463 -8 0 -1 -6 -5 -1 -15 -6
1532261793190300 -4 0 1 2 -46 -1 2 -1
1532261793278066 21 -8 -2 3 20 0 3 -3
1532261793330925 11 -7 -7 -8 -38 0 -3 2
1532261793377798 9 -5 -3 0 -13 1 0 -1
1532261793383783 -22 -4 2 -3 4 -1 -4 -2
1532261793399740 -6 10 -2 -4 -9 -3 -12 -9
1532261793443623 -11 -5 1 -1 -3 -4 0 0
1532261793467559 -13 3 -1 4 4 -7 -8 -1
1532261793497479 3 8 4 -2 16 6 0 1
1532261793535394 8 -24 -8 -2 9 -1 -1 -4
1532261793557319 -5 7 3 0 -7 0 3 2
1532261793610178 0 9 0 -3 1 0 -2 -1
1532261793653063 3 -1 -2 0 2 4 2 1
1532261793729858 -4 -1 -2 -1 0 85 -7 -3
1532261793773740 6 -4 0 0 -2 -35 2 -2
1532261793812636 -5 0 3 0 8 -64 4 2
1532261793836572 0 -2 -2 -2 0 -62 -4 -4
1532261793932316 -2 -3 -1 -5 -18 -1 -6 -3
1532261793946279 -2 1 3 4 3 11 -3 -2
1532261794036039 0 2 -1 2 -3 1 0 2
1532261794076930 0 -2 -8 -8 21 -17 -1 -1
1532261794088899 0 2 -1 -2 -1 -6 -3 -2
1532261794119815 1 5 1 1 -16 -16 0 1
1532261794142753 -1 -1 -5 -7 -6 -10 -6 -4
1532261794157714 1 -3 -4 8 64 22 1 -2
1532261794178657 -1 2 -2 5 0 28 1 -1
1532261794209575 -3 0 -2 -8 -29 -22 -1 0
1532261794262433 -1 0 -1 1 -6 -9 -1 1

1532261794299335 0 -1 1 -1 1 -8 -1 -2
1532261794330252 -2 1 -3 6 6 4 -2 -1
1532261794378124 -2 -2 -2 -8 23 -9 -5 -2
1532261794392087 -2 -1 2 -1 -8 -48 -3 -2
1532261794420012 -3 -6 0 0 -29 -32 -4 1
1532261794449932 2 15 0 -2 -30 -44 -1 0
1532261794485836 -1 2 -1 -2 -4 4 -4 -2
1532261794562660 -2 -4 0 0 -1 -4 0 -2
1532261794583603 -1 -1 -1 1 7 -2 2 -2
1532261794601555 1 -3 0 0 23 1 -1 0
1532261794653417 -1 -2 -1 -1 8 6 0 -1
1532261794689320 -2 -2 -2 0 -4 0 -1 0
1532261794712260 0 -1 -1 -3 0 3 2 -1
1532261794749161 0 -1 -1 -1 -1 0 -1 0
1532261794772100 0 0 0 0 2 1 -2 0
1532261794832936 -1 1 -2 -1 2 1 -3 -1
1532261794907713 0 -2 -2 0 -1 -1 0 -3
1532261794953589 -1 -3 -1 -1 -1 1 -2 -1
1532261794974533 -2 -1 -1 -2 -2 -1 -1 -2
1532261795012432 1 0 -2 0 -2 1 -1 -1
1532261795049333 0 -2 -2 -1 -2 -5 -1 -2
1532261795095211 -1 0 -2 -3 -1 1 0 0
1532261795154053 0 -2 0 0 0 15 -1 1
1532261795199931 0 1 0 -1 -1 -1 -2 -2
1532261795230848 -2 -1 0 0 -2 -1 -1 -1
1532261795244811 0 -1 -2 0 1 5 -1 -2
1532261795253787 -2 -1 0 -3 0 -4 0 0
1532261795289691 -1 1 -2 0 -1 2 1 0
1532261795295675 1 0 0 -1 -2 -2 -2 -1
1532261795334574 0 0 -1 -2 -1 0 -1 0
1532261795348533 -2 -2 -1 -1 -3 2 0 -2
1532261795394410 -2 0 -2 1 -1 2 2 -1
1532261795456245 0 -2 -1 0 -2 -5 0 -1
1532261795461232 -1 -1 -2 1 1 10 -2 -1
1532261795507126 -2 -1 -3 -8 -6 -4 -3 -1
1532261795574928 -1 -3 -1 0 9 17 2 1
1532261795642747 -2 -5 -1 8 22 10 -4 -9
1532261795672678 1 2 1 16 -3 -8 6 0
1532261795711562 1 -1 4 17 3 -5 -13 -8
1532261795739488 -2 0 0 6 -20 -11 12 -5
1532261795753451 1 -1 0 -7 -7 -12 1 -1
1532261795778384 -10 -4 -5 -9 -16 -29 -16 -10
1532261795807307 7 0 2 -8 33 7 3 19
1532261795837231 1 0 0 -1 -12 -16 -3 7
1532261795867146 1 0 -1 2 33 -1 7 -4
1532261795905045 -5 -4 -6 -9 -1 -5 6 1
1532261795950923 -2 -5 -5 -13 -11 -17 -1 12
1532261795995803 7 -3 0 3 4 -1 0 13
1532261796010763 -5 1 2 3 -2 2 45 61
1532261796053648 10 1 2 3 4 41 1 18
1532261796077584 -7 -3 -3 -2 -20 11 -6 -13
1532261796091547 -12 -3 -7 -3 3 92 -9 2
1532261796114485 -7 -6 -4 -13 -19 -44 3 -4
1532261796137424 -36 -4 0 4 12 -53 -26 -39
1532261796151386 -12 -2 -9 -17 -20 -8 7 4
1532261796183301 28 -2 -3 2 16 29 -11 -10
1532261796205242 7 -5 -3 -13 -7 -21 -31 -11
1532261796227184 11 2 3 5 0 -15 16 42
1532261796294005 -15 -10 -6 -7 -5 0 11 -8
1532261796340880 0 1 1 13 12 -30 -29 -10
1532261796362821 -17 0 0 3 18 6 45 19
1532261796378779 3 3 11 26 -17 2 -21 -19
1532261796414683 -13 -5 -6 7 6 46 58 18
1532261796460560 0 -4 -4 -1 -10 19 59 0
1532261796550321 -2 -1 1 0 2 66 41 18
1532261796621131 -8 -3 -6 -3 -4 22 -40 -32
1532261796656045 -3 8 12 26 -20 -72 -104 10
1532261796729840 -3 -7 -4 11 3 32 41 24
1532261796780704 -9 -12 -1 -14 -8 -57 37 -9
1532261796896403 -5 3 -4 -16 -17 -45 -13 -9
1532261796918336 5 -6 -3 -8 -3 -26 14 5
1532261796934293 -15 4 -4 -3 -5 -8 28 -35
1532261796961221 4 0 -1 9 12 17 13 5
1532261797007098 -2 2 0 -7 4 -36 -2 1
1532261797105838 7 3 0 1 -3 39 36 12
1532261797172656 3 27 1 -8 -7 -29 0 -17
1532261797278372 -3 -8 0 1 -2 -25 1 2
1532261797323257 4 17 -3 2 3 -6 -6 -4
1532261797414010 3 2 -3 -1 -2 -42 2 2
1532261797450911 -3 -4 0 0 3 15 7 7
1532261797473850 0 -4 -1 -3 -2 11 -4 0
1532261797480832 -2 -2 -1 -1 -4 -15 -4 -4
1532261797502773 -3 -3 -1 -4 3 35 1 -1
1532261797516735 -3 -2 -2 3 -2 -31 -11 -1
1532261797607493 2 2 1 2 -8 12 -5 -1
1532261797683290 3 -1 -2 0 17 10 4 3
1532261797698249 -2 -2 0 -5 2 12 -3 0
1532261797750112 -2 -4 -1 -2 -18 -50 -7 -6
1532261797779034 -10 0 -4 -4 -8 4 -10 -3
1532261797810949 6 1 -1 -2 -3 18 2 -2
1532261797838874 2 -1 0 3 -2 13 1 -3
1532261797891733 5 0 0 -2 -3 8 -7 0
1532261797945588 -2 -3 -1 -3 -16 -14 1 0
1532261797961546 2 1 -4 -3 -40 0 -4 -1
1532261798004431 0 0 -1 1 12 15 -1 -2
1532261798042330 -1 1 -3 -2 9 -6 -2 0
1532261798102170 1 0 2 -1 0 -34 -2 0
1532261798147050 1 -1 -2 -1 3 7 0 0
1532261798238805 -2 -1 -1 0 0 -6 -1 0
1532261798258751 -1 -2 -2 -3 -1 4 -1 -1
1532261798297647 0 -2 0 -3 -1 -4 2 1
1532261798304628 0 -1 -3 -2 -2 2 1 -1
1532261798342527 -2 -2 -2 -2 0 -3 -1 -1
1532261798402367 -1 -1 1 -1 0 -3 -7 -1
1532261798584879 -4 1 1 0 3 6 5 -1
1532261798597844 1 -2 -2 -2 -2 5 4 -1
1532261798664666 -2 1 0 -2 0 4 -4 0
1532261798769386 -2 1 -1 -1 -1 -18 -6 -2
1532261798830222 0 0 -3 -2 -2 5 0 -4
1532261798861140 0 1 -3 -1 -6 -48 -14 0
1532261798867124 0 0 -3 -6 -2 21 2 -2
1532261798905023 -3 -7 2 -2 -30 -25 1 3
1532261798978826 0 -1 -5 -16 16 3 -1 -3
1532261799025701 2 5 2 4 -4 -3 -2 0
1532261799116457 -2 -4 -6 -8 -3 -7 -4 -3
1532261799147375 -9 -22 0 3 7 4 0 0
1532261799301961 -1 11 -3 -11 -7 14 2 -1
1532261799385737 -11 -8 2 17 -18 -7 -7 -6
1532261799444580 -2 1 -2 1 14 14 1 0
1532261799488462 0 -1 -1 -13 -8 7 2 1
1532261799594180 -2 0 1 -8 -10 14 -2 -3
1532261799723833 0 0 3 7 -64 -10 4 1
1532261799730815 -1 0 0 -6 6 -14 -9 -2
1532261799789672 0 3 1 6 -7 7 0 2
1532261799835535 -1 0 -4 -2 -5 -17 -5 -3
1532261799948234 1 -2 -1 -2 -33 -18 -2 2
1532261799986132 18 -17 -1 4 18 21 0 -7
1532261800030015 -10 -23 -2 -1 3 -13 -7 -1
1532261800203551 1 -10 -2 -2 -1 -30 5 2
1532261800226490 -19 -4 1 0 4 1 -6 -11
1532261800248431 14 -2 -1 -4 -8 -25 1 -6
1532261800270372 5 5 0 1 16 10 11 0
1532261800292317 -13 -3 -4 1 18 -3 14 2
1532261800473828 -11 -10 -7 -5 -3 4 -13 -3
1532261800517710 -44 33 10 -3 -2 -63 3 -29
1532261800547631 -10 -9 -6 -1 93 33 -10 20
1532261800646366 -32 -75 -16 -2 -22 11 12 4
1532261800735129 14 16 8 20 -7 -6 3 9
1532261800772030 -25 -4 -1 1 20 -2 14 4
1532261800794969 10 34 -1 -4 5 2 -7 -8
1532261800823891 15 -4 -4 -9 13 0 9 0
1532261800862788 9 16 4 -1 -5 -3 3 1
1532261800943572 -18 5 6 25 11 2 9 3
1532261800969503 -64 -5 -2 -4 3 -1 6 -2
1532261800989449 3 4 -3 -5 13 8 0 6
1532261801050286 -2 -12 0 -8 7 -7 -12 -2
1532261801110126 -7 -3 -3 -6 -28 -3 -1 -1
1532261801176948 2 -5 1 -4 -75 4 -4 0
1532261801207865 -8 -3 3 11 22 1 -5 2
1532261801328543 11 -8 -1 3 -1 4 4 3
1532261801342505 9 0 0 3 -3 8 4 5
1532261801363449 19 -4 -5 -7 -7 8 -1 -7
1532261801378409 8 4 4 10 -3 -5 -12 -2
1532261801393369 -6 -34 -7 -3 4 9 2 2
1532261801423289 15 5 0 -13 -11 6 -11 -1
1532261801470164 -10 11 1 3 -2 -10 -6 -2
1532261801612782 16 3 -1 11 18 -2 -5 1
1532261801672622 -6 -5 5 18 9 6 3 -2
1532261801709524 -16 0 -2 -9 13 -5 -4 -4
1532261801732462 -12 -13 1 13 16 8 8 -3
1532261801754403 18 -27 -10 -18 -12 -2 -3 4
1532261801776345 31 -8 -3 -1 16 4 9 -3
1532261801806281 25 12 4 -1 -2 17 10 2
1532261801830201 12 5 2 -2 -17 10 -4 -3
1532261801860121 -9 44 6 -2 -61 -1 0 -8
1532261801866105 -23 -5 3 12 -36 -13 2 -1
1532261801911982 -24 -19 -2 -8 7 -7 12 2
1532261801925945 -21 -13 -8 -11 -4 -2 -20 -11
1532261801957859 -4 12 2 -8 -11 -6 -1 1
1532261802048617 11 -7 -6 -7 22 -12 20 3
1532261802100477 12 2 1 18 -5 1 -8 -6
1532261802122419 8 2 -1 -3 8 -3 -8 -1
1532261802160317 -17 4 -2 0 -2 -7 9 -1
1532261802213177 -14 3 4 8 -6 6 7 -2
1532261802235118 -12 -11 -6 9 -27 -2 -7 -4
1532261802272019 -11 -7 -6 -8 12 -6 6 2
1532261802302937 -28 -11 0 0 -13 -3 -4 -2
1532261802323881 0 -18 -2 -9 -67 2 -1 -2
1532261802345822 4 16 1 0 9 7 -1 -7
1532261802391699 11 3 -1 0 1 0 -3 6
1532261802400675 -9 8 2 -8 -42 -9 -1 -2
1532261802446552 38 1 -3 -1 -13 -14 -5 -2
1532261802469503 2 -1 6 2 4 -6 20 1
1532261802489451 8 -1 -1 -2 -28 4 -9 2
1532261802535315 12 9 -1 1 4 0 -3 1
1532261802549277 0 -2 -1 -8 -4 6 -3 -2
1532261802670953 0 -2 2 4 5 48 2 1
1532261802691896 10 -1 0 3 4 103 -3 -4
1532261802714835 -9 -5 -1 -4 4 -84 -2 2
1532261802722814 35 -4 0 -2 -3 -35 0 2
1532261802790633 10 6 0 -10 -4 -5 0 -2
1532261802842494 5 -3 -2 0 -3 -7 1 0
1532261802902333 -11 -5 -4 14 1 -19 -6 -6
1532261802978131 -2 -3 1 -2 4 10 5 2
1532261803000072 -12 2 -2 -9 -4 -7 -3 -3
1532261803021016 0 -1 -5 -1 7 38 4 -1
1532261803051934 -1 0 -3 -2 -4 8 2 1
1532261803111774 -3 -3 -2 -6 -46 -67 -11 -5
1532261803135709 1 1 2 0 3 5 -3 1
1532261803164632 1 1 0 -1 14 -30 -6 0
1532261803186573 3 -4 0 -3 -9 -28 -12 -1
1532261803203529 -2 0 -2 -2 5 16 3 -1

1532261803255389 -1 -1 1 3 -6 -27 -2 -1
1532261803268355 -2 -2 -1 -4 -24 -27 -1 -3
1532261803292291 1 2 2 4 42 57 5 2
1532261803323209 0 -1 -1 5 52 56 9 -2
1532261803352131 -1 -2 -3 2 -10 13 1 2
1532261803456851 -3 0 -2 -3 24 -1 -3 -2
1532261803525666 0 -1 -2 -1 -4 0 -1 1
1532261803547617 -1 2 -3 1 30 23 2 -4
1532261803569550 1 0 1 2 -5 6 3 -1
1532261803587505 0 -1 -1 -1 -10 -12 0 0
1532261803600467 0 -2 -1 -2 -6 -7 -2 -2
1532261803637368 -1 -2 0 1 -2 -3 0 0
1532261803651331 1 -2 0 -1 1 -4 0 0
1532261803696211 0 0 -2 -1 5 8 1 -1
1532261803726131 -2 -3 -3 -2 -7 -10 -3 -2
1532261803738099 -1 -1 1 -1 -1 -1 0 0
1532261803787966 -2 0 -1 -2 0 4 1 0
1532261803832845 -1 -1 0 -1 -1 0 -5 -1
1532261803856786 1 -1 -2 1 -2 -4 -1 -1
1532261803890690 -1 -1 0 0 2 9 1 0
1532261803914627 -3 1 -1 1 0 -1 -2 -2
1532261803951528 1 0 -1 0 -2 6 3 0
1532261803967486 0 -1 -1 -1 -2 -8 -8 0
1532261804011368 0 -2 -1 -3 1 -2 -5 -2
1532261804042286 -1 -1 -2 0 -1 -2 -1 1
1532261804065224 -1 -3 -1 -2 -2 -5 -1 0
1532261804101128 -1 -1 -3 0 -2 0 -2 0
1532261804125064 -2 1 0 1 -1 -6 3 -1
1532261804139027 1 -2 -1 -1 0 1 0 -1
1532261804176925 0 0 -2 -1 -1 -1 -2 0
1532261804198867 -4 -2 -2 0 -3 0 0 -1
1532261804222803 0 1 0 0 1 -1 2 -1
1532261804258706 -2 -3 -1 -2 0 1 0 -1
1532261804296605 -1 -1 -1 -3 2 6 0 -2
1532261804335507 -1 -1 1 0 -1 -3 -3 -1
1532261804379384 0 1 0 0 0 -3 -3 -1
1532261804394344 -1 -1 0 -1 0 0 1 0
1532261804425261 -1 -1 -1 -1 -2 -2 -6 -1
1532261804447203 0 -2 0 -3 -1 -2 -1 -2
1532261804477122 0 -1 -2 -1 -2 6 -1 0
1532261804522002 0 1 -2 -1 2 22 3 0
1532261804551923 -3 -1 0 0 1 6 -1 -1
1532261804573864 0 -2 0 -1 -4 -4 -1 -1
1532261804599800 0 -3 -1 10 11 16 2 -1
1532261804620739 -2 -1 -4 -9 -18 -10 -2 -3
1532261804657640 -1 -2 -3 -8 13 -17 -2 1
1532261804679581 -2 -1 -1 4 6 -24 3 -2
1532261804702519 -2 2 0 -7 -18 -25 -10 -4
1532261804739436 0 2 14 31 3 -1 0 2
1532261804801266 0 -3 -6 -7 3 5 2 0
1532261804875059 -1 -2 -1 1 -14 0 1 -1
1532261804994739 1 0 5 1 -8 -9 -20 -16
1532261805019672 -3 -1 -4 -4 3 9 -19 -30
1532261805065549 5 1 -2 0 -4 -7 13 18
1532261805078514 -3 -1 0 0 -5 5 -7 -3
1532261805136360 1 1 0 4 8 -1 -6 3
1532261805174259 -7 -3 -4 -4 3 -36 -61 -35
1532261805201187 -1 -4 -1 1 23 16 25 27
1532261805222131 -2 0 0 2 6 33 -1 -19
1532261805244072 -3 -5 -6 -15 -15 -38 -69 -28
1532261805265016 -4 -5 -11 -21 -24 -70 -20 -45
1532261805279992 10 1 -6 -2 6 41 44 -5
1532261805316878 -5 -1 -7 -20 12 -72 -17 -11
1532261805406637 10 4 5 7 9 -44 -15 4
1532261805474455 -2 -3 -1 12 -18 -28 -15 -45
1532261805498406 -2 -2 -1 -1 6 0 -35 20
1532261805520333 0 -1 -3 -16 -3 -3 25 40
1532261805534296 -4 -1 -2 -5 -33 -1 5 -21
1532261805617074 4 3 7 18 7 7 14 9
1532261805730770 6 6 11 5 -22 -28 1 6
1532261805843469 1 0 2 -8 5 17 35 -1
1532261805857432 1 1 1 3 -7 -11 -6 16
1532261805888349 -4 -3 -3 -1 5 -6 7 -11
1532261805933228 -4 2 -4 0 9 -4 -46 7
1532261805941208 -4 -4 -3 4 6 33 -1 -11
1532261806001047 -3 -1 -4 -2 5 -7 -25 -42
1532261806053906 -4 11 -1 4 -3 25 -28 -30
1532261806155634 -2 -2 0 7 4 -50 -3 19
1532261806369063 9 -1 -3 -9 2 -50 12 -37
1532261806495724 -3 1 -4 -10 4 36 -18 2
1532261806691202 -2 -3 -2 -3 -6 -27 4 5
1532261806706162 -3 0 -2 -5 -6 70 16 15
1532261806794925 -2 -2 1 -3 -7 36 3 -3
1532261806824845 1 1 -1 -5 -13 -13 -2 4
1532261806886695 0 -1 0 2 2 -1 -2 -3
1532261806908621 -2 -3 -2 -2 0 2 1 -1
1532261806931575 -1 0 -1 1 4 -2 5 0
1532261806981426 1 0 2 0 -1 1 1 1
1532261807027303 1 0 -1 3 2 30 13 3
1532261807073180 -1 -7 -3 3 9 -64 -17 -3
1532261807095121 -2 -6 -4 2 13 -18 -3 4
1532261807110081 -3 0 -1 -1 -10 33 15 -1
1532261807132023 1 -1 5 -1 -17 -3 -12 1
1532261807184882 -5 -3 -6 -3 36 43 -3 -4
1532261807221783 -3 -9 -6 0 -62 0 -1 -2
1532261807280626 1 3 1 -8 8 -28 -5 4
1532261807350439 -4 -3 -6 -4 -22 -4 -3 -3
1532261807394322 -1 1 -5 -3 -8 -9 1 -1
1532261807417261 -7 2 0 0 11 10 0 0
1532261807477101 -4 -1 -2 -1 0 -4 -2 -1
1532261807507020 3 0 -1 -2 -3 2 -1 0
1532261807529959 2 1 -4 -2 -2 1 -1 0
1532261807574839 0 4 -4 -1 -7 -5 -2 1
1532261807665597 -3 -2 0 -1 0 -3 -2 -2
1532261807709479 -1 1 -1 -1 0 -10 2 0
1532261807740396 -3 -4 -1 -1 -2 -3 2 -2
1532261807762338 1 -1 -1 1 0 1 -3 -1
1532261807776300 -1 -2 0 -2 -2 9 2 0
1532261807798241 -1 -1 -4 -2 -2 -8 -4 -1
1532261807813201 -2 0 -2 -2 -2 -7 0 0
1532261807895980 -2 0 -2 -1 0 -4 0 -1
1532261807927895 -1 -2 -1 -1 -1 -7 -1 1
1532261807980753 -2 0 0 0 -1 11 4 -1
1532261807995713 1 -1 1 0 0 -9 -4 -1
1532261808002695 0 -1 0 -1 -2 8 2 -1
1532261808038614 -2 2 0 -2 1 -4 -2 -1
1532261808076515 -2 -4 -2 -1 -2 -2 0 -1
1532261808107415 -3 -2 -3 -3 0 4 -4 -2
1532261808227094 -2 0 -3 -2 -2 -1 -1 -2
1532261808263996 1 1 -1 -1 0 -5 -1 0
1532261808309883 1 0 -2 -3 0 9 2 -2
1532261808332812 1 -1 -2 -1 0 2 -2 -1
1532261808368716 -2 -1 -2 -3 -1 5 -2 -3
1532261808393650 -2 -2 -1 -1 -1 -8 1 -1
1532261808416588 -2 0 0 -1 0 7 -1 0
1532261808481415 1 1 1 -5 1 -28 -3 0
1532261808505351 -1 -11 -7 -6 3 5 -3 0
1532261808556228 3 7 0 -5 -18 -11 -2 2
1532261808587132 0 1 -1 -8 -16 -10 0 -1
1532261808625031 2 2 2 4 -8 -6 -4 0
1532261808693847 -1 -4 1 -1 -7 7 -2 -2
1532261808759671 4 21 5 1 -8 18 -30 12
1532261808784604 -24 57 0 -6 -17 -9 3 1
1532261808849430 3 10 -5 -4 6 -31 -1 2
1532261808887329 1 -2 -4 -10 4 5 -3 -10
1532261808947170 -1 0 0 6 -1 2 6 -1
1532261808961132 -1 2 -7 -7 24 -23 -1 1
1532261809007009 -2 2 -4 -14 42 29 0 -3
1532261809012994 1 1 0 -16 -63 -40 -8 -1
1532261809075825 2 3 11 1 0 2 6 4
1532261809128684 -2 0 0 4 -36 -7 -4 -4
1532261809164588 1 2 1 3 11 4 6 -1
1532261809271302 -3 3 0 8 20 -6 -7 0
1532261809369041 -3 -5 1 -3 -10 10 -16 -1
1532261809428881 -1 -25 -7 -4 29 5 -8 -5
1532261809450822 -1 10 -5 -8 -3 -9 -5 -5
1532261809474759 0 7 -1 -6 -17 24 3 0
1532261809638320 1 7 0 4 1 -69 -2 1
1532261809661260 3 -13 2 2 7 -26 -4 1
1532261809684198 8 26 -6 -3 -5 3 -1 -9
1532261809698161 -15 -16 -4 -6 -13 0 -9 -53
1532261809720102 -8 -4 1 3 1 -5 5 4
1532261809743041 -9 0 -5 1 3 13 1 10
1532261809787920 -4 1 2 3 7 -2 9 2
1532261809801884 -25 -5 -1 -1 -1 -17 -3 -1
1532261809855739 0 0 -1 0 0 14 -4 -11
1532261809878678 -6 3 -1 1 9 11 2 -3
1532261809916583 -19 -15 -4 -2 9 -7 -3 -21
1532261809937521 -29 -35 -5 -3 -9 -12 -7 5
1532261810035260 56 54 0 6 32 76 -4 -12
1532261810063185 3 -25 -4 0 2 -16 7 6
1532261810192838 -24 -3 1 -17 -8 0 -35 -14
1532261810237718 -11 -12 -3 -1 -3 -18 6 6
1532261810274619 11 -1 -1 12 -6 50 6 6
1532261810304539 -1 33 3 3 -19 11 -4 -2
1532261810312518 34 23 6 -15 -8 -21 -14 3
1532261810382332 41 8 0 -10 15 17 20 5
1532261810462118 45 -24 1 7 68 52 -23 -10
1532261810495030 14 0 -2 -12 -28 4 -10 -11
1532261810559857 -13 23 3 13 36 -49 12 -3
1532261810588780 -10 -5 -1 13 13 -15 16 13
1532261810659590 -5 -10 -9 -24 18 11 -2 -6
1532261810679537 -20 -6 7 19 -41 -18 -2 0
1532261810748352 0 -12 -6 -10 -8 -31 -8 -3
1532261810763312 20 -4 0 -15 5 27 2 -3
1532261810785267 -49 -21 -10 -7 9 -13 -14 -14
1532261810806209 -25 -13 8 0 -18 18 2 -4
1532261810860054 -18 -17 -7 -10 25 -1 3 2
1532261810905932 22 -5 -8 -10 -78 -4 -13 -6
1532261811002673 -1 -8 -2 -6 -6 -33 -2 -2
1532261811062513 -9 -1 -3 -18 4 0 -5 -1
1532261811091435 41 11 -5 -10 -13 21 0 0
1532261811117366 -1 3 -8 -25 -22 11 11 4
1532261811151275 -63 -34 -1 23 14 -15 8 5
1532261811168230 11 14 3 0 22 -6 -2 -2
1532261811205131 -5 15 2 -10 -11 7 -8 2
1532261811303867 -4 -10 -8 -7 -17 4 -8 -2
1532261811324811 7 -29 -8 -6 -11 -20 -20 -9
1532261811362709 -5 19 0 -4 3 -2 2 -2
1532261811384651 10 -17 -1 4 4 -6 13 0
1532261811474411 -2 -3 -3 -2 -7 26 -6 -7
1532261811526272 -7 1 4 12 -22 -5 1 0
1532261811556192 20 -9 -5 -10 -35 6 -14 -5
1532261811602069 -4 -12 -2 -6 -5 -7 13 0
1532261811638971 -5 -3 -5 2 15 1 4 -3
1532261811661910 -2 6 -1 -3 -2 -22 0 0
1532261811738704 0 -12 1 -11 -39 -4 9 1
1532261811768624 -2 14 1 5 3 1 -9 -5
1532261811784581 22 -24 -5 2 7 -10 4 0
1532261811882320 -1 5 -3 -5 22 13 8 0
1532261811901270 -4 6 2 5 -10 11 2 -23
1532261811947147 -13 -1 -6 -13 23 0 4 -2
1532261812013968 -14 -8 -4 -6 -8 1 -1 -4
1532261812150602 -7 39 11 3 0 3 -2 -5
1532261812174557 9 -7 -4 -3 -2 -13 -6 -3
1532261812227398 -1 7 3 14 -12 -16 3 -1
1532261812248341 -3 -1 -4 -5 -4 7 -1 -1
1532261812380987 3 -14 -4 1 -2 -2 -3 -1
1532261812404923 5 -3 -2 -2 4 -1 -1 -1
1532261812487701 2 -4 -4 -1 2 3 1 -1
1532261812539580 19 -4 3 2 -2 -27 1 9
1532261812591424 -6 0 0 -2 4 20 7 -4
1532261812750998 1 1 0 1 12 6 -10 -1
1532261812774933 -2 1 -2 -9 6 18 0 -2
1532261812790891 -2 -3 -2 3 -19 45 3 -1
1532261812937499 -4 -9 0 -1 6 30 0 -4
1532261812977392 -2 -2 -4 -5 -10 -7 -4 -3
1532261813006320 -1 -2 2 18 52 25 3 2
1532261813079120 0 0 -1 -1 -3 -27 1 -4

1532261813291552 -3 -1 -1 0 -6 -9 -4 -1
1532261813380329 -2 -2 -2 -2 -2 -9 -3 -2
1532261813425209 -1 -3 -2 0 -3 0 -8 -3
1532261813491034 -1 -1 -2 -1 0 -5 -6 -2
1532261813582788 -1 0 -1 0 -3 4 0 -1
1532261813595753 -1 -2 -2 -2 0 -6 -2 -2
1532261813642628 0 -3 0 0 -1 -4 0 -2
1532261813709449 -1 1 1 -2 -1 -3 0 -2
1532261813728399 -2 -1 0 -1 0 1 1 -2
1532261813808185 0 2 0 0 -1 -17 1 0
1532261813824143 1 0 0 0 0 9 0 -2
1532261813836111 0 -2 -1 -1 0 4 -1 0
1532261813859049 -2 0 -1 0 -2 -2 -3 -1
1532261813866031 1 0 -1 0 0 -34 0 1
1532261813904927 0 0 0 -2 -1 -5 2 0
1532261813949806 -1 -1 -1 -2 -2 -3 -4 -2
1532261813964767 -1 1 1 -1 1 1 -1 -1
1532261814002665 -1 -3 -2 -1 -1 -1 1 -2
1532261814047546 -2 -2 -1 -2 1 -5 1 0
1532261814145284 8 2 2 4 6 7 3 1
1532261814220084 -2 1 4 15 11 17 -1 0
1532261814279936 1 -1 4 -4 -33 -22 -3 -2
1532261814564164 -3 1 3 6 -13 -9 18 -5
1532261814646943 3 2 -1 0 -1 29 -52 25
1532261814698804 -16 -5 -3 -3 -1 -58 -41 5
1532261814721742 -20 -4 0 0 0 4 -29 -37
1532261814751662 -2 5 2 1 5 10 -1 1
1532261814834440 11 6 1 -7 2 19 -29 -26
1532261814844427 6 5 13 28 6 16 16 9
1532261814887300 15 -2 -2 -5 21 -23 -34 -12
1532261814933177 -16 -11 -8 -8 -1 -43 18 -12
1532261814976063 -36 -8 3 1 -15 17 -19 14
1532261815002990 -3 -4 -7 4 -12 -21 32 20
1532261815074805 -5 -14 -2 -12 -9 37 -44 -27
1532261815188501 8 -7 -7 -23 0 -4 5 -1
1532261815218421 4 2 -11 -7 -3 -8 1 -7
1532261815248341 -3 0 -3 -1 3 -43 -5 -7
1532261815284245 -6 -9 -2 4 -2 -74 8 6
1532261815321146 -4 14 -5 -2 0 4 -9 -47
1532261815419883 -13 -8 1 -3 1 -42 -18 -12
1532261815510640 3 1 -1 -10 -8 -20 -29 -12
1532261815523606 -16 -1 0 1 4 42 9 0
1532261815576464 -14 -1 -5 -16 -6 -4 -9 0
1532261815608378 21 4 3 12 -4 -7 -11 9
1532261815652261 7 -2 -4 -9 -6 -42 -5 3
1532261815675200 2 -4 -1 -7 -8 -36 -4 15
1532261815697141 -18 -6 -6 1 5 7 4 15
1532261815746010 -3 9 3 4 3 13 9 3
1532261815840757 3 -3 -1 -7 25 -15 -15 -6
1532261815862698 -2 0 1 5 2 -43 -28 -19
1532261815922551 -1 -5 -1 6 3 -14 -13 8
1532261816082129 1 -4 -3 -8 5 18 10 -8
1532261816102059 -1 -4 -3 -3 3 10 0 0
1532261816163893 -5 36 -11 -5 5 -10 -1 -11
1532261816252656 0 -6 -4 -4 2 12 2 -2
1532261816298533 0 -2 3 10 4 4 -1 0
1532261816336443 -1 0 0 1 1 -2 -1 -4
1532261816349397 1 -1 -1 -2 0 34 5 1
1532261816387296 0 -2 -2 -1 2 5 6 -2
1532261816440154 1 0 -3 -1 -28 11 0 2
1532261816477055 -3 -2 1 0 -16 -19 -7 -3
1532261816575791 -2 1 0 7 25 17 3 2
1532261816613690 -4 0 1 -7 -77 -11 -3 -3
1532261816633637 -1 2 -2 0 7 2 -3 -2
1532261816651589 0 -3 0 1 -49 -9 5 0
1532261816681509 -2 -8 -2 6 50 14 -4 -3
1532261816695471 -2 -1 -3 3 14 -4 1 -1
1532261816808170 -2 -1 0 1 2 3 0 -2
1532261816830112 1 -2 -4 -2 14 1 -1 0
1532261816852053 -3 -1 -4 -4 -25 -10 -2 -1
1532261816889952 -2 0 0 2 23 -10 0 0
1532261816911893 -1 -2 0 -1 7 5 0 1
1532261816925855 0 0 -1 -1 -18 -11 -1 -2
1532261816972730 -1 1 -1 -1 -9 -17 -2 -1
1532261816986693 -1 0 -2 -1 1 12 -1 -3
1532261817046533 1 -2 -2 0 -1 -1 -2 1
1532261817102400 -1 0 -1 -1 1 0 0 -2
1532261817132303 -2 0 -2 -1 -3 -4 1 0
1532261817168207 -3 -3 -3 -1 0 -3 -2 -2
1532261817175189 0 -1 0 -1 7 6 -1 -1
1532261817190162 -1 -2 -2 -1 -8 -9 -2 -2
1532261817212090 1 -2 -2 -1 -3 -4 1 -2
1532261817249989 -1 -2 -1 -1 -20 -10 -2 1
1532261817271947 -1 1 0 -3 -11 -12 -1 0
1532261817310841 -2 -1 -1 -3 1 1 1 -1
1532261817362687 -2 -1 -2 -1 6 -1 -1 -1
1532261817422541 0 -1 -1 -1 -4 -5 -2 -1
1532261817466410 -2 -2 0 -1 -1 -1 -1 -1
1532261817490360 -1 -1 -2 0 -6 -8 -2 -1
1532261817520266 0 -2 -3 -2 -1 0 -2 -3
1532261817550186 -2 0 -3 -3 -3 -1 -2 -2
1532261817595066 1 -2 -1 -1 -4 -8 -2 -1
1532261817653908 0 1 0 0 1 1 -1 -1
1532261817677854 -2 -1 -2 -2 0 -1 -1 -2
1532261817699786 0 -1 -1 -2 -2 -2 -2 0
1532261817714746 -2 -2 -3 -1 3 4 0 -2
1532261817731700 -1 -1 -1 1 -4 -8 -2 -1
1532261817752644 0 -1 0 -1 1 3 0 -2
1532261817789546 0 1 0 -2 0 -2 -1 -2
1532261817795530 -2 1 0 0 -2 -4 -1 -2
1532261817842404 -3 -3 -2 0 0 3 -2 0
1532261817895263 0 0 -1 -1 -1 -1 -1 -1
1532261817916208 -3 -2 -2 -1 0 -1 -2 -2
1532261817962085 1 1 1 6 12 19 6 0
1532261817991007 2 8 5 25 -3 28 -5 0
1532261818022922 -1 -1 -7 -16 15 26 9 1
1532261818037882 -3 -6 4 -1 -22 -18 -1 -1
1532261818074783 -2 -3 -2 -1 19 -7 -4 -2
1532261818127642 -3 -2 -2 3 -3 7 -2 -3
1532261818172557 -9 10 7 4 -4 -14 -3 11
1532261818217402 7 -11 0 3 -2 -1 2 22
1532261818255301 9 17 2 -1 8 14 3 -19
1532261818268266 0 10 -2 0 5 -10 5 -17
1532261818285220 8 1 -1 0 9 48 -17 -14
1532261818315140 4 30 0 0 -11 -10 -8 -16
1532261818337082 1 -25 -4 -3 1 12 -1 -11
1532261818419860 -1 -11 -10 -21 1 10 -3 -6
1532261818485684 -5 -5 -14 -32 -4 -5 -1 -6
1532261818706105 0 -1 -3 -17 18 7 0 1
1532261818820788 -3 -3 0 -2 -7 15 -3 -3
1532261818907556 0 -3 1 3 1 -8 -6 -18
1532261818922547 -6 4 -2 -4 -16 -41 -12 -1
1532261818959418 13 1 0 -6 -6 -15 -1 -8
1532261819096052 8 15 -2 -10 -17 -16 -1 2
1532261819120002 1 6 -3 -6 -2 8 2 0
1532261819153898 3 -1 -3 -4 27 10 -1 6
1532261819199774 2 -2 0 -1 -9 -17 -3 -6
1532261819289535 -17 -6 -1 -3 -7 -11 -3 -32
1532261819350378 6 -4 -2 -2 1 -1 -1 1
1532261819373311 -4 1 -2 -2 -1 1 -2 -9
1532261819416196 16 12 -1 -8 -6 -12 -4 7
1532261819440132 -66 -32 1 9 2 -17 2 -10
1532261819521913 37 -6 -2 -2 18 2 5 26
1532261819574772 62 5 4 28 13 -12 10 -12
1532261819608681 -13 10 -1 -24 -15 34 14 43
1532261819644585 -81 2 0 17 14 71 5 29
1532261819696447 -3 -6 -6 -12 -6 14 1 11
1532261819718388 3 -7 -2 -13 2 -23 -7 -12
1532261819769252 7 6 3 3 8 -39 3 -4
1532261819968718 -35 -13 -3 -5 7 -13 -14 -8
1532261819989662 -18 -8 -3 8 7 -23 -12 -6
1532261820036537 4 -2 -3 2 -2 -7 -6 1
1532261820070447 10 4 2 -1 -16 -22 6 0
1532261820168185 29 11 3 -4 -7 -5 -4 -1
1532261820243982 -6 -3 -2 -1 -16 3 15 6
1532261820266921 9 4 5 6 -6 7 1 -1
1532261820309807 -5 -10 -7 -6 17 -26 -4 5
1532261820520243 -9 -7 3 -2 0 6 1 -3
1532261820537200 -1 -11 0 6 2 -2 10 0
1532261820565124 -13 36 2 12 11 -13 6 0
1532261820581081 -13 -11 -2 -11 -20 -3 5 -2
1532261820609006 34 -11 -2 9 9 19 13 -7
1532261820646905 -3 0 1 0 7 4 1 1
1532261820691785 -19 -5 0 -6 10 18 -7 -20
1532261820845374 10 -1 -1 6 14 -5 3 8
1532261820926158 9 -3 -2 -16 1 15 11 -1
1532261821038857 0 -1 -3 -8 4 16 3 -1
1532261821060798 -8 -3 -5 -7 30 31 -3 -3
1532261821103683 3 32 11 0 -1 0 -6 5
1532261821160532 -14 -20 0 14 4 -3 -5 -3
1532261821277220 2 0 4 9 9 -19 19 3
1532261821318109 -7 -8 -11 -5 -4 -19 -3 -4
1532261821381939 -14 -6 -5 5 -3 -3 1 -1
1532261821428814 -5 -1 -4 -1 1 1 -13 -3
1532261821594372 -19 0 2 21 -36 14 -7 -5
1532261821638254 2 -3 -2 -2 13 -3 -1 1
1532261821662191 -3 5 -1 -2 -4 0 3 -2
1532261821757934 -2 -3 -1 -4 -3 1 -6 0
1532261821803811 -12 -2 -1 -3 26 24 1 0
1532261821841719 1 -2 0 -4 -4 -3 3 -1
1532261821908531 -1 4 0 -1 4 31 -4 0
1532261821945433 0 -1 -2 -10 -32 -34 -6 -1
1532261822005285 1 -3 -8 -16 -2 -20 -7 -2
1532261822125950 1 0 0 -2 -1 10 5 -1
1532261822148889 0 -1 -2 -4 14 -13 0 0
1532261822173822 0 -1 3 21 18 18 3 1
1532261822190777 -3 1 1 0 1 6 -2 1
1532261822222698 -2 0 0 3 -5 -42 -2 -2
1532261822259593 -1 0 -1 0 4 -7 1 0
1532261822267571 -1 0 -1 -5 9 16 6 -1

1532261822328408 -1 -1 0 -2 -20 10 6 2
1532261822395230 2 2 1 -3 -9 -12 3 2
1532261822455070 0 0 0 -1 -35 25 1 2
1532261822468035 -1 -1 0 3 16 11 4 -3
1532261822514910 -1 2 2 1 47 20 -1 -1
1532261822544830 1 0 -2 -1 9 3 0 -2
1532261822580734 0 1 0 0 -1 -10 3 0
1532261822656531 0 -1 -1 -1 1 0 2 -2
1532261822673489 0 -1 0 -1 -1 -4 3 0
1532261822695427 -1 -2 0 0 -1 -6 -5 0
1532261822717368 -2 -1 0 -1 2 -1 -1 -2
1532261822807368 -1 0 0 -1 0 2 1 -1
1532261822837288 -1 -1 0 -2 0 0 -1 0
1532261822936024 -2 -2 0 -1 -2 -3 -1 0
1532261822955970 -2 -3 -3 0 0 -2 -1 0
1532261822973923 -3 1 -1 -1 -2 1 1 -1
1532261823001848 -3 -1 -2 -2 -1 7 3 -2
1532261823047725 -1 0 1 -1 -1 0 0 -1
1532261823060690 -2 -1 -1 -2 -1 3 7 -1
1532261823120531 -2 -1 0 0 0 1 -3 -1
1532261823174387 -1 0 -2 -2 -1 -3 -5 -1
1532261823205303 -1 0 0 0 -2 -3 -1 0
1532261823227245 -2 -3 -1 -1 -2 0 -4 -1
1532261823249186 1 -1 -3 -1 0 -3 -1 -2
1532261823295064 1 -2 -1 -3 0 2 6 -1
1532261823309026 -2 -1 -1 -1 0 -1 -5 -1
1532261823324983 -2 -1 -1 -1 -3 -16 -3 -1
1532261823346925 1 -1 0 0 0 1 -3 -1
1532261823399785 -2 -1 -2 -2 -1 9 -2 1
1532261823420728 0 -2 0 -1 -2 2 0 -2
1532261823460621 0 1 -1 -1 1 1 0 -1
1532261823491538 -3 0 -2 -1 0 2 -1 0
1532261823534424 -1 -1 -2 -3 -2 3 -2 -2
1532261823558360 -1 -3 -4 -11 -3 2 0 -1
1532261823610221 -2 -4 -8 -14 2 8 5 -1
1532261823759821 0 -2 -7 -14 -2 -6 -1 14
1532261823768797 -6 0 6 29 40 33 -48 -13
1532261823805710 20 1 -2 -3 -4 -6 30 21
1532261823873517 -6 -1 -2 5 8 -16 6 -49
1532261823897452 3 0 -1 -2 1 6 15 20
1532261823923384 -5 0 -4 0 -6 -28 -27 -13
1532261823970258 11 0 -3 -12 -1 11 -2 29
1532261824015138 -3 1 4 7 19 59 7 -1
1532261824045058 -3 -1 -2 -6 5 -32 -6 1
1532261824114872 1 -2 -3 -2 7 45 23 7
1532261824209618 7 6 3 1 11 -23 -11 -56
1532261824301373 3 4 4 -11 -16 5 2 17
1532261824392130 0 0 -8 -11 -2 28 -11 -13
1532261824412077 9 -3 -4 -11 -6 -67 5 19
1532261824489869 4 16 5 37 16 5 26 18
1532261824578632 -1 -7 -2 -13 1 23 9 -7
1532261824601570 -6 -6 -2 0 -1 -13 11 13
1532261824668391 -1 -4 -2 -1 3 10 -12 -14
1532261824692328 1 3 -2 4 -1 13 -13 -5
1532261824737208 0 4 11 40 -5 11 13 -6
1532261824759160 2 0 -5 -11 2 36 0 11
1532261824900770 -3 -8 -3 1 4 42 22 8
1532261824921714 26 35 4 -7 7 -4 25 23
1532261824948642 -11 -20 -7 -1 -17 -43 4 13
1532261825071314 0 5 -6 -3 -5 -12 2 7
1532261825222918 -1 1 -2 -6 -1 2 -9 4
1532261825238866 2 5 -2 1 -2 4 -9 5
1532261825304689 -1 -3 -3 -10 0 -2 13 7
1532261825365527 -3 -2 -4 -3 -3 -52 -6 -7
1532261825386471 -2 -2 0 2 -1 18 -23 -5
1532261825433345 0 18 -1 -4 -1 27 11 0
1532261825455294 -1 -4 -4 -5 -7 4 -15 -22
1532261825480221 7 11 6 -8 -4 2 4 4
1532261825501165 1 8 1 6 1 1 5 -1
1532261825517121 -3 -2 -1 -3 -3 -13 -1 -2
1532261825537068 -3 -5 -5 1 -7 -2 0 -3
1532261825687666 14 0 0 -2 5 7 -2 -1
1532261825733546 -6 -2 -6 -3 -27 9 -5 -2
1532261825755485 0 1 1 -1 6 -9 1 3
1532261825768450 0 2 3 4 1 -6 3 1
1532261825897106 1 -5 -3 -5 -68 -44 -4 -1
1532261825964924 -1 1 -1 2 3 21 8 8
1532261826009805 -3 -1 0 4 34 7 3 -4
1532261826053687 -1 -3 -1 -3 -4 1 -3 -4
1532261826076626 -3 -3 -1 -3 -13 -7 -3 1
1532261826136465 0 0 -1 -1 0 9 -3 -4
1532261826196306 -1 -2 -1 0 -3 -6 2 0
1532261826280082 1 1 0 -1 0 5 2 -1
1532261826346903 -4 -1 -1 -2 -2 -2 -2 -2
1532261826474562 1 0 -1 -1 -2 6 -1 0
1532261826564321 1 0 2 -1 1 -1 -2 2
1532261826654081 -2 0 -2 -2 -3 -2 2 0
1532261826798694 -3 -1 2 -1 0 -4 4 -2
1532261826856540 -3 -3 -2 0 -1 1 0 -2
1532261826902417 -2 0 -1 1 -2 -5 -4 0
1532261826954279 1 -1 -1 -1 -2 -3 -1 -2
1532261826999158 -1 -3 -2 -2 -1 -4 1 0
1532261827067975 -1 0 1 -3 0 1 -1 0
1532261827179686 -1 -2 -1 -2 1 -7 -1 -1
1532261827202615 1 1 0 0 -1 -4 -4 -1
1532261827216577 -2 -1 -1 -2 -3 1 2 -1
1532261827239516 -3 -1 -2 -2 -1 3 -2 -3
1532261827300353 -2 -3 -1 -2 -1 5 -5 -3
1532261827330273 -3 -3 -2 -2 0 -3 1 0
1532261827366177 -14 -2 1 3 -20 -55 -5 -13
1532261827378145 4 6 -11 -19 -8 -3 5 -3
1532261827400087 1 15 1 -10 37 24 -2 -1
1532261827464914 -3 36 4 0 -7 4 -2 -2
1532261827486854 -6 -13 1 14 2 0 -1 0
1532261827563649 -2 -7 -9 -12 -21 -5 -1 -2
1532261827586587 0 20 1 3 -2 -1 -2 0
1532261827599553 -4 -57 -12 -2 -2 -5 -7 -5
1532261827644433 35 65 5 -4 -21 -14 3 15
1532261827676348 -5 -35 2 3 1 5 0 -15
1532261827698289 0 -16 7 26 11 14 2 10
1532261827733196 -7 -12 -4 1 -3 -8 3 10
1532261827839910 1 -5 -2 18 -38 2 -11 -2
1532261827913713 2 -2 1 10 20 15 -4 -3
1532261827998487 0 0 5 20 -27 -16 3 0
1532261828019431 -2 -2 7 -6 -24 -7 -18 -10
1532261828033393 -1 -4 -10 -10 30 23 4 2
1532261828095228 -1 3 -1 3 7 5 11 2
1532261828161052 -1 7 -5 -2 10 13 -10 -2
1532261828214908 1 3 4 17 22 24 6 3
1532261828275745 -1 -4 1 -1 17 13 8 0
1532261828298684 1 9 -2 -2 -5 14 -12 -1
1532261828308657 0 -4 -2 -12 -27 12 2 0
1532261828365504 0 2 2 -2 1 15 -3 -2
1532261828487180 -3 -5 -3 7 34 13 5 -1
1532261828509125 0 -4 3 0 -28 -18 4 3
1532261828532060 -1 6 1 2 -6 17 -1 1
1532261828581926 1 0 2 1 7 -15 4 1
1532261828629798 -2 -3 -2 -1 17 20 -2 -3
1532261828686646 -2 5 1 -2 -11 4 1 -2
1532261828787376 2 4 1 -1 10 13 -1 0
1532261828808321 0 19 1 0 -9 -8 -2 -5
1532261828847217 -2 4 0 -1 1 1 0 2
1532261828866166 -4 -13 -4 1 24 12 1 -7
1532261828888107 0 5 4 3 -1 0 -1 0
1532261828943958 0 0 3 7 -2 0 0 -2
1532261828994822 4 -1 3 1 5 1 -3 3
1532261829242161 -3 -1 0 -2 -8 -14 -3 -4
1532261829272081 -20 -2 -4 -8 4 -40 -3 3
1532261829332919 95 7 1 3 6 -10 0 10
1532261829356854 -113 -21 -10 0 3 -5 -3 -15
1532261829385776 3 9 3 3 44 48 -8 -32
1532261829443622 -78 -20 -10 2 29 96 35 28
1532261829458582 103 9 9 8 -23 48 -1 -8
1532261829496481 37 20 3 -17 -23 -20 -6 22
1532261829527398 33 11 -1 5 -47 -7 -1 18
1532261829589234 -30 4 6 1 -61 -68 2 -10
1532261829641094 0 -20 1 8 -2 41 23 15
1532261829664032 23 14 7 -4 24 3 0 7
1532261829698939 -62 -56 -12 2 0 -4 -13 -22
1532261829737835 21 10 -1 2 8 19 -1 3
1532261829774736 -2 0 -6 -12 -8 -4 -9 -8
1532261829978192 25 -2 -2 8 17 -1 -1 0
1532261830001131 -3 -2 -5 -17 -9 -10 -5 -1
1532261830133776 -13 -31 -7 -10 -17 5 2 1
1532261830271408 -25 5 -2 -10 14 24 6 5
1532261830322272 -63 -25 -11 -31 -3 -12 18 -11
1532261830339227 -30 -14 -6 -6 -4 6 0 1
1532261830494811 15 9 4 8 -1 18 6 5
1532261830548667 21 4 4 9 -12 -37 -15 -3
1532261830598533 31 -3 -7 -3 2 -8 -8 -1
1532261830617483 9 -14 -1 -1 4 17 -2 -3
1532261830660368 10 5 2 6 18 11 4 5
1532261830712230 -19 3 0 5 -4 -29 -3 -6
1532261830783040 20 -4 -4 -4 0 2 -7 0
1532261830819942 -6 -6 0 17 7 30 9 1
1532261830826923 19 0 -1 3 9 3 0 3
1532261830958571 -1 5 1 3 1 6 0 3
1532261831082257 -17 -10 -5 -1 7 17 5 3
1532261831104185 0 -5 -4 -11 -18 -27 -11 -5
1532261831191962 12 -11 -4 -8 -5 -15 -5 0
1532261831260762 18 1 -1 -4 0 -16 -2 0
1532261831306640 -32 -4 -2 2 -7 6 -4 -2
1532261831342544 -1 4 -1 -1 -1 8 -4 0
1532261831381439 4 0 2 5 1 3 3 1
1532261831397397 -43 2 0 1 -1 -14 1 -5
1532261831440283 4 9 3 -3 2 3 -1 -1
1532261831470202 3 -8 0 15 2 4 1 -1
1532261831620800 11 -2 -4 -4 4 9 6 -2
1532261831644736 -12 -2 -1 0 5 7 -1 -1
1532261831717541 9 -1 2 0 -10 4 -2 -2
1532261831839216 -7 -6 0 9 10 2 3 -1
1532261831861157 5 -2 0 0 -1 -3 -2 0
1532261831877115 -11 -1 -2 -3 -10 -17 2 -1
1532261831896064 -28 -8 0 0 5 11 -3 -4
1532261831930971 8 3 0 0 1 4 1 1
1532261831949920 2 0 -2 -4 -9 1 -3 -2
1532261831972859 -6 -3 1 0 0 21 -8 -3
1532261831994800 -2 3 3 1 4 7 4 1
1532261832071595 -3 -4 -2 -5 -14 -34 -3 -4
1532261832162352 -1 -4 -6 -7 4 14 -4 -1
1532261832212218 3 -3 1 8 4 -21 0 2
1532261832274053 -1 12 -2 -11 -15 -16 -3 -2
1532261832280036 -1 -4 -10 -24 -71 -68 -9 -3
1532261832392736 2 6 -3 0 6 1 1 -1
1532261832405701 -2 -6 -4 -6 -5 -3 -6 -2
1532261832452576 0 -3 -3 5 7 -1 2 0
1532261832602176 0 -1 0 0 -1 2 4 -2
1532261832625115 0 1 0 -2 -2 -1 -1 -1
1532261832662016 -3 -2 -2 0 -2 -2 5 0
1532261832691935 -1 -1 0 0 -2 10 4 0
1532261832759754 0 -1 -1 0 0 -2 4 0
1532261832780697 0 -1 0 -1 -2 -5 -3 -1
1532261832834554 -1 -1 -2 -1 -1 -1 -1 0

1532261832910352 -2 -1 -4 -3 -1 -2 0 -2
1532261832947253 -2 -1 0 1 -1 -4 -3 -1
1532261832993130 -1 -1 0 -2 -1 0 -1 0
1532261833029034 -2 -1 -1 -1 -3 -2 5 1
1532261833051973 0 -2 -1 0 0 1 0 -1
1532261833088874 -3 -2 2 0 -1 -3 -5 -2
1532261833134751 0 -2 -3 -2 0 -3 -1 -1
1532261833194591 -1 -1 -3 -3 -2 -1 -2 -1
1532261833240469 0 2 -2 -1 -1 1 1 1
1532261833293328 -1 -3 -1 -1 -1 0 -1 0
1532261833328234 -1 -2 -1 0 0 3 -3 -2
1532261833351172 -1 -2 -1 1 0 3 -4 -2
1532261833433951 -2 0 -1 0 -1 -5 -6 -3
1532261833591543 0 -2 -1 -1 -2 3 -2 -1
1532261833706223 1 -1 1 -1 -2 3 3 -2
1532261833853829 1 -2 0 -2 -3 -1 -1 0
1532261833914665 1 -2 -1 1 -2 1 -1 -2
1532261833944586 -1 0 -3 -1 1 -4 -3 -1
1532261833997444 -2 -2 -1 -1 -2 -1 -2 -1
1532261834034346 -2 -4 -1 0 1 -1 -1 1
1532261834057285 1 -2 -1 -2 -3 -3 0 -1
1532261834094186 1 -1 -1 -1 -1 0 -6 0
1532261834132085 1 1 0 -2 -1 7 7 -1
1532261834176965 1 -1 1 1 0 -8 -4 -2
1532261834213865 1 3 2 21 6 1 -1 1
1532261834244783 -2 -4 -3 -6 -8 -2 -5 -2
1532261834282681 0 -1 -2 -5 -1 15 -3 -1
1532261834304623 -2 1 -5 -4 -2 -56 -5 -3
1532261834334543 1 2 3 0 -4 12 -3 1
1532261834372442 -2 1 6 19 7 1 -5 -7
1532261834394383 5 2 9 18 -8 7 -13 -6
1532261834446244 -5 -1 -4 -19 -1 -5 -15 -9
1532261834500101 -2 -1 1 5 7 10 12 -4
1532261834522042 -1 -1 -5 8 -22 4 49 1
1532261834566922 -5 -4 -4 7 11 -5 -14 1
1532261834591865 -4 2 8 14 5 10 -7 -58
1532261834611802 -6 -8 -8 -10 -1 6 -5 8
1532261834650698 3 1 0 -5 -1 -10 8 36
1532261834670645 0 -3 -3 -5 -4 -13 -12 12
1532261834694581 -1 -2 -2 0 10 0 -17 -4
1532261834716521 3 0 3 -7 8 25 12 2
1532261834748436 1 2 1 5 7 -49 -19 -33
1532261834778370 -3 0 -5 -5 -3 -1 -21 -8
1532261834844180 2 -2 4 16 1 -30 -10 -20
1532261834892053 -2 0 -1 -9 -11 -1 -5 2
1532261834935935 4 0 -2 8 0 -8 -15 -3
1532261834994778 -4 -2 1 -8 3 5 9 -11
1532261835011732 0 2 1 24 10 23 -20 -12
1532261835056613 -1 2 3 17 -12 -12 -17 -9
1532261835122440 2 -1 7 16 7 30 11 -4
1532261835549295 -4 -4 -5 -7 -1 0 -20 -4
1532261835573231 2 6 1 5 0 -1 21 13
1532261835678948 -1 -3 -4 -5 -3 -7 -2 -8
1532261835721833 -3 -2 -2 -1 -7 1 -14 -3
1532261835800623 -2 -3 -2 -9 4 5 7 -2
1532261835833535 -3 6 -3 -11 -4 -6 5 7
1532261836044970 2 1 0 0 0 5 -7 9
1532261836066911 0 -4 1 9 -1 2 8 9
1532261836083865 -1 2 7 8 2 5 -1 -2
1532261836104809 -1 -3 0 3 -6 2 3 1
1532261836127748 -3 -1 -1 3 0 0 0 -1
1532261836232468 1 -1 0 -2 1 -3 -1 -2
1532261836279343 0 1 -1 4 2 2 3 0
1532261836301284 -2 -1 -3 -2 -1 -8 -5 -2
1532261836347161 0 0 0 -1 -6 4 -2 -2
1532261836390058 -2 -5 3 0 2 3 -4 8
1532261836464862 1 1 -2 -5 -10 -14 5 0
1532261836532665 -3 6 -3 -6 -7 -17 -7 0
1532261836547642 1 6 4 -7 -43 -25 -1 1
1532261836569581 -2 -3 -2 -9 -57 14 3 0
1532261836592504 -6 -5 -1 13 56 -6 4 19
1532261836613449 -3 11 1 8 15 11 14 18
1532261836697224 1 5 5 9 25 -20 -6 -11
1532261836742106 1 3 -1 -2 -12 -9 -5 -5
1532261836810921 0 3 1 -2 -15 -10 3 -4
1532261836854804 -2 -1 -1 -2 -10 -8 -2 0
1532261836877742 -2 -1 -1 2 1 -28 -3 -1
1532261836892702 1 2 -2 0 -3 5 1 -1
1532261836907673 -1 0 -2 -3 -2 -3 1 -1
1532261836958526 0 1 2 2 0 2 1 0
1532261837088180 1 3 -2 0 0 -2 2 1
1532261837114110 0 0 0 1 2 -3 -3 0
1532261837133060 1 0 -1 0 -2 -4 -2 -2
1532261837153006 0 -2 1 2 2 0 0 2
1532261837190905 -1 0 2 -2 -3 0 0 0
1532261837250745 0 3 1 -2 -1 4 -3 -2
1532261837381395 -1 -1 -3 -2 -2 0 0 -2
1532261837410318 -1 0 -2 -3 -3 -5 0 -3
1532261837453204 -2 -4 -2 -1 -1 0 0 -3
1532261837479134 -3 -2 2 2 0 -2 1 -2
1532261837491102 -1 -3 -2 -3 -1 1 0 0
1532261837590836 -2 -2 -1 1 -1 -11 -2 1
1532261837642697 -2 -2 -3 -1 -1 1 -2 -1
1532261837753401 1 0 -2 -2 -1 2 3 -2
1532261837783321 -1 -3 -2 -1 0 -1 1 -2
1532261837958852 -13 0 -2 10 -1 -5 1 0
1532261837965833 -3 -4 5 -11 -24 62 1 -3
1532261838009716 2 -7 -6 -12 -2 0 -1 0
1532261838034649 2 4 4 2 8 1 1 0
1532261838053598 -5 11 -2 -12 -9 1 -1 -3
1532261838130393 -3 -15 3 2 1 2 0 0
1532261838162307 0 -7 0 3 4 4 1 -4
1532261838174276 4 34 1 1 3 9 5 6
1532261838223150 -9 -23 -4 -2 -6 -10 11 -16
1532261838226147 -8 2 3 3 14 10 -5 1
1532261838242094 -3 -15 -8 -4 11 6 -2 -3
1532261838264035 1 8 1 -1 -29 -7 -7 3
1532261838286974 6 12 2 0 18 9 -2 0
1532261838309912 -4 24 -1 -7 4 -4 -1 -1
1532261838360776 -5 -15 -4 -15 6 61 14 3
1532261838429593 -1 -1 -2 -5 2 -30 -12 -8
1532261838444553 0 -2 -3 -6 -8 20 -3 -3
1532261838475470 4 22 8 7 -7 -3 2 2
1532261838512372 -1 0 -2 -3 22 15 0 -1
1532261838558248 0 -1 0 2 8 10 -7 -3
1532261838566228 -2 -3 0 -2 -4 4 -4 -3
1532261838647012 -1 2 1 9 -45 -14 -1 -2
1532261838692894 2 2 7 6 -19 2 1 1
1532261838776665 -2 -1 4 6 -38 -28 -21 -7
1532261838896345 -2 -18 -2 7 7 11 -1 -1
1532261839150665 2 -3 1 11 12 9 4 3
1532261839159640 -1 7 -1 3 16 -10 -7 -4
1532261839261368 0 -3 -4 -1 -2 -2 1 0
1532261839668280 -6 3 1 3 0 -6 1 1
1532261839735101 30 -6 4 -3 -30 -21 -2 18
1532261839750061 -32 6 3 14 2 85 4 23
1532261839901671 20 16 12 -1 -58 -36 -14 -7
1532261839975459 -45 -4 4 -3 -24 -27 -2 -1
1532261840028318 -51 -44 -6 3 23 -3 -8 -9
1532261840140019 -21 -1 3 8 26 4 8 -1
1532261840274658 -11 6 -8 -9 -46 -28 -8 9
1532261840349459 1 12 5 5 6 20 10 -7
1532261840394338 14 2 0 9 26 5 4 -11
1532261840439220 4 8 -5 -14 -95 -67 -5 0
1532261840485096 -14 -7 0 -2 -18 26 4 4
1532261840627714 -2 -8 0 -5 -28 -26 -12 -8
1532261840649656 -11 2 0 15 18 -12 0 -3
1532261840717475 -14 -15 -6 -4 -50 28 -14 -6
1532261840731437 -5 -8 1 0 13 -31 1 0
1532261840785293 -8 -5 -2 0 11 3 12 4
1532261840822194 -37 6 -5 -17 -25 5 -1 -1
1532261840837154 29 14 1 -3 -17 -9 -1 4
1532261840860093 21 11 -2 -6 13 4 -4 1
1532261840950850 41 13 11 39 18 8 3 1
1532261841009693 -40 -12 -6 -21 6 1 1 -4
1532261841077512 -18 -2 -4 -9 33 -2 -3 -5
1532261841114413 14 3 2 5 -12 1 -2 1
1532261841153309 12 -9 -4 7 7 3 -3 -1
1532261841226115 12 -2 -4 -9 13 38 6 1
1532261841253043 -6 -4 -1 -2 1 8 -4 -5
1532261841273987 -47 -12 -3 -2 1 -14 -1 -1
1532261841293933 10 -7 -2 -1 26 4 0 -2
1532261841318867 12 5 -1 -2 1 -15 -8 -2
1532261841331832 -1 -3 2 3 16 27 1 1
1532261841353773 36 0 -2 -6 -7 12 -1 1
1532261841399662 -5 11 4 -1 15 -54 -4 2
1532261841414610 17 -2 -4 -4 -3 -5 -1 0
1532261841459491 2 6 2 7 11 6 -4 -2
1532261841528307 2 -6 -6 4 -10 -14 -3 -6
1532261841543266 4 3 -1 -12 -6 -2 0 2
1532261841574184 6 3 0 1 30 12 3 2
1532261841596125 -4 -4 -1 0 9 -1 -2 -2
1532261841631032 38 7 1 -1 4 31 -1 -2
1532261841653970 3 5 2 8 -11 -1 0 0
1532261841715805 1 0 -1 2 12 10 -1 -2
1532261841752706 0 -1 -2 2 4 -27 -3 -2
1532261841804567 -10 1 4 2 3 -58 5 14
1532261841827506 -1 -1 -3 -5 -24 -44 -8 -13
1532261841849448 3 -1 0 3 4 78 0 3
1532261841894328 -1 -1 -2 1 18 11 1 -4
1532261841932226 0 0 -1 2 -12 -6 0 0
1532261841962146 1 -1 -1 -4 -11 -9 -3 -1
1532261841985085 -1 -3 -4 -1 0 5 -2 0
1532261841999047 0 -4 1 -9 -12 -1 0 2
1532261842081826 0 -1 -5 -8 -5 -4 2 0
1532261842105765 -5 -1 0 -8 9 6 -3 -2
1532261842128701 -3 -4 -3 -8 10 6 0 -2
1532261842164605 -2 -5 -4 -4 4 -1 0 0
1532261842170589 2 0 1 6 -17 -1 2 0
1532261842231427 -2 0 -1 -4 13 3 -1 -4
1532261842262344 1 -3 -6 -4 -8 -2 -1 1
1532261842292263 -2 -7 -4 -7 -25 -19 -3 -2

1532261842339138 1 0 -1 2 4 -4 -2 0
1532261842375042 -2 0 4 3 24 19 1 5
1532261842397982 2 3 3 0 29 24 -1 -3
1532261842418924 -1 -2 -2 5 -9 -8 2 0
1532261842442861 0 4 0 -6 -15 5 -3 -1
1532261842457821 0 -2 -3 -1 10 11 -3 3
1532261842487741 -2 -1 -1 -1 3 1 0 2
1532261842517661 -2 -3 -1 1 -14 -4 -1 -3
1532261842561543 -3 -4 -2 -2 3 -2 -4 -5
1532261842592461 1 -1 -2 -4 -8 -5 0 1
1532261842615399 0 0 -3 0 5 -3 -2 1
1532261842639345 -1 -1 0 0 0 -1 -2 -1
1532261842682221 -1 -2 -2 -1 -3 -6 1 -1
1532261842720119 -1 0 -1 -1 -2 -3 0 0
1532261842764999 0 -1 -4 -1 0 0 1 1
1532261842779960 -1 0 0 0 0 -3 -1 1
1532261842816860 -1 -1 -1 0 -1 4 -1 1
1532261842839800 0 -1 0 -1 -3 -1 -1 0
1532261842862738 0 -1 0 1 -2 0 1 -1
1532261842884680 -1 -1 -1 0 1 -2 0 -1
1532261842898642 -1 -3 -1 -3 2 0 0 -3
1532261842913602 0 1 -1 1 -2 3 -1 -2
1532261842938545 -1 -1 -3 -1 -3 -2 -5 -2
1532261842959479 -2 -3 -1 0 -1 -3 -3 0
1532261842973441 -1 -2 -4 -3 -1 -4 -1 -2
1532261842997378 -1 -1 0 -1 -1 -2 -4 2
1532261843020316 -2 -1 -1 -1 -1 -5 0 -1
1532261843033281 0 -1 -1 0 -1 -2 -1 -3
1532261843080156 -3 -3 -2 1 -1 -2 1 0
1532261843102098 0 0 0 -1 -1 4 2 -1
1532261843119053 -1 -1 -2 0 -3 -4 3 0
1532261843142005 -1 -1 -2 -5 1 0 -7 -4
1532261843162935 -1 -2 -1 0 -2 -13 0 0
1532261843178893 -2 0 1 -1 2 14 -3 -2
1532261843213799 -1 -4 0 -1 -2 5 0 2
1532261843246711 -1 0 0 -3 -2 -6 -1 -1
1532261843250713 -1 -3 -6 -6 -12 -4 -2 0
1532261843282615 -4 -5 -6 -16 0 -11 0 -1
1532261843296578 -1 0 -7 -1 20 6 -1 0
1532261843342455 -2 -1 -1 -14 -4 -29 0 -3
1532261843356418 1 -1 6 17 11 -23 2 0
1532261843410274 -1 -3 -2 1 -3 13 -2 2
1532261843425234 3 0 5 10 -2 5 3 3
1532261843476098 2 2 3 29 -12 -2 -1 -1
1532261843495063 -3 1 2 14 5 -3 1 -1
1532261843508013 -2 -1 -4 -5 -18 -12 1 0
1532261843521975 0 -3 -5 -6 3 6 2 0
1532261843535938 -1 -1 0 1 -9 -10 -3 -1
1532261843550897 1 -1 -5 5 -11 -21 -1 0
1532261843582812 -2 -3 -3 10 7 0 0 1
1532261843595778 0 -1 -1 -3 2 5 0 -1
1532261843612733 0 -2 1 0 1 2 -2 -2
1532261843658610 1 0 3 -3 -1 8 -1 0
1532261843679554 -2 -3 -3 4 12 -2 -1 -2
1532261843702493 2 1 -1 -9 -6 -1 0 0
1532261843724434 0 0 -1 -6 -6 1 0 -3
1532261843747375 -3 0 -5 -8 4 -1 -2 0
1532261843776294 4 0 3 -2 -5 -2 0 0
1532261843792252 0 1 1 2 1 -2 -2 0
1532261843839127 -3 -2 -3 2 -1 -3 -3 -2
1532261843845111 4 0 4 3 2 3 -1 0
1532261843860070 1 0 0 -1 -1 -5 2 1
1532261843882012 -7 -5 -4 -5 -2 -6 -2 -3
1532261843912929 0 -3 -6 -4 -5 -2 -4 -2
1532261843942850 0 -3 -4 -1 11 9 4 0
1532261843955815 2 1 -1 2 9 1 -5 -1
1532261844004688 -7 -3 -4 -7 3 5 -2 -2
1532261844023634 -2 1 1 -2 4 -3 -2 -3
1532261844072503 1 5 7 19 11 36 3 0
1532261844092450 -2 -2 -5 0 0 -23 -8 0
1532261844108407 -2 -2 -3 -3 2 -6 -41 -12
1532261844153287 -6 -8 -10 -7 -31 -5 -44 -9
1532261844183207 2 0 2 2 15 11 30 15
1532261844235068 0 -10 -7 -8 1 -32 -78 -15
1532261844280945 -3 -6 1 -2 3 -32 -5 -1
1532261844325826 -1 4 -1 -5 1 24 -11 -10
1532261844348764 6 6 6 22 34 13 58 30
1532261844371717 -2 -3 2 3 4 62 41 23
1532261844385665 7 4 4 -1 -2 21 18 13
1532261844414588 0 -1 0 0 -1 -25 -22 -5
1532261844467447 -1 -3 -9 -7 -20 -13 -2 -6
1532261844534268 -2 -1 1 -2 -3 30 -21 -9
1532261844579148 -4 -3 1 8 -1 -12 -13 -4
1532261844628018 3 0 7 23 -4 -2 -5 -5
1532261844648961 5 4 0 -19 7 -16 3 -6
1532261844662924 -4 -7 0 -5 8 43 -24 -25
1532261844684866 28 80 1 -7 -7 -26 -11 4
1532261844714786 -14 -35 1 2 -3 -9 1 -1
1532261844792577 2 29 3 6 -9 27 -8 -12
1532261844834465 -5 -29 -1 1 -8 42 21 -8
1532261844905276 -2 5 2 11 7 53 18 14
1532261844927217 2 -3 -3 -3 -3 -19 1 9
1532261844977084 -6 -9 -3 1 1 5 -2 -12
1532261844999025 0 -2 4 18 8 18 18 28
1532261845203479 -1 5 1 -3 -3 11 -16 -2
1532261845227416 0 3 8 22 7 -10 1 6
1532261845241378 0 -4 3 15 12 11 16 11
1532261845323159 0 -16 -6 -8 -1 9 -1 -4
1532261845496694 -1 2 0 6 4 1 -15 4
1532261845502679 -4 -16 -4 -6 0 15 2 -6
1532261845547558 -2 -4 0 5 8 -5 -1 0
1532261845637318 -2 0 -6 -13 -5 -1 -8 -6
1532261845691174 -1 -5 -2 -3 -5 8 -1 -3
1532261845779937 1 -1 0 2 -2 0 0 -1
1532261845817840 1 -1 1 6 1 -13 -4 0
1532261845847756 -2 -2 -3 -7 -5 -5 2 1
1532261845890641 0 -1 1 1 -2 -8 -2 2
1532261845922560 -6 4 1 0 3 -8 -1 1
1532261845983393 -5 -5 -1 -1 4 45 5 0
1532261846028273 11 -1 -4 -2 29 -27 -1 13
1532261846049216 1 1 5 10 27 49 5 8
1532261846267633 -5 -6 1 7 19 8 1 -2
1532261846304534 -10 3 0 4 6 8 -18 -72
1532261846363376 0 0 -1 0 11 19 5 5
1532261846410261 -3 -1 -1 -3 -1 9 2 -2
1532261846432193 -1 -1 -2 2 -1 1 -5 -7
1532261846492033 0 -3 -2 -2 -2 3 2 -6
1532261846521953 -3 -1 -2 -1 -1 -4 1 -1
1532261846559851 1 0 0 -3 0 -6 -1 -1
1532261846589772 -1 -3 -2 -3 0 7 -1 -1
1532261846657590 -1 -1 -1 -3 -2 -9 0 1
1532261846800209 1 2 1 0 1 -10 -1 -1
1532261846815169 -4 -2 0 -1 -2 -1 -2 -1
1532261846890966 -1 -3 -2 -3 1 -6 0 -1
1532261846927867 -1 2 -1 -1 -2 1 1 -1
1532261847032587 1 1 -2 0 1 -3 1 -1
1532261847123345 -3 0 0 -2 -2 -7 1 -1
1532261847181190 0 -3 -3 -1 -1 2 -11 -2
1532261847250006 -2 -3 0 -2 0 8 0 -2
1532261847355738 0 -1 -2 -1 1 11 5 0
1532261847392641 0 0 -2 -2 1 19 5 -1
1532261847438518 -2 0 -5 -22 -16 -9 2 1
1532261847475420 -2 -6 -14 1 7 -17 -3 -1
1532261847520300 -1 -3 -11 -14 11 2 -2 -2
1532261847624023 -4 -8 -9 -18 -7 5 -1 -2
1532261847654939 0 -8 1 0 1 -4 -4 1
1532261847673889 4 28 0 1 4 0 -6 -15
1532261847692838 -1 -6 5 -1 -3 8 -22 -17
1532261847705803 26 51 -1 -5 -7 -23 2 8
1532261847737718 10 -63 -14 -5 -2 -7 2 0
1532261847775617 7 10 -2 1 -5 4 1 2
1532261847834459 -14 -1 3 12 -41 -2 -9 -4
1532261847857398 -4 -16 0 -8 -8 -33 -7 -1
1532261847947158 -4 -2 -4 -17 -8 7 -6 -1
1532261847973090 -3 -1 -5 -31 -7 -21 -7 -4
1532261847992038 0 2 4 1 -9 -4 7 1
1532261848028939 -1 -2 -1 -11 2 -4 -3 -1
1532261848073819 -4 -2 0 -4 -23 -5 -18 -7
1532261848255334 -2 -9 -3 -2 18 27 4 1
1532261848273286 -4 13 -4 -21 -37 -35 3 0
1532261848299217 -1 4 2 -1 -9 -14 6 1
1532261848443830 -6 -7 -9 -7 -32 0 -13 -6
1532261848511649 1 3 1 1 -6 74 -1 1
1532261848547552 1 7 -5 -2 -4 -5 -3 0
1532261848570492 -1 -3 2 5 25 17 3 -1
1532261848599414 0 2 0 -1 6 15 -1 0
1532261848661249 -2 -2 4 1 15 1 3 -1
1532261848675211 -1 0 -1 -4 11 6 0 -1
1532261848742032 18 82 -3 -4 -8 3 0 2
1532261848749014 3 -44 4 -3 -3 -8 -1 4
1532261848795889 -5 -13 2 0 -10 -3 -1 1
1532261848812844 10 -17 0 2 3 -1 0 -4
1532261848831793 -10 -32 3 -4 -5 -2 0 1
1532261848868694 -1 -5 0 6 3 2 -1 -16
1532261848900645 -9 -6 5 0 -1 -3 -1 -8
1532261848953504 -7 -17 -3 -1 -1 -1 0 -4
1532261848967467 -3 -9 3 1 -4 -1 -3 -8
1532261849005380 7 31 6 7 2 0 -1 -1
1532261849019327 -4 -22 -5 -5 -1 -2 -3 0
1532261849066202 -5 -8 -1 -4 -4 0 2 -2
1532261849089142 -2 -7 -1 5 3 3 1 0
1532261849095125 2 12 2 10 0 7 2 -1
1532261849117067 -2 -1 -1 -7 -4 -17 -2 -1
1532261849132026 1 12 0 -7 -8 -3 -2 0
1532261849176907 -3 -2 -3 -8 -2 -6 -4 -1
1532261849199845 0 -8 -1 2 1 -4 -2 -3
1532261849236746 -6 1 -3 -11 7 -4 6 -3
1532261849251706 4 5 3 12 -1 6 10 8
1532261849298581 -5 -14 -4 -2 -6 -8 -3 -14
1532261849343461 17 -22 -7 -1 -32 -8 -2 21
1532261849381360 23 28 3 1 -6 -6 7 2
1532261849402304 12 -12 -1 -10 41 73 15 25
1532261849440203 21 -4 -1 -3 -27 -35 -16 -6
1532261849462144 -42 -5 1 -3 -32 -23 -11 -28
1532261849528965 -45 -14 7 17 -5 -1 8 -19
1532261849660613 -4 43 0 0 27 -35 6 37
1532261849665600 18 3 -1 -3 -12 -21 0 -4
1532261849717461 8 -34 1 -4 -15 -3 -3 -2
1532261849755360 -27 4 -2 3 -4 -32 -16 -4
1532261849853098 14 -3 1 -5 2 8 2 -3
1532261849900970 31 24 -4 -3 4 12 2 -2
1532261849942858 4 3 -4 -3 10 8 5 -4
1532261850063539 -16 0 -4 -8 12 -2 -13 -22
1532261850181220 17 4 1 4 0 6 7 2
1532261850214133 -19 2 -2 -17 -14 11 1 -7
1532261850242058 68 6 -3 -2 -5 2 -3 2
1532261850264997 8 -20 -1 2 19 -1 2 3
1532261850316858 -23 -9 -8 2 -3 -9 -2 -6
1532261850353766 -8 -7 -5 0 -1 -8 -12 -1
1532261850379690 5 6 -1 3 8 36 7 1
1532261850407615 -20 -1 -1 -3 -15 -5 -6 -5
1532261850430568 -2 6 2 3 3 -1 -1 6
1532261850476431 -6 -3 0 -1 -4 2 -7 -5
1532261850482415 0 12 10 31 6 20 6 3
1532261850497375 -25 -5 -1 2 5 0 1 -2
1532261850565194 -16 -8 2 7 10 18 3 1
1532261850595114 -21 -7 -7 -9 6 -10 -2 -6
1532261850663930 -9 4 -3 -5 -7 -2 7 0
1532261850736736 -9 -10 3 -1 -9 14 2 0
1532261850775631 -15 -26 -9 1 1 -2 6 -2
1532261850803557 24 -7 5 5 9 6 -5 0
1532261850895311 3 -5 -2 -2 -5 -14 0 -3
1532261850910271 3 1 1 9 -11 7 -1 -3
1532261850939221 18 9 -2 -3 4 -1 -3 3
1532261850986069 -10 -5 -4 -3 5 11 -8 -2
1532261851010021 3 -6 -5 -15 13 -2 3 -2
1532261851031954 19 -4 0 -6 -14 -7 0 -2
1532261851045909 -20 -4 3 7 7 8 -1 -2
1532261851059871 -3 7 1 6 2 1 5 1
1532261851120708 -7 7 3 6 -4 -4 3 2
1532261851148634 -7 -16 0 3 2 -2 -1 0
1532261851212463 -7 -7 -1 -1 -4 -27 -2 -2
1532261851240389 -20 -3 -2 -3 -6 -2 0 -2
1532261851314191 -1 7 0 -6 -3 0 0 0
1532261851360069 12 -1 -2 -1 1 13 0 -2
1532261851373047 -1 -9 -1 0 -6 3 -3 2
1532261851406943 -9 -10 1 8 -7 1 2 -1
1532261851442846 1 -5 -3 1 2 -4 -1 1
1532261851464804 3 -1 0 2 3 2 1 1
1532261851487727 3 -2 1 1 0 43 -1 0
1532261851517647 1 -3 1 -1 1 16 5 0
1532261851539589 -1 -1 -2 0 -4 -29 0 0
1532261851562527 0 4 -3 -2 0 -2 -2 -2
1532261851599428 -2 -4 -4 -1 8 1 0 -2
1532261851630346 0 -1 0 0 -11 -5 0 -2
1532261851705146 -7 -8 -5 -9 -8 -1 -3 -5
1532261851742048 -6 -8 -8 4 -15 9 -15 -14
1532261851831807 -1 2 1 -6 -20 3 1 2
1532261851862724 -1 0 -3 -6 -23 -15 0 0
1532261851884666 -5 -2 -1 1 32 -11 -5 -3
1532261851907604 -1 -1 0 0 -38 -6 0 -1
1532261851944505 2 3 1 2 -22 60 3 1
1532261852012324 0 -2 -1 1 18 23 6 2
1532261852050223 1 7 3 -1 -13 -13 3 0
1532261852095117 -2 -3 -1 -5 -6 -11 -2 -1

1532261852154943 0 0 -2 -1 -7 -10 -5 -1
1532261852229743 -3 -3 -2 -2 -4 -8 -2 1
1532261852342442 -1 -2 -3 1 7 2 -3 0
1532261852417264 -2 -1 0 0 -2 -2 -2 -1
1532261852485082 0 0 -1 -3 -3 -1 -3 0
1532261852515003 -3 -2 1 -2 -1 3 2 -2
1532261852551904 0 0 -1 -1 -1 0 0 -1
1532261852581825 -1 0 0 -1 0 -1 1 -1
1532261852634683 -2 -3 -1 -2 -1 2 -2 0
1532261852664602 -1 -1 -1 -1 -1 -1 -1 -1
1532261852678565 -1 -2 -2 -1 0 2 7 -1
1532261852747381 0 0 -2 -2 2 -1 -1 0
1532261852785280 -1 -2 -3 -2 0 1 -2 -1
1532261852830160 -1 -2 -2 1 3 6 6 -1
1532261852895983 -1 0 1 1 -5 -8 0 -1
1532261852926901 -1 -3 -2 -1 -2 2 -2 0
1532261852987739 -2 -3 -2 0 12 7 -6 -2
1532261853091461 1 -1 1 -2 2 2 2 3
1532261853109413 0 -2 -2 -2 -1 -1 -3 -1
1532261853144319 -3 -1 -2 -1 -2 3 0 -1
1532261853167258 -2 0 -1 0 0 -1 -1 -1
1532261853205156 0 -1 -1 -1 3 3 -2 -1
1532261853227098 -2 -1 -2 -2 1 0 -3 -1
1532261853286939 -1 0 -2 -1 -1 -3 -2 1
1532261853347775 -2 -1 -1 -1 0 1 -1 0
1532261853369716 -2 -1 -1 -1 -1 4 -3 0
1532261853438533 0 -2 1 -1 -2 -3 1 0
1532261853527295 -1 0 0 0 -2 -1 3 -1
1532261853572176 -1 -1 -2 0 0 0 -3 -1
1532261853601098 -2 -4 -2 -1 -1 -3 -3 -1
1532261853625034 0 0 0 2 0 -1 0 -2
1532261853654954 0 -1 0 0 0 1 -2 -1
1532261853692887 -1 -3 -2 2 9 11 -2 -1
1532261853744714 -2 -1 -1 1 7 4 -4 -2
1532261853827493 -2 -5 -2 -9 -4 -47 -5 -2
1532261853947172 -1 -1 -3 -9 -3 1 -2 -2
1532261854014992 -5 -2 4 12 19 7 -17 -2
1532261854058874 0 -1 -4 -20 -8 0 -4 -1
1532261854083820 0 -2 -1 -10 -11 -4 1 0
1532261854099764 2 1 1 -2 6 2 -4 -1
1532261854111732 -3 -3 -3 2 -1 -5 -11 -6
1532261854203487 -2 -1 -4 -5 0 -5 -2 0
1532261854226426 -1 -3 -2 -5 0 -8 0 -5
1532261854271306 0 1 -4 0 6 16 13 14
1532261854309204 -1 -2 2 5 9 -39 -9 -7
1532261854321173 -4 -1 -1 2 -5 18 -2 -18
1532261854353101 1 -1 2 6 20 -15 0 10
1532261854375029 0 -1 0 5 9 -6 6 -2
1532261854403951 2 0 -2 -1 -5 4 18 -2
1532261854426890 3 2 3 4 8 -29 -13 -4
1532261854480745 1 0 1 -13 -6 -49 8 14
1532261854525626 -1 -2 -2 -7 4 -45 -12 6
1532261854594459 -1 -1 -4 5 0 -8 -6 9
1532261854621379 2 0 -2 -3 -1 31 14 8
1532261854668244 1 0 -4 1 -7 20 -36 -27
1532261854764986 -2 0 0 11 14 -11 15 -4
1532261854869706 -3 1 2 6 -2 54 13 8
1532261854894639 -5 -6 -7 -10 2 -7 -12 -10
1532261854952485 -1 -7 -1 3 -1 1 5 -7
1532261854983402 2 -1 1 -6 -1 2 0 15
1532261855036260 -10 2 -4 -3 -1 -6 -9 -22
1532261855126021 2 0 -4 -6 5 -15 -1 -3
1532261855206805 1 -4 1 2 -1 17 -5 -22
1532261855230741 1 -4 -1 -3 -6 1 2 10
1532261855336458 -1 -2 -3 1 -3 -20 -5 1
1532261855388318 0 1 3 -6 2 0 2 4
1532261855471098 1 0 2 6 -8 0 -3 -3
1532261855522967 -3 -7 -2 -4 -3 6 -2 -3
1532261855634660 0 3 4 11 6 -19 -1 -8
1532261855726415 1 0 -2 -1 3 -3 1 0
1532261855762319 3 2 2 6 1 0 -1 1
1532261855860057 0 2 -2 -4 -2 0 -4 -1
1532261855890975 -4 -2 -2 -3 -6 7 8 -1
1532261855957799 8 -1 -4 -7 -16 -28 -20 -14
1532261855994698 -4 2 3 3 -6 5 2 -5
1532261856024618 0 -2 1 8 84 100 -7 -5
1532261856054537 0 3 3 -4 -30 0 9 3
1532261856069498 -3 -6 -8 -12 -79 -29 2 -1
1532261856091439 -4 1 4 9 23 -43 -2 -1
1532261856114393 -1 -10 -13 -11 -19 -62 -4 -4
1532261856190188 -2 -1 -7 -9 -7 -24 -20 -1
1532261856214110 -2 2 4 1 -4 43 -1 9
1532261856249017 -4 0 0 3 -7 -22 -14 -2
1532261856280932 -2 -1 -2 -2 -10 -9 1 8
1532261856308857 -2 0 -4 -1 -2 17 6 2
1532261856331796 1 -1 1 -2 1 1 6 -3
1532261856362714 -1 -1 -4 0 11 -37 10 1
1532261856376676 0 1 -1 -2 -5 5 1 -2
1532261856497353 -1 0 -1 0 -1 15 12 0
1532261856537246 1 -1 -4 0 -1 19 8 -1
1532261856572160 -1 0 -1 -1 0 -10 -7 -2
1532261856595092 0 -2 -2 -2 -4 -14 -6 0
1532261856621022 -2 -1 -2 0 0 9 3 -2
1532261856624030 -1 -1 0 -1 1 -2 -10 -3
1532261856645956 0 -1 0 -1 -2 -20 -4 0
1532261856699812 -1 1 -1 -1 0 -7 -2 -1
1532261856738708 -2 -2 0 0 2 -21 -12 -1
1532261856767630 1 1 -2 -1 0 20 2 0
1532261856836447 0 -1 -2 -2 -1 12 6 1
1532261856849413 -1 0 -1 1 0 25 6 0
1532261856895289 -2 0 0 -1 -1 6 -5 -2
1532261856917230 -1 0 -2 -3 -2 2 -7 -1
1532261856931193 0 -1 -2 1 -3 -7 -5 -2
1532261857039903 0 0 0 0 0 3 7 0
1532261857157588 1 0 1 0 1 -1 1 1
1532261857186526 -2 2 -1 1 1 4 -1 0
1532261857233385 0 -1 0 -1 0 -6 4 0
1532261857247347 0 -1 -2 1 -3 -12 -3 -1
1532261857330126 0 -2 -1 -1 0 3 0 -3
1532261857366031 1 0 0 -1 -1 1 -2 0
1532261857448809 -6 -7 -12 -21 -21 3 0 -4
1532261857470750 -4 -7 -11 -27 -12 -17 0 1
1532261857485710 2 2 2 3 15 -5 2 0
1532261857578463 -1 -4 -5 -7 -8 -1 3 -2
1532261857599407 16 -49 0 0 -2 -3 -7 -4
1532261857638302 -3 -5 -3 2 8 5 -46 -6
1532261857660243 10 8 -1 -1 -4 22 11 14
1532261857673209 -7 35 -2 -2 -4 -28 2 9
1532261857727064 0 -27 4 8 -7 4 5 -11
1532261857734046 3 -3 2 8 14 -12 1 4
1532261857756985 -3 -7 -4 0 7 29 3 -5
1532261857847742 -2 -9 -10 -13 -1 3 5 -3
1532261857884644 -4 -2 -3 -5 5 14 -14 -10
1532261857968419 1 1 6 -3 6 -11 0 -1
1532261857984378 -3 -3 -8 -15 15 -16 -7 0
1532261858111038 1 0 6 -2 -20 3 6 2
1532261858261635 -2 -2 0 1 12 6 1 -2
1532261858307513 -1 -13 7 -2 10 -1 -4 1
1532261858425199 0 -18 -4 -1 -4 0 -1 -1
1532261858529918 2 0 -4 0 7 -6 5 1
1532261858545875 12 -3 -9 -4 -11 -11 -3 2
1532261858590755 -11 -13 -3 -2 3 -11 -2 -8
1532261858596739 4 6 1 -3 0 3 3 5
1532261858648601 0 -14 -4 1 9 47 0 -12
1532261858682509 6 3 -2 -1 -3 11 -1 -24
1532261858711442 -12 0 -5 -4 -3 -40 -4 3
1532261858732377 7 -4 -6 -6 -10 -3 4 43
1532261858829118 -86 -42 -13 -7 -35 -1 -33 -46
1532261858845075 57 1 -4 -4 -20 16 -1 9
1532261858933838 47 14 -1 -6 -4 97 -4 -1
1532261859002654 30 9 7 14 -13 -77 13 11
1532261859031577 -18 -12 -7 1 11 65 -6 21
1532261859070472 1 -17 -2 0 -2 -12 1 -3
1532261859106391 8 -6 -6 -4 -1 3 -4 -7
1532261859145272 3 -3 3 3 -45 1 -6 0
1532261859311837 -70 -43 -13 -9 -11 -37 -33 -21
1532261859497331 4 9 -2 -6 27 -16 1 -4
1532261859535230 -19 -23 0 -8 -16 -12 -8 -2
1532261859572131 1 7 0 -7 -3 3 6 3
1532261859602051 -8 24 5 0 -3 8 5 -1
1532261859625987 -19 -10 -4 -4 -3 3 -1 1
1532261859698792 -17 3 -2 4 6 5 -4 -2
1532261859774590 25 2 -2 0 20 -4 -5 -4
1532261859887288 -35 -8 0 4 -7 -1 -3 -5
1532261859932168 0 -9 -5 -1 -12 -4 5 3
1532261859962088 -33 0 -3 -5 -63 3 -8 -7
1532261860053843 10 -7 -1 -2 11 -5 -6 -1
1532261860076781 7 1 -2 -9 8 -13 0 1
1532261860193469 28 -2 -2 5 35 -7 -1 2
1532261860239347 -42 1 -1 -7 -7 -1 -1 -4
1532261860353043 18 -16 -3 9 -12 33 4 7
1532261860478706 -6 1 -4 -15 -13 -4 3 1
1532261860524585 9 -3 -1 -12 1 -8 1 -4
1532261860546525 18 4 4 -1 -8 -7 -2 -1
1532261860607362 -3 -2 0 -1 24 18 5 3
1532261860771923 32 2 1 -3 -9 -9 -3 -2
1532261860810819 8 -2 -3 -4 -6 -13 8 0
1532261860840739 3 0 -1 0 -3 15 -4 0
1532261860900589 3 0 0 -2 -6 0 -1 -5
1532261860921531 -1 1 0 1 -4 -1 1 2
1532261860968397 -1 -3 -3 0 4 -6 -4 0
1532261861005299 -1 -5 -2 -5 -14 -10 -1 -3
1532261861087079 1 5 1 5 30 14 -2 -1
1532261861110019 -3 -1 -2 -5 6 9 2 -1
1532261861183822 -3 -2 0 3 6 13 2 4
1532261861209752 -2 -5 -1 -3 -10 11 -2 0
1532261861267597 1 -3 -1 -1 2 5 2 0
1532261861289539 -3 -1 1 -2 -1 -10 7 -1
1532261861304499 2 -1 -3 -5 3 -90 0 -3
1532261861326440 -3 -1 -2 1 -2 23 0 -2
1532261861350389 1 1 0 1 -6 50 2 -3
1532261861364339 -2 2 -1 1 13 21 -7 -1
1532261861387277 0 0 -1 0 3 14 -1 0
1532261861410216 -1 -1 -1 0 2 5 0 0

1532261861462077 -1 -1 -1 0 -7 -5 -1 -1
1532261861476040 -1 -1 -1 1 5 4 -1 -1
1532261861499976 -1 1 0 1 1 19 7 -2
1532261861544856 -3 0 -1 -1 0 -1 3 0
1532261861550840 -2 -1 -2 -1 -1 -8 -1 1
1532261861573784 0 -2 -1 -2 -5 -6 -2 0
1532261861612682 0 -1 1 1 -3 -5 -6 -1
1532261861627643 -1 -1 -1 0 -1 -8 -3 -1
1532261861672522 -3 -3 -1 1 8 1 -1 -1
1532261861694463 0 -1 -2 -1 5 -2 -1 -2
1532261861732362 -2 -1 -1 -1 -2 -5 -2 1
1532261861755301 -2 -1 -1 -1 -1 -2 -2 -2
1532261861783226 0 -1 -1 0 -1 0 -1 -2
1532261861807162 -2 -2 -1 -3 -3 2 3 1
1532261861843066 -1 0 -1 1 3 -2 -2 -1
1532261861867001 -1 -2 -2 -2 -1 -3 -2 0
1532261861897919 -2 0 0 0 -1 0 -1 1
1532261861949779 1 -1 -1 -2 -3 -2 -3 -1
1532261861987679 -1 0 0 -1 -1 9 5 0
1532261862039540 0 -2 0 -2 1 -4 -4 -2
1532261862085417 0 0 0 -1 -1 -1 -1 -2
1532261862122319 -1 -2 0 -1 -1 -1 -3 0
1532261862143263 0 -3 0 0 0 -5 7 -1
1532261862167198 -2 -1 -1 -1 -1 -2 1 0
1532261862250975 -3 -3 -1 0 -1 -7 -9 -1
1532261862271919 -2 0 -1 -1 -1 -3 -3 -3
1532261862286879 0 -2 0 -1 -2 -2 -2 0
1532261862309818 1 0 -1 -2 -3 -2 -3 -2
1532261862331759 1 0 0 0 0 0 -1 -1
1532261862377636 -3 -2 -2 1 -5 -17 -1 -2
1532261862414537 1 0 0 9 1 3 0 -1
1532261862429497 -2 -1 -1 -1 1 4 -2 -1
1532261862475374 -3 -6 0 -1 0 6 -1 0
1532261862511279 2 0 -1 -1 2 7 -1 -2
1532261862549177 0 -2 1 -1 0 -6 -4 1
1532261862631956 -1 -1 -3 -2 -5 -6 -1 -1
1532261862655893 -1 -2 -2 3 -5 -5 0 -2
1532261862746649 0 -2 -4 -5 24 4 5 1
1532261862925171 -7 -4 -1 1 19 5 -2 5
1532261862962073 -8 1 -2 -11 7 -6 8 -8
1532261862985012 -14 13 -1 -5 24 3 15 -20
1532261863014932 1 -4 -2 -1 2 -10 20 20
1532261863028895 4 -1 1 0 -62 -30 -14 -20
1532261863074772 3 1 2 2 3 -4 48 13
1532261863121647 10 19 4 4 2 -5 -1 11
1532261863142591 5 -2 -3 -4 8 -3 -7 5
1532261863171513 14 -16 -7 -8 11 0 -30 -15
1532261863196456 -14 -11 -6 -8 -17 14 3 -2
1532261863210409 -3 4 8 34 20 23 21 -3
1532261863254292 4 4 7 31 15 -2 -10 26
1532261863292196 16 3 -4 -20 -7 29 10 13
1532261863496643 3 3 4 -2 3 57 18 4
1532261863518585 -6 -3 -2 -14 -15 8 -11 20
1532261863533556 -4 0 -7 12 10 13 19 9
1532261863554489 1 -1 0 13 6 48 -11 -14
1532261863629289 0 -2 -4 0 -2 -27 18 9
1532261863748969 6 -4 -5 0 -2 11 -10 -7
1532261863775897 0 3 4 10 4 -24 -2 0
1532261863928489 -1 -1 1 0 1 16 5 -1
1532261864031214 -4 -1 -2 -3 -9 -35 -17 -4
1532261864089060 3 0 -2 -4 -6 -22 -8 3
1532261864214723 2 3 0 2 0 15 0 -5
1532261864387262 0 6 0 3 5 -4 -7 2
1532261864434137 -2 1 -1 -8 -11 4 0 4
1532261864449097 -2 -3 0 -6 -18 -4 -3 -1
1532261864583737 1 -1 -2 -3 -4 3 2 8
1532261864605679 -2 -2 -2 -7 -5 -5 -5 0
1532261864641582 -1 -3 -2 -5 0 21 -7 -1
1532261864651556 -1 -2 0 -1 -2 -29 5 9
1532261864671502 -1 0 -1 0 3 21 -6 0
1532261864693443 -1 -3 0 0 4 37 -10 0
1532261864747300 -3 -4 -1 5 -3 -8 -3 -1
1532261864770238 -1 -7 -6 -6 6 12 -5 10
1532261864881939 -5 -1 -1 6 52 9 -1 0
1532261864911860 -3 -3 -3 -4 -21 -13 1 -9
1532261864964718 -5 -10 -2 1 6 4 4 11
1532261865000622 -9 -9 -2 -1 -7 -15 -1 -5
1532261865100355 -1 1 1 -1 1 -35 -3 3
1532261865151219 -3 0 -1 -2 13 -12 -8 -1
1532261865183134 -1 1 0 -1 -2 14 3 0
1532261865220035 3 -1 -2 0 7 0 -7 -1
1532261865233997 -2 -1 0 -2 -8 -10 1 0
1532261865257934 -1 -2 0 -1 -1 -10 2 -2
1532261865408531 -1 -1 0 -1 -2 -30 -3 0
1532261865421501 -2 -2 -1 -1 -1 0 -4 -2
1532261865454408 0 -2 -1 0 -1 9 -1 1
1532261865475353 0 0 1 -1 -2 -5 -4 -2
1532261865488318 0 -3 -1 -1 -3 2 -2 -1
1532261865526216 -1 -1 -2 -1 -3 3 2 1
1532261865557134 -2 1 -2 -1 -2 3 -5 -1
1532261865594035 -2 -4 -4 -3 -3 -4 -8 -2
1532261865616974 -1 -2 -2 -2 1 2 3 0
1532261865647891 0 -1 -1 -1 -3 17 7 -2
1532261865684792 -2 0 -2 0 1 8 2 -2
1532261865693769 -1 -2 -1 -1 -2 -8 -4 -2
1532261865715710 -1 0 -2 0 0 -11 -2 -1
1532261865728675 -1 -1 -1 0 -3 -6 -2 0
1532261865774552 0 0 1 -2 -1 -1 -4 0
1532261865788515 -2 0 0 -1 0 9 -1 -1
1532261865834392 -1 -2 0 -2 -1 -3 1 -2
1532261865871294 -1 -3 1 -2 -1 -9 2 0
1532261865917170 1 0 0 0 0 5 -1 -2
1532261865949085 -1 0 -2 -1 -1 4 0 1
1532261866014910 -3 -3 -1 -1 0 -7 -4 -3
1532261866050813 0 0 -1 -1 -3 19 4 -2
1532261866088738 -12 -2 0 2 -1 -12 -6 -3
1532261866226344 -4 1 -14 7 9 27 0 0
1532261866294163 -3 3 -3 -6 -19 -3 -11 -8
1532261866300146 -3 1 -3 2 1 -6 -4 -2
1532261866420824 -11 -69 2 3 -3 1 3 -1
1532261866515577 -5 -14 -3 -10 -30 -51 0 6
1532261866576408 -4 -11 -7 -18 1 -6 -10 -3
1532261866622287 -3 -3 -1 8 32 -27 -8 -3
1532261866682126 -6 -4 -7 -5 7 -15 -19 -7
1532261866848680 1 -5 0 6 -21 -1 1 0
1532261866892563 2 -2 1 6 -4 -2 1 1
1532261867081059 -1 7 0 -6 -15 -16 -4 -1
1532261867103997 -3 0 -3 1 25 5 -8 -4
1532261867175806 -3 -1 -1 0 2 127 -1 -3
1532261867215699 -2 5 6 -3 -24 -87 -2 -2
1532261867284515 -8 7 2 2 0 7 1 -1
1532261867304461 -6 11 8 -4 2 -8 -2 2
1532261867402200 -52 -1 -3 -3 -10 6 1 2
1532261867433118 35 -4 0 1 -4 -12 3 28
1532261867484979 -13 -17 -5 -5 -7 -32 2 -5
1532261867514898 -3 2 1 -2 -1 20 2 -7
1532261867545830 -9 -21 -5 -3 2 -1 -2 -6
1532261867567757 -13 4 1 -1 -11 -14 -15 0
1532261867612637 13 43 1 -4 -3 -68 -6 3
1532261867627597 11 10 6 0 -8 40 5 -6
1532261867649539 13 4 2 -1 -6 -15 -3 -6
1532261867657518 -36 -24 -9 -9 -1 -19 -3 20
1532261867680455 31 1 8 22 9 36 25 20
1532261867701400 -50 -19 -6 -6 -22 -9 6 -8
1532261867716360 -113 -17 -4 -5 26 3 -5 -43
1532261867769218 9 -19 -5 -3 -8 105 2 -3
1532261867798141 -56 -12 2 24 -34 -80 -32 -19
1532261867815097 -63 -12 -5 -17 -14 -68 3 7
1532261867866957 -6 -2 1 7 -27 -45 -8 -6
1532261867889900 22 -19 -3 1 13 12 1 4
1532261867934775 0 2 0 -4 20 -15 -14 -6
1532261867949736 21 -9 -6 -13 -46 -42 -1 -3
1532261867957715 26 -11 1 1 29 3 1 -4
1532261867993619 21 -8 -5 11 -2 11 10 1
1532261868054456 -20 -29 -4 -6 23 12 3 -2
1532261868102328 -34 14 -2 -14 6 -1 -15 -2
1532261868144216 -7 -23 -4 0 5 22 0 4
1532261868169149 -17 24 4 28 30 -4 15 4
1532261868190093 -26 -3 -4 -13 -13 6 -1 -5
1532261868234973 0 4 0 5 -1 11 8 1
1532261868264893 -25 -33 -5 -3 -8 4 -5 -5
1532261868303789 10 3 -2 -15 -58 37 -3 0
1532261868356648 5 -3 3 21 8 4 1 1
1532261868401528 29 22 -1 9 13 -5 2 6
1532261868446408 -47 -18 -3 1 15 -1 -15 -8
1532261868491287 -19 2 -4 -7 31 8 2 -1
1532261868537165 -7 -6 -4 -9 10 -7 5 -2
1532261868653853 -9 26 2 7 20 32 -13 -4
1532261868677789 8 -2 1 0 -12 -8 3 1
1532261868773532 -1 -26 -2 4 9 4 1 -3
1532261868807442 31 -23 1 1 6 27 -9 -2
1532261868826391 5 -4 -2 -12 -65 -22 -2 -2
1532261868849330 15 -2 -2 -3 6 -13 -1 5
1532261868857308 2 -11 -2 -11 -8 -7 3 -3
1532261868956044 -3 17 -2 -6 -12 -7 -8 -1
1532261869068743 0 -3 -1 8 -16 25 1 -3
1532261869083709 7 13 3 4 5 21 0 -1
1532261869112626 -15 -6 2 16 2 -10 -9 -2
1532261869166482 -5 -10 -1 3 -10 16 7 1
1532261869188423 -10 4 1 2 3 -14 -11 -1
1532261869224327 21 -11 -9 -4 -5 -22 1 2
1532261869360962 2 -26 -4 -4 -3 -19 -9 -1
1532261869368941 0 -6 -5 -11 -3 10 -3 -1
1532261869427783 -9 -10 0 -4 3 6 4 -2
1532261869487623 -2 -2 0 -4 10 15 6 -2
1532261869532503 3 11 0 3 -6 3 3 -1
1532261869555443 12 -8 -1 -6 -13 -10 -6 -2
1532261869577383 7 1 1 -3 0 -1 -1 1
1532261869600322 -35 -17 -8 -8 1 4 -6 -7
1532261869669138 -2 -5 -3 1 0 1 -4 -2
1532261869691079 -9 -6 -1 2 3 -5 -4 -3
1532261869765879 8 -10 0 -1 -5 0 -3 -1
1532261869810759 2 -1 -1 0 -1 38 3 0
1532261869831703 0 -5 -2 -1 -2 57 -3 0
1532261869871597 2 1 -2 -1 -8 -33 -1 0
1532261869880573 0 1 -3 -2 1 19 4 0
1532261869891543 6 -2 -3 -5 -9 -63 -7 -23
1532261869914482 -1 -1 -2 -2 -6 -42 -5 -12
1532261869951383 1 0 0 2 5 15 0 -1
1532261870026183 -3 -1 -3 -7 -13 -11 0 -1
1532261870044136 0 0 -1 0 -1 7 -2 2
1532261870065079 -1 -2 -1 -2 7 22 0 -3
1532261870088017 0 0 -1 -13 -31 -8 -1 -2
1532261870156833 -1 2 1 3 -12 -8 -2 0
1532261870178775 1 4 2 10 15 4 0 0
1532261870216673 2 -1 -1 1 -15 -20 3 2
1532261870221660 -2 1 1 6 -3 -5 -3 -2
1532261870312417 0 -2 -4 -3 -7 -24 -3 -2
1532261870371260 -3 -2 1 -1 -7 9 -6 -1
1532261870406168 1 2 1 0 -15 7 2 0
1532261870432097 2 3 2 -1 -29 -10 -2 0

1532261870491938 1 -1 0 0 2 -6 2 -1
1532261870551778 -1 -5 0 -2 5 -11 -8 -1
1532261870620594 1 2 0 -2 0 3 -2 1
1532261870664476 0 -1 -1 -1 -4 -2 -2 0
1532261870679443 -2 -4 -4 -2 9 -58 -2 -1
1532261870731298 0 1 -1 -1 -4 9 -4 0
1532261870755233 0 -1 -3 -2 -8 8 0 -1
1532261870769196 -1 0 1 1 4 10 1 -1
1532261870815074 -2 -1 -1 -1 1 0 0 0
1532261870876907 -1 1 -1 -1 1 1 -2 -1
1532261870911815 -1 -2 -1 0 -2 -4 2 2
1532261870934754 -2 -2 -3 -1 -1 -5 -3 -3
1532261870980631 0 0 -1 -2 2 6 1 -1
1532261870994594 -1 0 -1 0 1 0 -2 -2
1532261871009554 -1 -1 -1 -2 -1 -1 -1 -1
1532261871069393 -2 -2 -1 1 1 -2 -1 0
1532261871159153 0 1 -1 0 0 1 0 0
1532261871178103 -3 0 -3 -2 1 0 0 0
1532261871243927 0 0 1 -1 -1 -1 1 0
1532261871279831 0 0 -1 -1 -3 -1 1 -2
1532261871293793 -1 -2 0 -2 0 -2 0 0
1532261871331691 -3 0 1 -1 -1 0 0 -1
1532261871362609 0 0 0 -2 -2 -2 -1 -1
1532261871481292 -2 -1 -3 -2 -4 -5 -3 -3
1532261871511212 0 -1 0 0 1 5 0 -3
1532261871572050 -2 -1 -1 -2 1 -3 -2 -1
1532261871601969 1 -2 -1 -2 1 5 -1 -2
1532261871639868 0 0 -3 -14 10 19 1 -1
1532261871654828 0 -1 -3 3 -13 1 -2 0
1532261871708685 1 0 2 12 -10 -33 -4 -3
1532261871744588 -1 0 -3 2 -1 3 0 0
1532261871775505 1 2 4 4 13 -1 7 8
1532261871797447 0 3 2 11 12 5 -1 -3
1532261871819388 -1 0 -2 1 -3 -3 10 7
1532261871842326 1 -1 -1 -12 -14 1 2 -2
1532261871857287 -3 -2 -7 -25 -8 0 4 -4
1532261871880225 1 0 -1 0 -7 10 -10 -5
1532261871918124 4 1 4 4 -7 -8 7 8
1532261871940065 2 -3 0 13 -1 8 11 -3
1532261872120582 1 -2 -3 -3 -3 5 5 5
1532261872143521 3 0 0 -2 3 5 27 20
1532261872150503 -4 -8 1 -3 -8 1 32 22
1532261872171446 0 -2 -4 -14 -24 -4 21 14
1532261872194385 -2 -4 -6 -6 -9 0 -8 -9
1532261872240262 -9 -6 -6 -3 9 -12 -14 -24
1532261872323041 0 1 -2 -13 -20 -3 -5 -1
1532261872353958 -3 -3 -2 -6 -7 13 11 -9
1532261872375900 0 -2 2 4 -2 -28 8 8
1532261872398838 -1 -5 0 -3 5 27 -15 7
1532261872412801 -6 -3 -4 -2 6 0 -5 -33
1532261872554422 -3 -2 -4 2 0 -17 -6 9
1532261872677094 -3 -6 -4 0 0 -74 -16 1
1532261872692055 -1 -3 -4 -13 1 51 12 1
1532261872719979 -1 7 -5 -15 1 -37 -8 -9
1532261872756881 1 41 2 -19 7 25 -11 -22
1532261872931414 -4 -7 -3 -5 2 -1 -6 2
1532261872953355 -4 -6 -8 -1 -8 -2 11 -2
1532261872973302 2 60 1 -5 0 17 2 -11
1532261873005217 -3 -15 -3 1 -6 -25 0 14
1532261873050097 -3 -5 -3 -6 1 -12 -15 -19
1532261873086998 -3 -4 -9 -7 -6 -28 -13 -3
1532261873247568 -3 -1 0 10 -10 23 9 -6
1532261873259580 3 7 13 40 7 40 11 1
1532261873320418 0 4 1 10 18 12 0 2
1532261873394221 0 0 7 0 1 15 3 2
1532261873433117 1 -2 1 -1 -4 6 -4 -2
1532261873538834 1 15 -7 -5 -4 -6 14 -10
1532261873583714 0 7 0 0 -2 -32 -1 -6
1532261873606653 -1 8 1 -1 6 -7 3 3
1532261873673482 -4 -4 -5 -6 -3 6 3 -19
1532261873718354 -1 -2 0 5 2 5 -3 3
1532261873801133 0 -1 -3 -3 1 -6 -3 7
1532261873808114 5 9 -4 -8 -3 -3 -17 8
1532261873832057 -3 -1 2 10 1 9 -4 -1
1532261873866957 2 -2 -1 2 1 -6 -7 -2
1532261873881917 -1 -3 1 5 -2 12 4 1
1532261873964695 2 3 -4 4 5 70 21 5
1532261873988631 3 0 5 7 -1 52 17 6
1532261874032514 -2 0 -3 -3 29 22 2 -5
1532261874100333 0 0 -1 7 -18 7 -3 0
1532261874258909 -4 1 -1 11 63 76 10 -2
1532261874497271 -3 -1 -3 1 1 1 2 -3
1532261874522205 -2 -2 0 -1 -3 -5 -2 0
1532261874590024 0 1 -2 -1 -2 3 -7 0
1532261874752589 -1 -1 0 -1 -2 -8 -10 -1
1532261874865287 -1 -1 -2 -2 0 2 -1 -1
1532261874991949 0 -2 -1 -3 -1 20 0 -2
1532261875104647 -2 -4 -1 -2 -3 -3 3 1
1532261875142546 -1 -2 -2 -1 1 2 -1 -1
1532261875292146 -3 -1 -3 -1 -2 -5 -1 -2
1532261875330044 -1 0 -2 1 0 -9 -5 -2
1532261875374925 -2 -2 -1 0 0 0 -3 -1
1532261875443740 1 -1 -2 -1 -1 5 7 1
1532261875457703 -2 -1 0 -1 0 -4 0 -1
1532261875466679 0 0 -1 -2 1 7 -7 0
1532261875496599 -2 -1 -1 -1 -2 -4 -1 -2
1532261875563420 1 -2 0 0 -3 -14 3 -1
1532261875631239 -1 -2 -6 5 14 -7 1 3
1532261875647197 -2 -3 -5 -14 8 -22 -8 -4
1532261875660161 -1 -1 -7 -1 5 8 4 0
1532261875681105 -1 -2 0 8 3 -4 -2 0
1532261875729975 1 -4 5 0 -5 -3 -2 -1
1532261875741943 -1 -4 -8 1 -4 7 1 0
1532261875763887 1 10 4 5 8 17 7 2
1532261875824721 -3 -18 1 -4 5 -15 2 12
1532261875860626 -5 -18 -2 -2 5 6 -16 -14
1532261875884561 -1 27 2 -1 2 -17 1 5
1532261875983297 -3 -6 -6 -4 -7 26 -6 -8
1532261876005239 -2 -4 -9 -24 -12 -5 -2 -4
1532261876035159 0 3 0 -2 24 22 2 0
1532261876050137 -2 -2 -9 -35 -11 10 5 1
1532261876071063 -2 -1 -9 -19 -10 -7 -3 -3
1532261876117937 2 1 1 5 -53 2 8 0
1532261876169799 -3 -5 -6 17 33 -7 10 2
1532261876230636 -3 -3 -3 -6 3 29 -6 -3
1532261876514876 -1 -4 -4 -7 1 34 -11 -2
1532261876538812 -8 -8 -1 -4 13 23 0 -3
1532261876560753 -2 0 -2 8 -6 -16 -2 -1
1532261876576711 -5 -12 -3 -5 -22 -47 -4 -2
1532261876597655 -1 -54 -13 -4 26 -14 1 -1
1532261876627575 0 25 9 4 -6 -8 -1 -2
1532261876673452 0 -2 -13 -2 2 -1 2 -1
1532261876794129 0 -3 2 5 10 9 0 0
1532261876840007 0 4 -2 -1 2 10 2 -1
1532261876853969 -1 -6 -3 1 -1 5 4 5
1532261876866934 0 0 -5 -6 0 -7 6 5
1532261876904833 -1 4 -1 2 5 37 3 -7
1532261876936748 -1 -1 -2 -2 -4 -31 -3 -4
1532261876995591 3 0 -1 5 4 6 9 -7
1532261877049447 -20 4 -5 -9 -4 5 6 1
1532261877063414 25 11 2 -6 -5 -14 -7 -2
1532261877108289 26 0 1 2 3 -14 -1 -1
1532261877129232 -53 -1 -8 -10 6 20 -11 -15
1532261877152172 -8 5 2 16 25 40 9 1
1532261877167132 14 -16 -6 -9 7 46 21 3
1532261877189074 25 17 -2 -4 -3 -30 8 -9
1532261877226972 6 -18 -2 -5 -38 -77 -22 9
1532261877280827 -24 8 -2 -11 -27 59 6 2
1532261877302769 70 3 -2 -6 68 75 8 10
1532261877316732 28 -25 -7 -7 38 -84 -12 -8
1532261877340668 46 -1 -11 -25 -86 -17 -23 -8
1532261877399510 -6 8 9 8 -4 -3 8 3
1532261877417462 -7 -17 -7 -14 1 11 6 0
1532261877469323 -10 -1 -6 -16 -5 9 -23 -8
1532261877505228 18 14 1 15 24 3 -4 -3
1532261877535148 -20 1 3 2 19 -20 10 5
1532261877685745 -41 -11 -6 -4 -11 5 7 4
1532261877693724 7 5 -1 4 29 -18 -5 3
1532261877751569 8 7 0 -2 4 19 -7 -4
1532261877797447 -17 6 6 23 7 -9 -6 -1
1532261877828363 -25 -12 -1 -3 -15 -13 -11 -5
1532261877835345 -8 -10 -4 -5 4 -5 11 -1
1532261877881238 15 4 -3 -12 -18 -6 -2 -3
1532261877902166 -4 -11 -1 5 6 37 8 -2
1532261877970982 -8 -9 3 9 6 -1 -9 -10
1532261877991926 -5 -13 -6 -7 -14 -17 6 -7
1532261878045782 -1 -6 0 -3 42 11 0 -5
1532261878180422 4 6 1 2 49 1 -9 0
1532261878204358 -3 -9 -3 -7 0 4 -3 -1
1532261878264198 -1 4 -3 -6 -19 1 12 -2
1532261878273175 19 -2 7 2 12 -4 1 0
1532261878292124 -9 -15 2 7 12 0 12 3
1532261878317057 -19 -9 0 3 -3 3 8 2
1532261878343984 -26 -5 -3 -8 15 1 -12 1
1532261878388865 5 8 -6 -13 -14 2 2 4
1532261878451698 9 -17 -7 -5 -9 -3 -2 -1
1532261878473638 -34 -6 5 32 -4 -5 -17 -5
1532261878517521 -10 -29 -9 -14 2 0 4 8
1532261878577361 1 6 -2 -12 -37 -3 7 -4
1532261878600299 0 1 -2 -4 10 -7 4 2
1532261878621243 -9 23 3 -2 -10 -1 -4 -2
1532261878645179 0 43 5 6 -3 -8 -37 -8
1532261878691057 -2 -3 -2 -4 8 0 -3 -1
1532261878713995 21 -1 3 2 5 -1 8 2
1532261878735937 -14 2 6 21 2 4 1 -1
1532261878804753 11 -16 -2 6 7 6 -7 -1
1532261878810737 -6 -2 2 -6 -8 -3 1 -5
1532261878831681 7 -20 -6 0 7 -5 4 -2
1532261878870577 25 6 -3 -14 -41 1 0 -4
1532261878937398 -2 4 4 14 31 -2 -7 0
1532261879027158 -42 5 -5 -4 -2 -1 -9 -7
1532261879038129 -10 -7 -1 -3 -9 -8 0 -2
1532261879133873 29 5 -1 -6 -6 18 8 -2
1532261879170774 -13 -10 -1 1 1 -13 -3 0
1532261879201691 -17 19 0 -1 -11 21 -4 -3
1532261879228619 -3 -19 -2 7 10 -12 -4 0
1532261879251558 2 -2 -2 -4 -6 -5 -5 -5
1532261879270516 -58 -26 -8 -7 -8 0 -8 -5
1532261879291467 20 10 -2 -14 -7 -6 17 0
1532261879337328 -15 -7 -1 -3 -10 -19 -1 -5
1532261879348299 -8 2 -4 -3 13 6 -11 -1
1532261879371238 6 12 -1 0 2 -6 -9 -2
1532261879395174 19 3 2 -3 -4 -5 5 0
1532261879470971 11 -11 -2 -2 1 -10 0 -2
1532261879544773 2 3 -1 -8 2 -17 -5 -2
1532261879604613 -2 -1 -2 -2 -2 33 -7 0
1532261879627568 4 1 0 -2 -12 76 -8 -2
1532261879657472 0 2 -1 0 21 -60 -7 0
1532261879710331 -3 -3 0 -8 -33 1 -5 -2
1532261879778149 -2 -3 0 6 18 -70 -5 -1
1532261879800091 -3 -5 1 0 8 -8 3 0
1532261879845968 -2 -4 1 2 -15 -4 3 0
1532261879913787 5 -1 1 6 50 29 5 -3
1532261880002549 -2 -2 1 2 13 9 5 -5

1532261880054411 0 3 -4 -4 -2 2 -3 0
1532261880121232 -2 -2 -2 -2 -1 -5 4 2
1532261880160128 -2 -1 -1 -3 -5 -2 0 -1
1532261880182069 -2 0 -1 -1 -1 -2 -3 -1
1532261880219968 -1 -2 -2 -2 -1 -5 -5 -1
1532261880257867 0 -2 -2 -1 -2 0 -2 -1
1532261880287787 -1 -1 0 -1 2 -1 2 -3
1532261880392514 -2 -1 1 -1 0 -1 -2 -2
1532261880422427 -1 0 -3 -2 1 0 -1 -1
1532261880460326 1 0 -1 -2 0 -1 -3 -2
1532261880497227 -3 -3 -1 -1 -1 -1 1 -2
1532261880557067 1 -2 0 0 -2 0 -1 3
1532261880609925 0 -1 -2 -1 -1 0 0 -2
1532261880692704 -2 -2 -1 -2 -3 -1 0 0
1532261880722632 0 1 1 1 0 0 -3 -1
1532261880737584 0 -1 -2 -2 -1 -2 -3 -2
1532261880759525 -1 -2 -2 -2 -1 -1 0 1
1532261880782464 0 -1 0 -2 -2 -2 1 -4
1532261880797424 -1 1 0 -2 0 -2 0 0
1532261880842309 -1 -1 -1 -2 -1 0 1 -3
1532261880880202 -1 -2 -2 -2 1 -1 -2 -1
1532261880931066 1 -2 0 -1 -1 1 -2 -3
1532261880976976 -1 -2 -2 0 0 -2 -3 -3
1532261881000912 -1 -2 -1 -1 -1 -1 0 0
1532261881029835 -1 0 -2 -2 0 0 0 -1
1532261881119594 -1 0 1 4 -38 -1 -1 0
1532261881142539 0 0 7 23 -7 2 0 0
1532261881186416 -2 -3 -5 -11 19 1 -1 1
1532261881202373 0 3 -2 -17 -13 17 -2 0
1532261881322053 1 -1 -3 -10 4 4 5 5
1532261881397850 0 0 -2 -3 4 -2 1 0
1532261881419791 -2 -3 -4 -13 2 -16 -12 -2
1532261881456707 1 0 0 -1 -3 -1 4 -2
1532261881479632 -5 0 -2 -13 -3 -1 -11 -17
1532261881502570 -1 0 0 2 -22 -4 -1 3
1532261881531493 -4 -4 -1 -7 10 -1 0 6
1532261881578368 1 1 2 3 3 2 8 11
1532261881592331 0 -4 -6 -16 -12 -3 7 8
1532261881601317 -3 -2 -2 -1 11 5 -15 -13
1532261881645189 -5 -2 4 4 -17 -9 -19 5
1532261881691067 0 -1 -3 -4 -8 -15 9 8
1532261881699045 2 -2 -5 -12 -4 10 15 23
1532261881720986 -5 -2 0 14 39 -15 6 -40
1532261881763872 -8 2 -1 -5 -48 35 7 31
1532261881787808 -1 1 0 -2 -8 -43 -5 2
1532261881809749 2 -2 0 0 13 28 -7 5
1532261881832712 -5 -5 -5 -2 -9 -11 -21 -12
1532261881854654 11 -3 -3 -8 -5 -31 -62 -17
1532261881868616 -4 -8 -6 -7 -6 20 47 54
1532261881892552 9 -2 0 -1 -3 -23 -10 1
1532261881952400 8 1 -3 13 -8 8 -40 -3
1532261881976334 0 1 2 12 2 13 -28 6
1532261881999267 -6 -3 -4 5 8 -3 -28 -33
1532261882044147 0 -1 -1 -9 -10 -24 7 8
1532261882089027 4 2 0 -3 4 19 20 -5
1532261882126929 3 0 1 -3 2 95 23 8
1532261882138893 -6 -2 -1 -4 -3 7 2 -5
1532261882185768 -3 -5 -3 -8 -3 8 -9 0
1532261882216685 0 -3 -5 -3 3 -1 -21 5
1532261882243613 1 -1 5 17 -11 -8 2 3
1532261882270542 -3 -2 -2 -9 -7 -12 -3 -5
1532261882291485 -6 -3 -7 5 17 0 10 -11
1532261882343347 0 0 0 -2 -10 -11 -4 0
1532261882387229 3 0 1 -1 4 31 -1 3
1532261882448067 1 6 -3 1 -6 1 -10 3
1532261882455048 -7 0 1 -20 -5 -22 -14 -24
1532261882523864 4 -6 -3 4 2 42 -1 8
1532261882611629 3 10 -2 3 4 27 13 24
1532261882649528 -3 1 -4 -9 -6 -40 -9 11
1532261882666482 1 -6 0 4 3 -20 -21 8
1532261882695405 1 2 -2 -11 5 22 10 26
1532261882755244 -3 3 -5 -14 -10 -70 -13 4
1532261882851995 -2 0 -8 -23 -14 42 10 21
1532261882877927 3 -2 -2 -3 -5 26 -8 14
1532261882965682 -7 -11 -1 6 4 -65 -20 -15
1532261882987624 1 -2 2 18 9 1 17 26
1532261883077384 -2 0 -3 6 15 54 -25 -36
1532261883273859 -4 4 1 7 -1 -11 5 -2
1532261883332700 0 1 11 65 11 -17 9 -8
1532261883414482 -1 -2 -10 -35 7 32 0 2
1532261883476317 -2 -3 -4 -20 -7 3 0 1
1532261883499256 -1 1 -2 -4 -3 2 9 0
1532261883518205 -2 2 1 3 2 17 9 -6
1532261883536156 1 -3 0 1 0 28 9 0
1532261883565080 1 -2 -1 1 -2 -10 6 0
1532261883655852 4 -2 -1 5 19 50 -7 1
1532261883745597 -4 -3 1 -4 15 -7 -4 -5
1532261883790477 4 0 0 -5 -7 -67 -6 -2
1532261883842345 -2 -10 -8 1 -17 -15 -2 -3
1532261883866282 0 -1 0 -1 -4 -21 -5 -2
1532261883986957 -1 -2 0 -3 -2 1 -4 -3
1532261884007896 -1 -3 -1 -1 3 18 1 1
1532261884044797 0 -2 0 1 -5 0 -1 -4
1532261884065741 -1 0 -3 -2 -1 -1 1 2
1532261884096658 -1 -2 -3 -2 0 0 0 -1
1532261884119597 -1 0 0 -3 -1 -3 -2 -1
1532261884150514 -2 0 -3 0 -2 -3 6 -2
1532261884210353 -1 0 -3 -1 -1 24 3 0
1532261884240284 -3 1 1 1 0 -13 0 -3
1532261884308099 -4 -1 0 0 0 -7 1 -4
1532261884331044 0 0 0 0 -1 0 -2 0
1532261884366935 0 2 -2 1 -1 -2 1 -2
1532261884397853 0 -1 -1 0 -1 -4 -2 2
1532261884425778 -2 -3 -2 -1 0 -1 -4 -1
1532261884487613 -4 -3 0 -2 0 0 4 4
1532261884510551 -1 -2 -2 0 0 0 -4 0
1532261884532493 -1 -1 0 -1 -1 1 1 -2
1532261884561415 5 -1 0 0 -1 -1 1 4
1532261884577372 2 1 -1 0 -1 0 -6 -2
1532261884600311 -5 -1 -1 -1 -1 3 -7 -6
1532261884615271 -2 -2 -1 -2 -1 8 3 -2
1532261884629234 -4 -1 -1 0 0 -2 -4 -1
1532261884645197 0 0 0 -1 -3 -7 1 -4
1532261884689075 3 0 -1 1 -2 0 -1 2
1532261884727970 -3 0 0 -1 -1 0 0 0
1532261884750909 2 -1 -2 -1 -2 -2 1 1
1532261884793802 -1 -1 -1 -2 1 1 -2 -3
1532261884846653 0 -1 -2 0 -1 -6 -1 -1
1532261884879565 -1 -3 -1 -1 0 -4 -6 -3
1532261884884551 -3 -1 -1 0 0 -4 6 -1
1532261884909499 0 -1 -1 1 -1 -1 -3 -3
1532261884929431 -1 -2 0 -1 -1 7 3 1
1532261884951373 -1 0 -2 0 -1 5 1 -2
1532261884989278 -2 -6 -5 1 0 8 -4 0
1532261885035148 -1 -16 1 1 -1 6 9 -1
1532261885066066 -1 -4 -1 -3 0 11 7 0
1532261885086012 0 2 2 1 -1 -2 -3 -1
1532261885134881 -1 -1 -2 -3 -3 -13 -10 -3
1532261885154828 -3 -1 2 -13 2 -7 -2 0
1532261885200705 1 8 3 0 -25 -3 -2 0
1532261885229629 -1 3 12 0 6 -1 -29 -15
1532261885259548 1 -1 5 4 1 7 -1 8
1532261885274508 0 -5 -5 8 6 13 15 3
1532261885296450 -3 -2 0 5 -3 1 -3 -5
1532261885326370 -2 -18 -9 -10 2 -1 3 0
1532261885374242 -15 23 5 4 0 -17 -2 -7
1532261885394188 -14 21 -7 0 1 3 7 12
1532261885432087 20 -20 1 -2 10 4 -11 -1
1532261885456023 -34 -77 0 -2 -3 -3 5 8
1532261885491927 32 48 0 -3 -2 -6 0 -1
1532261885506887 10 32 4 -11 -16 -28 -4 -1
1532261885552764 5 24 4 -13 -7 17 3 -2
1532261885650502 -3 -14 -3 2 -23 -17 -8 -3
1532261885688402 -2 -7 -4 0 -73 -26 -4 0
1532261885709346 -3 -4 -2 -7 21 4 -4 -3
1532261885735276 -1 0 2 8 -4 2 -5 -1
1532261885755223 1 0 2 17 -15 16 18 5
1532261885769186 -2 -1 1 1 -15 -7 -9 -2
1532261885792124 -1 -5 -5 -15 -15 10 13 0
1532261885806087 -3 -1 -1 4 -3 -4 -1 0
1532261885829026 -2 -1 -2 -7 17 1 6 -4
1532261885874903 0 1 3 1 3 4 -6 -2
1532261885974636 -1 -6 -2 2 2 -7 0 -3
1532261885996577 -1 -7 -1 5 7 6 1 0
1532261886010540 -2 4 1 -9 -80 13 7 1
1532261886137201 -3 5 -1 -3 7 -1 -2 -2
1532261886311751 3 -1 1 4 71 26 -3 -2
1532261886333676 -1 5 3 3 15 0 4 -3
1532261886371575 -2 -2 0 -2 -9 -11 1 0
1532261886496241 2 -2 -2 2 2 -13 -14 5
1532261886553090 4 2 0 1 14 -7 -1 -1
1532261886586001 12 -5 4 2 0 10 -2 -5
1532261886600961 -3 10 -1 -1 1 -31 -4 -4
1532261886668780 -42 4 -4 -7 -14 -41 7 -9
1532261886690721 -18 -7 -3 -6 -7 -24 -23 18
1532261886707685 -43 -31 -5 5 14 -15 6 -22
1532261886783474 -1 -12 -5 -14 5 -20 -18 -22
1532261886820374 3 -12 2 3 -2 11 6 7
1532261886842316 78 25 8 11 33 62 44 -4
1532261886857275 -23 -13 -8 -11 -23 2 -14 -19
1532261886895174 10 -3 -3 1 -5 45 4 10
1532261886919111 -16 -1 -4 -9 10 -5 11 -4
1532261886985932 -17 21 1 -2 -12 18 -6 -10
1532261887037793 -13 1 4 21 -7 20 5 -3
1532261887059735 -25 5 -2 -3 -5 14 -5 5
1532261887082673 40 -4 -1 -8 16 -3 12 1
1532261887104615 -33 -2 4 13 10 3 1 -8
1532261887406806 45 23 1 -5 6 -1 12 0
1532261887426752 -29 -17 -5 -2 0 3 17 -3
1532261887494571 21 10 -1 5 3 0 2 0
1532261887546433 -11 -1 -3 -18 -32 -2 20 -1
1532261887817708 7 2 -1 -9 19 -4 8 3
1532261887850620 -3 -17 -2 -8 6 -1 -2 -2
1532261887954342 -18 -7 0 1 3 -1 13 -8
1532261887973292 25 -4 -5 -4 -11 -4 -2 -2
1532261888026150 3 8 4 -5 11 -1 15 1
1532261888124886 49 10 6 8 -12 1 -8 -2
1532261888229607 16 -5 0 2 18 -3 -11 -1
1532261888248556 15 4 -6 -10 -1 -2 -9 -3
1532261888328342 26 1 1 4 -4 -1 -2 -2
1532261888404140 -5 13 0 -2 0 1 -6 -1
1532261888515841 7 14 5 2 1 3 10 2
1532261888567702 11 -2 1 -3 -3 1 -8 1
1532261888582662 -9 -4 0 -1 -6 -2 3 -2
1532261888727276 -6 1 -1 1 11 -2 4 1
1532261888770167 -13 -13 -7 -11 -52 1 2 -2
1532261888801078 -1 0 -5 -5 -6 -3 7 -1
1532261888822022 -6 -4 -4 -2 -13 -6 2 -3
1532261888844961 -3 3 2 0 1 -1 -1 0
1532261888882859 -1 -2 -2 -2 -2 0 -1 -2
1532261888948683 1 -2 0 1 -4 17 -1 -1
1532261889016502 -4 -4 0 4 19 1 -6 0
1532261889100278 1 3 -2 2 12 14 6 0
1532261889136182 -1 -1 -1 -10 7 -25 -2 -1
1532261889204999 0 -2 1 -8 -23 -7 -3 0
1532261889263841 -1 -3 4 4 12 -18 0 0
1532261889287777 -3 -6 -7 4 19 25 2 -3
1532261889345621 -1 0 -3 -7 -37 -25 -4 -4
1532261889399478 1 1 2 7 -8 -3 -5 0
1532261889466299 -2 -4 -2 -7 -39 7 1 -3
1532261889505195 -1 -1 0 -5 -13 -43 0 0
1532261889527136 0 -1 -5 -3 13 2 -3 0
1532261889556059 -2 1 -2 1 -19 -7 -1 -1

1532261889579996 -2 -3 -1 2 32 18 2 1
1532261889601937 -1 -2 2 6 -1 3 -3 -3
1532261889662774 0 1 1 1 -2 1 3 2
1532261889744555 -2 0 -2 0 1 -7 -1 -2
1532261889767493 1 -2 -1 -1 -13 -3 -6 -1
1532261889811376 1 -1 0 4 13 14 -1 -2
1532261889836310 -1 -1 0 -2 13 4 2 -1
1532261889850272 -1 -1 -2 -2 5 5 -2 -2
1532261889879202 0 -1 0 -2 -9 -4 -1 -1
1532261889895153 0 -1 -1 -3 8 4 1 0
1532261889925072 -1 -2 -1 -2 12 0 -2 -2
1532261889961974 0 -2 -3 -1 -1 -2 -1 -1
1532261890046746 0 -1 -1 -1 0 -1 0 -1
1532261890052731 -1 0 1 0 1 -1 0 0
1532261890067691 0 -1 -1 -2 1 0 0 -1
1532261890104592 -2 0 -1 -1 -2 -1 0 0
1532261890128528 -1 -2 -2 0 0 2 -1 -1
1532261890142491 0 0 -1 -1 0 -3 -2 0
1532261890179392 -2 -2 -2 -2 0 4 0 -4
1532261890298091 0 -3 -1 0 -3 -5 -3 1
1532261890322026 -1 0 -2 -2 2 2 0 -2
1532261890360923 -2 -3 -2 -2 6 7 2 -2
1532261890406802 -1 0 0 1 0 1 -1 -2
1532261890449685 0 1 -2 -2 -3 1 -1 0
1532261890525483 1 1 1 3 11 -12 1 0
1532261890562384 0 -1 -4 -9 3 0 2 0
1532261890689046 4 4 -2 4 11 -5 -3 -2
1532261890711985 1 2 4 5 2 2 1 2
1532261890741904 -5 -4 -1 8 -7 -4 3 2
1532261890748886 4 -2 -6 -15 -8 -8 -11 -1
1532261890787781 -12 -4 -3 -1 -11 -47 -2 -5
1532261890801744 -5 0 2 11 2 5 -1 -3
1532261890854603 3 -1 0 0 -4 -5 -2 -10
1532261890869563 12 1 -3 -4 3 8 2 5
1532261890922421 8 2 4 -4 -45 20 -1 -1
1532261890946358 -4 0 -8 -8 -3 2 -3 -2
1532261890967301 3 0 -3 -5 -11 -9 -2 0
1532261890990241 -5 -2 3 -13 -6 11 4 -2
1532261891041104 -6 -1 0 0 -3 1 7 4
1532261891064043 -1 0 -4 -10 -25 3 -13 -24
1532261891086981 6 3 8 17 7 -20 4 0
1532261891170811 -3 2 -4 -16 4 -2 -12 -4
1532261891191754 10 3 -4 -1 10 -1 10 7
1532261891246608 -3 -4 -2 -6 -1 -18 13 17
1532261891251595 -4 -5 -2 -2 -2 -54 -18 -16
1532261891270544 -1 5 4 5 6 -16 0 7
1532261891290490 9 5 5 0 -1 -12 20 32
1532261891327392 -24 -5 -1 -10 -21 -44 -26 -16
1532261891365291 2 1 1 12 16 6 -17 5
1532261891447072 7 6 -2 -11 4 -2 -12 5
1532261891546816 3 -5 2 7 9 17 7 6
1532261891567749 26 0 -3 3 -3 29 -10 -14
1532261891605647 -8 2 -5 -15 -23 7 -4 11
1532261891643547 2 -4 -2 -6 43 23 1 18
1532261891679451 -5 0 2 2 -13 -1 -12 -17
1532261891779184 -4 -5 -5 -2 8 42 0 2
1532261891837029 4 3 2 -3 6 -29 2 9
1532261891875926 16 4 -1 -6 -7 40 2 17
1532261891888890 1 -2 0 0 0 12 9 12
1532261891913824 2 3 -2 -3 -14 -11 -22 -8
1532261892009568 -6 -5 -5 -18 -16 -69 -21 -27
1532261892109301 -5 -2 -4 -2 7 6 -10 -8
1532261892114288 -3 -4 -2 2 -3 -4 -5 -8
1532261892189088 -2 1 2 -8 10 87 -7 2
1532261892258901 -2 -3 3 16 19 30 1 -5
1532261892293808 -6 -7 -7 -20 -21 -46 -4 2
1532261892356666 2 0 -3 -14 -14 8 17 -1
1532261892378581 7 -1 -5 -18 -15 -13 16 4
1532261892559113 -3 0 -2 -2 -7 -21 -4 2
1532261892590021 -11 -4 0 11 11 10 0 -5
1532261892655846 1 2 1 4 -1 20 -2 -1
1532261892677781 -2 -1 -1 -4 5 -12 -2 0
1532261892791476 -4 -1 -1 -8 -6 -1 1 -2
1532261892889217 -2 4 -3 2 0 2 -14 0
1532261892969002 -1 -1 -1 -2 7 -1 -6 -1
1532261893134559 -9 6 1 -21 -57 -68 -14 -6
1532261893201381 -10 -12 -4 0 -20 11 -6 -1
1532261893234293 -3 3 -12 3 -11 -19 -4 10
1532261893269200 -2 -14 9 4 0 -7 -1 0
1532261893306101 1 -2 -1 0 3 6 3 2
1532261893421792 0 -2 -4 -3 -1 -5 -3 2
1532261893464677 -1 -2 -1 -3 -2 -5 -4 -13
1532261893532495 2 0 -1 -1 -1 -10 -3 1
1532261893578373 -1 1 -1 2 0 -2 -2 -1
1532261893712015 0 2 -2 -3 -2 -1 -3 -8
1532261893734953 -6 -4 0 -3 -2 -1 -1 -39
1532261893802779 0 -3 -1 -2 -2 -1 0 5
1532261893833690 2 -1 0 0 -2 0 2 20
1532261894041136 2 -3 0 -2 0 1 2 16
1532261894100975 1 -1 -2 -2 0 -1 1 0
1532261894228634 -3 -1 -1 -1 -1 1 0 -7
1532261894401173 -3 -2 0 -4 -2 0 -1 -1
1532261894461012 0 -2 -1 0 1 -6 3 4
1532261894506890 -4 -4 0 2 -2 -10 1 -2
1532261894531823 -2 -7 -7 -1 6 -5 4 0
1532261894565733 -5 -2 2 -6 5 -3 -4 -2
1532261894580692 2 0 -3 3 -11 -7 1 1
1532261894612607 2 7 6 3 -8 -4 -13 -4
1532261894625572 0 -5 -11 -18 0 -2 14 8
1532261894664468 1 2 -6 -16 -9 -3 1 -1
1532261894695385 -4 -4 -3 -10 -2 -5 -2 -4
1532261894740265 0 -2 -1 -7 -11 -7 0 -1
1532261894777167 0 -10 -2 1 7 12 -1 -3
1532261894800106 -6 -32 -3 -4 13 6 -1 -8
1532261894844985 2 -11 5 -1 0 -14 4 5
1532261894876916 0 -5 -9 -4 -16 -20 -10 -9
1532261894888868 -4 33 9 8 -66 18 4 6
1532261894919787 -1 4 -7 -11 13 -21 -4 -4
1532261894964665 2 -1 3 1 -3 8 -4 -4
1532261894994586 -1 -5 -3 -4 -3 -3 5 1
1532261895033481 -5 -4 -2 25 14 53 -5 -8
1532261895085343 1 0 2 31 2 2 15 5
1532261895151166 -3 -2 -4 -17 24 25 6 0
1532261895249903 -2 -2 0 1 3 5 3 -1
1532261895318719 -3 -2 -3 -6 -6 -6 -3 -5
1532261895646841 -2 -3 -1 -6 -1 15 -7 -4
1532261895725635 0 -2 -1 1 3 -8 -9 -2
1532261895746575 0 6 -5 -2 -2 -12 -6 -2
1532261895783478 -3 8 3 5 16 31 -1 -2
1532261895791455 -1 -8 -2 -4 -7 -1 -2 -2
1532261895940058 3 7 4 3 3 7 1 -1
1532261895965988 2 1 4 2 -5 -4 -1 1
1532261895987941 -4 1 -1 -4 -11 -27 -2 5
1532261896001897 -15 -12 -1 1 0 25 0 1
1532261896037796 28 23 6 1 -3 2 -4 10
1532261896059743 -70 -37 -17 -8 -10 18 -5 0
1532261896143513 -9 -21 -6 -2 24 0 -19 13
1532261896181412 10 12 7 12 20 -3 6 -8
1532261896314057 -42 -22 -1 6 -7 17 -4 -6
1532261896336995 27 31 3 -9 1 -6 -2 4
1532261896389867 16 -5 -2 -7 -21 -10 -24 -3
1532261896449695 21 12 9 11 -10 -5 0 3
1532261896494574 11 -17 0 -8 4 14 -11 2
1532261896555412 8 -1 -2 -2 11 -4 1 -3
1532261896622233 -63 -12 -4 -8 -2 -10 5 4
1532261896660132 1 -25 -1 4 1 -4 11 2
1532261896696036 -19 5 1 6 2 3 3 0
1532261896742910 5 2 2 7 3 -2 -2 0
1532261896789789 -28 -21 -1 -2 -11 4 4 1
1532261896794778 19 -3 -2 -11 0 5 -1 2
1532261896819705 -5 40 1 2 -7 2 1 -2
1532261896841647 37 -2 5 16 14 4 -3 2
1532261896862590 1 -7 -5 -9 -24 -2 -3 -1
1532261896982270 34 12 -1 -6 10 0 0 -2
1532261897042110 12 -9 -1 1 -13 -1 -6 -3
1532261897056073 -3 35 5 2 -7 -12 -10 -7
1532261897086992 23 1 0 1 5 -1 8 2
1532261897118904 2 13 -1 -3 4 -15 -11 0
1532261897138852 1 7 5 5 1 3 7 5
1532261897199689 4 -9 -6 0 6 18 -7 -1
1532261897283465 -14 -17 -3 2 2 1 6 -5
1532261897388185 9 -12 -3 -4 -13 -3 -3 -2
1532261897403145 -3 -8 -6 -17 9 -4 -4 -3
1532261897416110 9 -1 1 -4 -18 -15 -1 2
1532261897439050 -1 12 0 1 -11 -10 -9 -3
1532261897515844 -2 -10 1 2 1 2 -2 1
1532261897561721 44 12 1 -4 2 3 1 1
1532261897583662 5 -3 3 5 -8 14 -3 0
1532261897672425 -8 0 0 -1 2 -7 2 0
1532261897702345 -2 -2 -4 -1 1 -2 2 -1
1532261897738249 -12 -10 -2 3 -2 -8 0 0
1532261897785123 -9 4 0 -8 -1 -4 4 -2
1532261897798089 -4 -7 -5 -3 -8 -7 -11 -1
1532261897837982 -8 -9 -1 -5 -12 -4 -12 -5
1532261897858938 1 -4 1 -2 11 -13 -8 0
1532261897904803 7 7 1 5 -1 -4 -5 2
1532261897927742 17 7 1 -2 7 1 -3 -5
1532261897964643 -2 -4 -2 8 -2 7 -5 -2
1532261897995561 -16 -10 1 3 1 2 -2 -2
1532261898024483 14 -3 -1 0 13 7 2 2
1532261898139176 13 4 -1 4 5 2 5 2
1532261898153139 -19 -2 -1 -4 2 -1 2 -1
1532261898184057 3 -2 0 -1 -1 -4 2 -1
1532261898227940 4 0 -1 -1 3 -43 1 -2
1532261898272819 -2 1 0 0 0 3 3 1
1532261898317699 -2 -1 1 1 11 73 -1 1
1532261898377540 1 2 1 2 0 -17 -11 1
1532261898437379 -8 -12 -2 0 -9 80 -1 -6
1532261898460317 2 4 1 1 -12 -24 -6 0
1532261898483257 -3 -5 -5 1 37 -8 -2 -4
1532261898507193 12 3 -2 -3 -51 -2 0 -7
1532261898572019 2 -1 0 -4 -12 -21 -2 -2
1532261898617897 4 -1 -4 -5 -5 22 1 13
1532261898676740 -3 0 -3 -1 -22 49 -1 -13
1532261898708654 -4 -1 -2 -1 -2 19 6 2
1532261898720622 1 1 -2 -1 -1 -8 -1 -4
1532261898744558 -4 -2 -3 1 11 -4 0 -1
1532261898753534 1 -1 1 2 -1 -24 -4 -4

1532261898774478 -1 -2 -1 -1 -7 31 9 -4
1532261898789439 2 -2 -1 0 4 6 -1 2
1532261898826338 4 -3 1 -2 -8 -21 -2 -7
1532261898849307 -2 -1 1 0 -3 -14 -2 7
1532261898864266 -2 0 2 0 13 15 -12 -5
1532261898894186 8 -3 -3 1 7 -5 -1 5
1532261898909146 -2 -2 -3 -3 -12 -40 1 5
1532261898926101 1 1 -1 -1 -7 8 4 -4
1532261898948042 -3 -2 -2 -1 -1 1 0 -3
1532261898984948 -1 -2 0 0 0 -7 -1 1
1532261899016859 3 -3 -2 -2 -3 -16 20 6
1532261899037803 -3 -1 -2 -2 -3 -27 -3 2
1532261899043787 -2 -1 0 -2 -6 4 -8 -6
1532261899097643 2 -3 0 -1 4 12 1 -2
1532261899134543 -1 -2 0 1 0 5 -8 -3
1532261899211339 -2 -1 -1 0 -2 -4 -12 -4
1532261899224304 4 -1 1 1 1 -10 -1 1
1532261899278159 2 -1 -2 -3 -2 -2 -1 2
1532261899330021 1 0 -2 -3 -3 -26 1 0
1532261899374901 -2 -1 -1 -1 -2 4 1 1
1532261899457680 1 0 -3 -3 -3 4 -3 -1
1532261899471642 0 1 -1 0 0 -7 -1 -3
1532261899539461 -2 -2 -2 -2 -1 -3 -2 -1
1532261899571375 -1 -3 0 0 -1 2 0 0
1532261899594314 -1 -1 -2 -2 -1 -4 -2 -2
1532261899644180 0 -3 -1 0 -2 2 1 1
1532261899667119 0 0 -2 -2 -2 -7 -1 -3
1532261899749898 -2 -1 -2 -3 -1 -2 -1 -1
1532261899789799 -13 1 -1 -1 -2 -3 0 -1
1532261899848634 2 -1 0 -1 -1 0 0 -1
1532261899885535 -1 -1 1 0 -1 -6 0 -1
1532261899906480 2 0 2 0 -2 -7 -1 0
1532261899943380 0 -1 0 -1 -6 -5 1 0
1532261899966319 -2 -3 -3 -2 -2 -1 0 -1
1532261900042116 -1 -2 -5 4 15 2 1 0
1532261900064058 0 -2 -5 -8 -8 -8 0 -1
1532261900094975 -2 -1 -4 -9 2 5 -1 -1
1532261900124895 -2 -4 -4 -8 4 -11 -1 -4
1532261900168778 -3 -2 1 -5 -6 -9 -7 -1
1532261900192727 0 1 4 7 -12 1 -2 -4
1532261900229628 0 -1 1 -8 -1 6 -1 3
1532261900275493 -4 0 -2 2 -2 -4 -4 -4
1532261900319375 -12 0 -1 -16 7 6 7 2
1532261900349296 2 -4 -7 -5 -24 40 7 -5
1532261900373232 1 -1 3 19 6 -4 9 5
1532261900402154 -3 -3 -5 -16 10 -5 1 -3
1532261900451023 1 -3 -5 -14 -7 -11 3 15
1532261900470970 -3 1 -5 -28 2 -9 14 -5
1532261900492912 2 0 0 5 -9 5 11 -3
1532261900561728 3 2 5 5 -3 -3 17 18
1532261900614585 -2 0 1 7 -4 69 32 31
1532261900666447 -6 -1 -1 13 -3 38 -19 -33
1532261900686394 29 -4 -5 -10 5 15 -39 -9
1532261900718309 -14 -4 0 3 -12 32 -2 1
1532261900769173 4 -2 -6 -6 -13 32 -14 0
1532261900792111 3 0 -4 -1 -2 -20 -37 -1
1532261900873893 1 2 -5 -11 13 47 26 6
1532261900913786 2 2 7 18 -18 -1 -12 6
1532261900997575 -5 -6 -1 5 6 22 -18 -18
1532261901002548 8 -3 -6 -16 1 2 -4 0
1532261901032469 -6 3 12 36 11 3 3 -9
1532261901054410 14 -2 -8 -23 -4 11 18 8
1532261901100287 -5 7 -1 -9 -6 18 10 2
1532261901214980 -12 0 1 3 -4 22 -11 -25
1532261901294767 3 -4 -5 0 0 -8 6 -6
1532261901324687 3 0 -7 -1 -2 -19 6 16
1532261901372562 -4 0 1 0 2 24 6 -5
1532261901423423 -4 -4 -2 -1 -8 -11 -11 -2
1532261901490245 -4 -4 0 19 -2 -2 9 5
1532261901514180 0 0 5 16 -27 -42 0 -17
1532261901548090 3 53 2 2 1 -10 -31 -6
1532261901594964 -3 -6 5 15 2 16 4 -3
1532261901694697 -4 3 -5 -1 1 -27 1 8
1532261901843300 3 2 -1 6 3 -15 2 12
1532261901889183 -4 -9 -4 -10 2 12 3 -1
1532261901911120 1 0 -3 0 -15 5 0 13
1532261901934058 -1 0 -4 -13 -11 -9 -9 -5
1532261902069694 -2 0 -2 -3 0 22 -7 1
1532261902106597 0 4 2 3 -6 -14 -2 -5
1532261902157460 0 0 -1 -2 -2 2 0 -2
1532261902180399 -1 0 -1 0 1 -35 -10 -4
1532261902249215 -5 0 -2 3 4 -36 6 -8
1532261902301076 -3 -4 -7 3 49 39 6 1
1532261902323035 -4 -7 -2 9 55 67 -9 -7
1532261902382857 -1 -1 -1 3 -42 -23 -11 -8
1532261902434719 -3 -3 -2 -5 -8 -1 -1 -4
1532261902502538 -3 -3 -3 0 14 -5 -2 -2
1532261902533455 -3 1 0 0 -7 -9 0 -2
1532261902602271 1 2 0 -1 8 8 1 -7
1532261902637178 -2 -1 2 3 2 -5 -1 -2
1532261902660116 -2 -2 -2 1 2 -5 -2 1
1532261902697018 -3 -6 -3 -1 -2 -13 1 -2
1532261902710980 1 1 0 1 -3 -8 0 -2
1532261902740900 -3 -1 -1 -1 0 2 5 5
1532261902801737 1 2 -1 1 -1 0 -5 -1
1532261902856596 -2 0 0 -2 2 23 2 -2
1532261902869556 0 1 0 -2 -1 -15 -2 -1
1532261902921417 -1 -1 0 -1 0 5 6 1
1532261902951337 1 -1 0 -3 -3 -6 -2 -2
1532261902997215 -2 0 -1 -3 0 -12 -9 -4
1532261903035113 -2 0 -2 -2 0 8 1 -1
1532261903079993 -2 1 -1 -2 -1 -1 -4 3
1532261903108916 0 1 0 1 0 -9 -3 -1
1532261903190697 -2 0 -1 0 -1 2 -2 -1
1532261903214632 0 0 -1 1 0 -1 2 -1
1532261903237572 -4 -3 -3 -2 -1 2 2 0
1532261903259513 0 -3 -1 -1 2 15 5 0
1532261903274472 2 -1 0 -2 0 0 -1 0
1532261903357252 -2 -1 0 0 0 1 2 0
1532261903401135 -2 -1 1 -2 -3 -4 2 0
1532261903455988 0 -2 -1 -1 -1 -5 -7 -3
1532261903476932 -2 -2 1 -1 -1 -1 1 0
1532261903522809 -2 -2 -2 -1 0 -1 0 -2
1532261903559710 -1 -2 -2 1 2 13 1 0
1532261903573673 0 -3 -2 -4 -1 2 2 -3
1532261903597609 0 0 -1 0 -1 7 3 0
1532261903642488 -2 0 -1 0 1 -7 1 0
1532261903687369 -2 1 0 -1 -3 -3 1 -3
1532261903708313 0 -1 -2 -1 0 -2 2 -1
1532261903762169 0 1 -2 -3 -2 -1 -2 -1
1532261903800068 -1 -2 -2 -3 -3 1 -2 -2
1532261903814030 -2 -1 -1 -1 0 0 -4 -1
1532261903867886 -1 -1 -1 4 -9 -1 -8 1
1532261903889832 -5 -7 -4 -23 -27 -27 -4 -4
1532261903936702 -1 -6 -20 1 16 3 1 2
1532261904033444 -2 -3 -2 -3 -3 0 -1 0
1532261904049400 -2 -3 -6 -11 -3 -4 -2 -3
1532261904076328 -1 5 2 -4 3 8 -1 -3
1532261904100265 2 -7 0 -2 -5 -16 -8 -3
1532261904188030 -1 -30 -2 5 29 24 5 -2
1532261904256846 -8 -5 -5 -10 -5 11 -3 -3
1532261904279785 -1 2 10 12 0 12 2 -1
1532261904324665 -2 -5 -7 -2 3 17 -7 -2
1532261904362578 -2 -2 -17 8 20 6 -3 -3
1532261904399465 -1 3 3 4 -28 -5 -11 -5
1532261904422404 -4 -3 -6 -23 38 -16 -4 -5
1532261904489224 0 -1 -1 8 1 -1 1 0
1532261904520142 0 0 0 0 -15 -6 5 1
1532261904601923 0 0 1 -1 -19 -3 -1 1
1532261904632841 -2 1 -3 -7 -3 17 4 1
1532261904774462 2 2 1 -7 -19 -2 -3 1
1532261905165417 -3 -6 -3 -2 3 21 -1 -1
1532261905180376 0 -17 -3 1 4 34 1 0
1532261905239222 -47 -45 -5 0 -5 -31 -16 -9
1532261905353912 -20 -38 0 5 10 82 15 9
1532261905369870 3 7 6 2 4 14 13 12
1532261905420733 14 3 2 18 20 89 2 18
1532261905434696 -61 -40 -5 -13 21 25 60 8
1532261905464617 -10 18 2 -14 -43 98 -8 -12
1532261905516478 88 51 6 -4 -4 6 -4 11
1532261905602248 -37 -39 -7 4 20 10 -1 -7
1532261905621198 51 23 2 13 19 34 2 4
1532261905696996 -1 -41 -4 12 11 -25 -7 0
1532261905711955 -76 -1 -5 -2 -21 9 -8 -8
1532261905741875 7 5 3 4 25 5 3 5
1532261905787752 0 -13 -6 -10 -4 2 4 1
1532261905817673 -28 -37 -3 -5 -32 3 3 -6
1532261905839614 5 -4 2 -2 -4 8 5 4
1532261905953310 15 -1 -2 -4 0 4 -7 -3
1532261905997193 3 19 1 -1 -9 -5 5 6
1532261906027112 23 0 9 16 14 -7 11 4
1532261906073986 26 13 -1 0 7 -2 10 4
1532261906116872 8 5 5 15 -5 0 2 2
1532261906164744 -24 -23 -7 -17 -2 2 0 -5
1532261906177710 33 8 -9 -8 -3 -3 -10 -3
1532261906216606 -4 -10 -3 -2 3 3 -3 -4
1532261906231566 2 -16 -4 -11 -19 6 -5 3
1532261906266472 0 -7 -1 -2 -9 -1 -10 -5
1532261906297389 51 27 0 -1 -8 -1 -17 -2
1532261906351257 -22 -14 -6 -13 -21 0 -17 -5
1532261906395129 -13 -7 0 -1 28 -4 -1 1
1532261906441005 18 -9 -3 -5 -1 -6 3 -1
1532261906506836 -5 0 -2 -12 -15 0 -21 0
1532261906531770 10 21 -2 -4 0 2 5 -3
1532261906543737 5 -18 -3 -13 6 -6 -1 -4
1532261906626516 -18 -32 -5 1 19 5 4 1
1532261906664415 2 3 0 -6 -2 11 -9 -3
1532261906718271 4 -11 -1 0 -10 -7 5 0
1532261906821994 -5 -10 -1 -4 1 -7 -9 0
1532261906905770 9 0 -1 -2 -4 -1 2 2
1532261906972590 -40 -9 -3 -12 -15 2 -7 -5
1532261907011487 -46 -11 -11 -9 -4 -3 -4 -6
1532261907063405 6 -18 -11 -3 -5 4 2 -4
1532261907087331 15 7 -3 -16 -15 -13 -8 -2
1532261907106280 5 -14 -4 0 2 9 -2 1
1532261907130216 4 20 5 17 16 3 -5 1
1532261907220973 -50 -4 0 5 -18 -20 6 -2
1532261907274830 -5 0 -5 -11 -2 13 3 -2
1532261907309736 44 3 3 -13 -3 14 -2 3
1532261907363592 7 28 2 -7 -14 -13 5 12
1532261907452355 6 5 4 18 -5 1 -3 -1
1532261907595971 0 1 1 2 0 -12 -6 -2
1532261907639860 -7 -1 -2 -2 -6 69 0 -2
1532261907729613 -1 -3 -4 0 17 -50 1 1
1532261907753549 -3 4 -3 -9 -33 -46 -7 -2
1532261907804413 7 6 1 3 -6 26 2 5
1532261907910130 -1 0 1 2 -4 -7 2 6
1532261907961991 0 -3 -1 -1 10 2 -5 -4
1532261907984930 0 1 2 2 -12 -6 -4 0
1532261908007869 0 -1 -1 -1 3 4 -1 -1
1532261908052749 -7 0 -1 0 4 2 -2 0
1532261908106605 -3 -1 -2 1 -7 -1 5 -2
1532261908143506 -4 -2 -2 1 5 16 2 -8
1532261908164450 0 2 0 0 -2 -9 -2 2
1532261908188387 -3 1 1 -1 -7 -10 -2 -3
1532261908233266 0 1 -1 -1 2 7 0 -2

1532261908309063 0 -3 -1 1 2 -1 1 5
1532261908314050 -2 -1 -2 -1 -2 -5 1 1
1532261908390844 0 -1 -2 0 1 1 -8 -4
1532261908403810 -3 -1 1 -1 -1 0 -1 -1
1532261908442706 -2 0 -1 -1 -1 -4 -1 -2
1532261908472626 0 -1 -2 -2 2 0 -5 -3
1532261908539448 0 2 1 12 7 0 4 1
1532261908637186 -8 -3 -4 -1 10 -4 -2 -10
1532261908666109 7 23 -2 -12 12 11 16 12
1532261908697027 0 10 3 23 9 2 9 3
1532261908719965 3 -27 15 10 -1 -1 3 2
1532261908742913 -6 -8 -9 -11 -12 -1 -4 -1
1532261908787783 -2 12 -4 9 1 -1 2 -2
1532261908794765 -5 -14 -4 13 40 21 5 -1
1532261908809729 1 -1 -8 -16 -39 12 3 2
1532261908862586 -2 -38 -11 0 17 -1 1 -1
1532261908868567 -2 0 -6 -5 18 -2 2 -3
1532261908937383 6 2 1 13 8 6 -4 -1
1532261908954338 0 32 17 30 -10 7 -5 -1
1532261908983261 -2 -2 -12 -7 -26 -1 2 1
1532261909014178 11 -6 -8 -11 -15 19 -1 2
1532261909058061 4 8 2 8 -3 33 -2 12
1532261909094962 -1 -1 -1 -7 0 -29 -15 -2
1532261909168765 0 3 -1 8 -23 -8 -6 -2
1532261909230600 7 6 8 1 -9 4 25 3
1532261909254536 -1 -30 -6 13 11 13 4 -1
1532261909297421 -5 -6 -2 3 -15 -25 1 0
1532261909342301 -6 27 -5 -7 -24 -5 -20 -6
1532261909348285 -2 -11 -5 6 31 40 6 -9
1532261909395160 4 -4 -4 -15 -24 10 6 -1
1532261909417101 1 -2 -2 -11 14 -7 -3 0
1532261909440039 1 -1 2 -1 24 -40 -2 9
1532261909485916 -3 -2 2 -3 4 -17 -6 -1
1532261909514840 -13 19 13 -1 -12 10 9 -18
1532261909555730 -3 -12 -7 -2 -4 -2 -8 5
1532261909598615 -5 3 1 -3 23 30 7 -2
1532261909604600 -3 -13 -3 3 -2 -21 1 -8
1532261909621554 -1 3 0 -3 1 -5 -14 3
1532261909648482 1 -1 0 0 5 -2 0 0
1532261909657458 1 -12 -9 1 1 -5 12 0
1532261909703335 14 -11 -5 -4 -4 -7 -6 -3
1532261909770157 -1 -7 -3 -4 -4 -5 8 2
1532261909795091 -3 -3 -2 -6 6 21 4 -2
1532261909817031 -3 -4 -5 -7 10 -10 1 -1
1532261909858919 -1 -3 -1 2 0 -1 10 1
1532261909897815 0 1 2 18 3 -11 -10 10
1532261909934716 -6 -1 -6 -7 1 17 -7 8
1532261909957655 1 1 -3 -14 -13 -28 -13 14
1532261910024477 3 9 6 7 6 6 46 31
1532261910093293 -4 -8 0 1 -53 -18 -42 -6
1532261910160114 0 -3 3 12 1 -11 14 10
1532261910184050 -2 -4 -7 -24 21 -5 20 3
1532261910242892 5 2 1 3 7 53 5 1
1532261910256869 -2 0 0 -8 4 44 -13 -5
1532261910280791 1 3 -4 -26 1 -9 10 12
1532261910393490 -3 -4 -3 -4 -3 42 12 6
1532261910415432 1 -1 -3 -4 -23 -36 6 7
1532261910433383 0 2 7 -21 -7 18 12 8
1532261910490244 0 0 -3 -8 8 -20 6 7
1532261910511175 -2 -4 -6 -14 -3 -21 3 4
1532261910670748 -1 0 -6 -12 -2 3 -10 19
1532261910709644 -1 1 -2 -12 -1 18 4 -8
1532261910716626 1 -1 0 4 0 -9 -9 3
1532261910752529 2 3 6 5 -7 21 -11 -25
1532261910774471 0 0 0 -2 -4 -2 -16 -16
1532261910814364 -1 -2 3 8 -9 -5 18 12
1532261910836306 2 0 1 -5 8 16 12 19
1532261910927063 0 0 -3 -16 17 7 20 17
1532261910954988 -1 0 3 8 -9 -98 -33 -17
1532261910972941 -19 1 3 6 -5 -4 7 24
1532261910992886 6 6 -4 -6 -3 6 1 -9
1532261911007847 -12 -18 -7 -6 -17 -44 -6 -9
1532261911051730 8 1 0 -3 8 -17 -3 2
1532261911233243 3 5 -1 2 -1 15 -17 2
1532261911249201 -4 -12 -4 -6 0 27 15 -3
1532261911276129 1 -1 1 -1 -1 18 3 13
1532261911336967 0 1 1 1 9 10 -14 2
1532261911411766 -5 -2 -1 3 6 49 6 -2
1532261911458641 -1 0 2 8 3 -25 -8 -2
1532261911480583 0 -1 0 2 -7 -17 2 -4
1532261911503521 -3 -3 -3 -7 2 -6 2 -2
1532261911527457 0 -1 -4 -4 -2 -23 18 -2
1532261911562364 0 -2 0 3 -3 -27 -17 -6
1532261911585303 -3 -2 -2 0 0 3 -2 -2
1532261911622203 -1 3 2 2 -5 -40 -6 -2
1532261911705980 -2 -2 -1 -3 13 0 5 6
1532261911756844 2 -2 1 1 4 -19 13 4
1532261912064023 -6 2 5 3 32 19 6 4
1532261912095938 2 -5 0 -3 1 -14 7 -1
1532261912115884 -3 -1 0 -2 -4 -1 -1 -8
1532261912147799 2 2 2 3 2 4 1 11
1532261912199660 -1 2 -3 1 2 7 0 -1
1532261912311361 -5 -3 -2 1 -1 -10 -11 0
1532261912329313 1 3 -2 -5 -1 14 2 0
1532261912374193 -2 -2 -1 -2 -2 4 2 -2
1532261912506851 0 0 0 -1 0 -7 0 -2
1532261912581638 2 6 -4 -2 -2 -16 -2 0
1532261912611558 -1 0 -3 0 -1 11 -3 -3
1532261912665414 -1 -1 -1 -2 -2 -11 -4 -2
1532261912686359 -3 1 1 1 -2 -3 2 -2
1532261912807041 5 0 2 1 -1 0 -1 1
1532261912844934 -6 -4 -3 -1 -2 -2 4 -3
1532261912904774 1 -2 -5 -5 -2 -2 -4 1
1532261912919734 5 0 1 1 -1 -11 -4 -1
1532261912979575 -4 -1 -1 -2 0 1 0 5
1532261913047393 0 0 -1 -1 -1 8 4 16
1532261913139148 -2 1 1 1 0 0 -2 -8
1532261913169068 2 -2 0 1 -2 -1 -1 -5
1532261913174054 -3 -4 -2 0 1 3 -3 -10
1532261913421393 1 4 4 0 7 -1 1 0
1532261913439345 -3 -3 -1 2 4 6 0 -2
1532261913565009 -2 -17 -6 -6 -58 -22 6 13
1532261913738545 -1 -32 -7 -4 11 11 2 -5
1532261913759489 2 27 4 5 8 -6 -3 14
1532261913789422 -6 -12 -7 -26 -14 22 1 -7
1532261913865206 0 -6 -4 -11 6 -4 -4 -4
1532261913924049 2 3 4 18 11 -14 4 3
1532261913999846 -1 -3 -8 -18 34 -14 4 3
1532261914187345 -3 -2 -1 3 57 36 0 -2
1532261914361877 -1 4 1 1 -8 -62 -13 -2
1532261914594272 -1 -9 -5 -4 -8 -13 -2 0
1532261914616198 7 -2 -2 -3 -20 -8 -3 1
1532261914660080 8 -4 2 -2 -12 10 6 1
1532261914817659 -22 1 -1 -2 -7 -7 -4 -8
1532261914892459 -7 13 2 7 66 39 0 -16
1532261915080955 -101 -38 -9 -9 -5 -95 0 -13
1532261915146779 37 6 4 9 0 -13 -2 1
1532261915229558 46 -2 2 6 -15 -6 4 -1
1532261915251498 38 -6 2 10 -5 10 11 4
1532261915389130 -19 2 -5 -19 -7 -8 -5 -6
1532261915421046 21 -11 -4 4 6 -20 4 0
1532261915530752 6 3 -1 -3 -11 4 -2 0
1532261915566656 21 4 8 7 16 4 -2 2
1532261915619514 -12 -7 -1 -4 3 11 9 1
1532261915687334 -19 -8 -1 9 -5 -6 3 -2
1532261915711270 -12 -5 1 11 -12 -19 -22 -7
1532261915853888 -3 -3 -2 -1 -5 10 13 3
1532261915899769 14 -1 -1 -2 -3 -11 -3 -1
1532261915918714 1 35 6 0 -6 -2 2 -3
1532261915967583 0 -7 2 7 -9 -5 -2 -2
1532261916152091 26 11 -1 -5 -4 -2 5 0
1532261916259802 -16 0 -2 -3 -45 -1 4 1
1532261916272768 41 -2 -4 -16 5 -11 -11 -1
1532261916340586 11 2 2 2 1 -2 -3 1
1532261916431344 -40 -1 -4 -6 -15 -18 -10 -7
1532261916514133 31 6 -1 -2 -4 6 -1 -4
1532261916536064 -1 6 4 1 1 -10 -7 -1
1532261916564987 -2 -4 -2 -1 -4 5 -4 -2
1532261916632805 -20 3 4 3 0 4 -2 -4
1532261916683668 2 -2 -6 -3 -11 -15 -8 -3
1532261916707605 -24 7 -4 -12 4 -1 0 -4
1532261916767445 11 4 2 3 14 2 4 4
1532261916798362 14 5 1 12 7 25 0 -1
1532261916803349 -37 -10 -3 3 -2 -12 -2 -2
1532261916842245 -13 -1 -4 2 1 -3 0 -2
1532261916919040 -26 -6 6 28 4 4 -1 -2
1532261917015781 16 -7 -5 2 -9 -12 3 3
1532261917053679 14 1 9 1 8 -9 1 1
1532261917076618 -15 -6 0 5 -8 7 -1 -2
1532261917120500 8 13 -1 5 5 20 -6 -1
1532261917142443 -14 -14 -4 -8 5 -4 1 -2
1532261917173360 -2 0 -4 -3 -5 10 0 0
1532261917354874 -6 -5 -5 -2 -9 -3 -3 0
1532261917487520 -2 2 2 -5 -8 -11 -1 -2
1532261917644101 0 -4 1 1 7 4 0 0
1532261917704937 -1 -2 -4 4 3 15 -4 -3
1532261917749827 1 -2 -11 -23 24 8 -1 0
1532261917796705 0 1 -4 -8 7 15 -2 -2
1532261917840576 -1 2 -4 -1 -2 -6 0 -2
1532261917865509 0 -2 -3 0 -5 3 1 -3
1532261917885456 -1 3 -2 1 -1 -5 -3 -1
1532261917923363 -2 -3 -2 0 13 11 -2 -2
1532261917953274 -2 -2 -2 -5 -3 -12 -1 -2

1532261917997156 1 1 -4 8 -8 -1 5 -2
1532261918027077 -4 -1 -2 -5 -18 5 6 4
1532261918071971 1 3 8 -5 4 5 12 4
1532261918111852 -4 -6 -3 15 -3 -6 -3 -3
1532261918140773 0 -7 -2 -14 -2 11 0 1
1532261918184655 10 -2 3 6 -2 -1 6 1
1532261918190640 -3 -31 11 42 -19 -2 -4 -1
1532261918253471 5 1 9 1 -4 -1 2 -2
1532261918274415 5 -3 -8 -9 30 3 -1 1
1532261918321289 14 -20 -9 -15 10 8 -4 -13
1532261918342234 16 -17 -9 -5 19 -6 -5 3
1532261918396090 3 9 -3 -1 -11 -4 -4 -3
1532261918419028 -5 -1 3 11 3 -7 1 -2
1532261918425013 0 -17 -4 3 -7 -2 -2 -1
1532261918470898 -8 -21 -13 -5 -14 -9 -1 -2
1532261918513783 5 8 -2 1 -1 -5 5 8
1532261918537718 -6 11 7 -4 -11 -14 -1 -3
1532261918687319 11 5 0 7 16 0 -5 -5
1532261918719233 6 -5 -4 -17 9 16 2 0
1532261918741175 -8 -1 1 0 2 -1 -5 -3
1532261918763116 8 23 3 -2 -7 -11 1 3
1532261918799020 5 -13 -12 -16 0 3 -2 -1
1532261918873820 -9 -7 -3 -5 11 -3 -1 -3
1532261918882796 -4 -9 -4 -7 -10 3 -8 -3
1532261918993507 -10 3 -4 -1 -18 3 -1 -2
1532261919005475 12 3 -4 4 68 20 1 -2
1532261919077283 5 18 7 2 -11 0 -3 0
1532261919113187 -3 2 -1 -4 -38 -29 -8 -5
1532261919183000 14 11 -2 -8 -19 -1 -2 -2
1532261919287752 1 -6 -6 -1 -3 -1 4 13
1532261919301715 4 -6 3 22 58 10 6 5
1532261919339614 -3 0 11 9 17 6 0 3
1532261919362552 -2 10 8 23 -7 5 -1 -6
1532261919384493 -5 -2 -9 -11 -2 6 -1 -4
1532261919401448 11 14 1 37 -2 -13 -1 2
1532261919438394 6 -1 -2 -15 10 -4 -7 7
1532261919466319 -1 -9 -12 -24 -17 -1 -4 0
1532261919482277 -25 -2 -3 2 12 10 -8 -6
1532261919522170 -6 -6 -5 -20 -19 -5 2 4
1532261919550095 21 -15 -3 0 18 10 9 5
1532261919565055 2 4 2 3 22 11 3 1
1532261919594975 -15 0 -3 -8 -23 -3 -4 -2
1532261919639864 2 20 9 -4 -9 1 2 17
1532261919692713 -10 -7 -10 -3 -4 -16 -5 -10
1532261919707673 4 1 -6 -14 -9 10 -3 -5
1532261919738592 1 0 4 2 -6 -37 23 2
1532261919751556 -5 -3 -3 5 1 18 -4 -9
1532261919783471 -19 -6 2 20 7 20 7 3
1532261919796436 -4 -8 -2 5 11 -1 -1 8
1532261919850316 2 4 -1 -8 0 9 3 -2
1532261919879239 9 10 14 59 28 -7 4 -1
1532261919969996 1 6 2 8 -20 -6 -1 4
1532261920073719 8 2 0 -11 -21 -23 1 0
1532261920105633 -2 6 2 7 24 17 3 11
1532261920142534 15 30 11 -7 9 13 -6 0
1532261920164476 36 -10 -7 0 -19 -13 -6 7
1532261920225313 1 -9 -2 25 21 22 6 -7
1532261920292135 -19 -16 -15 -14 -11 -22 -7 0
1532261920340006 12 4 4 13 7 11 5 2
1532261920397852 0 9 0 11 24 14 -1 -6
1532261920487612 -3 -2 -1 3 15 14 4 -12
1532261920503569 10 -17 -8 8 35 23 -2 -11
1532261920546455 12 -14 -16 8 1 19 -4 -5
1532261920587367 -22 -16 -8 -10 12 10 2 3
1532261920706061 -6 -4 -8 8 16 5 11 -5
1532261920728989 6 10 4 -8 16 12 -5 8
1532261920794812 1 -3 -4 11 -26 -25 -2 -1
1532261920824732 5 -4 -3 -4 27 14 5 -7
1532261920864625 -2 -7 -1 -10 -17 -9 2 1
1532261920886566 8 2 5 5 -18 2 -7 -4
1532261920961366 -1 -1 -1 -4 2 6 -4 -3
1532261921012943 -1 -2 -2 -3 -3 -6 -3 -2
1532261921056827 -2 -1 -4 -5 -7 -4 -1 0
1532261921103702 3 3 -2 -3 -2 2 -3 0
1532261921253302 -2 -3 -5 -7 -3 3 -4 -1
1532261921260284 -1 -1 1 -1 1 -3 3 1
1532261921304165 3 -1 0 4 -14 12 0 0
1532261921357025 -3 -3 -7 -13 42 21 1 -2
1532261921371985 -1 3 -4 -8 -2 9 2 -1
1532261921425840 -2 -2 0 -2 10 5 0 -1
1532261921486678 -1 -2 0 3 -8 -9 -4 -2
1532261921507622 -1 -4 1 -6 -20 -11 -4 -1
1532261921544523 0 1 2 -3 -1 -8 1 1
1532261921581425 -2 -5 -4 -9 4 17 0 -5
1532261921627302 0 -1 -2 23 5 -4 -4 -1
1532261921709083 -2 -3 -5 -12 8 4 2 -1
1532261921746982 1 0 -6 -30 -53 -9 -5 2
1532261921806822 -1 -3 -1 -1 -4 -1 -5 -1
1532261921843723 0 1 6 21 -41 0 -1 -7
1532261921866662 -1 1 5 24 40 8 5 -13
1532261921951435 -2 -1 -4 -9 1 -3 -6 -6
1532261921987339 -1 -2 -1 1 13 -17 -28 2
1532261922018256 -1 0 3 7 16 -6 20 5
1532261922041195 11 -3 1 2 -58 -63 -10 23
1532261922070117 3 5 1 -1 13 17 5 1
1532261922084080 -1 1 1 -6 -13 -8 -22 -24
1532261922107020 7 3 -4 -4 -1 -49 0 24
1532261922137937 -3 0 -1 -5 -16 9 14 31
1532261922166858 6 0 -3 9 14 -35 -5 15
1532261922211739 -6 -3 -2 7 17 29 -37 -27
1532261922302496 -1 0 9 48 -14 -28 -11 -9
1532261922348374 -2 -1 -7 -34 -10 23 -7 -6
1532261922370315 -2 2 1 -17 3 0 -13 -13
1532261922406219 -2 -5 -4 9 14 -51 -36 -8
1532261922444118 -2 -3 -7 -25 -15 12 -5 -6
1532261922469051 0 -1 2 20 -16 21 -17 -9
1532261922490992 1 4 14 43 -14 37 15 -5
1532261922581759 -1 -2 0 -10 6 -15 -13 -15
1532261922642587 2 2 1 -11 0 60 7 9
1532261922671510 -1 -2 1 7 3 -34 1 -3
1532261922693451 3 13 2 -2 -2 -22 9 13
1532261922745312 -2 -4 -4 -2 -2 3 -4 -11
1532261922851030 -2 -2 2 3 15 -25 5 -5
1532261922902891 0 3 0 -1 -13 1 -2 8
1532261922923835 -1 0 -3 -1 -15 -21 -10 -11
1532261923022570 -4 -4 -3 -9 -10 -5 -25 -21
1532261923092384 -3 -1 -3 -4 3 -8 -5 -8
1532261923159221 -2 -4 -5 -13 -22 -5 4 -5
1532261923181147 0 -2 -6 -12 0 -17 1 0
1532261923203089 0 -3 1 -3 -6 11 19 12
1532261923254949 -3 0 -2 -5 4 11 -15 -28
1532261923293846 1 3 5 3 -7 -15 2 14
1532261923361664 0 6 1 -4 -14 -30 4 10
1532261923414527 -1 -4 -7 -6 1 -4 11 28
1532261923457408 0 0 -5 2 2 9 4 8
1532261923532208 -3 -2 -3 -19 4 -20 -12 3
1532261923645904 0 -2 -2 2 3 -1 -5 -3
1532261923690784 -2 8 3 7 2 -10 -1 -1
1532261923757605 0 -1 -1 -3 -5 18 8 -4
1532261923809466 -5 -2 2 -2 -4 -1 -5 -4
1532261923877289 3 -2 1 0 0 5 5 20
1532261923921168 -1 0 0 -3 0 0 -3 -9
1532261924013920 -5 -4 -1 -1 -1 -1 -3 -6
1532261924079744 20 4 1 -2 -38 -34 1 10
1532261924169504 -1 -6 -1 2 2 -5 -1 0
1532261924245301 0 2 1 1 6 35 11 2
1532261924267242 0 1 -2 -9 -54 -11 0 2
1532261924291178 9 -2 -1 1 20 -43 -11 -46
1532261924303146 1 1 1 5 79 43 8 9
1532261924394901 -3 0 -3 -4 -6 -3 -2 -4
1532261924471696 0 -1 -1 -1 -4 10 -4 -14
1532261924523557 15 -2 -3 -3 -10 -10 -5 -6
1532261924546495 -2 0 -1 -1 0 3 2 1
1532261924569434 -7 0 0 1 0 2 1 -8
1532261924597359 -7 -1 -1 -2 -2 -2 -6 -2
1532261924695098 -7 -1 -1 0 0 -3 -1 -17
1532261924770895 -1 0 -2 0 -1 -3 -5 -11
1532261924836720 -3 -2 0 -2 -1 -36 -7 -7
1532261924859658 -5 -1 0 0 1 3 -1 6
1532261924897557 -13 0 2 2 -6 -3 1 -11
1532261924942437 7 -1 -2 0 -1 1 2 16
1532261924978340 0 0 0 -2 0 6 2 2
1532261925070096 -5 -2 -1 -1 -3 5 7 -2
1532261925114975 -2 -1 -1 -1 -7 -6 0 2
1532261925137914 -2 -1 0 -1 -3 3 2 -15
1532261925181797 -3 1 -1 -1 -6 -3 0 -3
1532261925218697 5 -2 -1 -1 2 3 1 19
1532261925310453 2 -1 0 0 2 -4 1 -6
1532261925333393 1 -1 1 0 -4 -12 -1 -1
1532261925393231 5 0 0 2 2 5 10 0
1532261925408191 2 1 -4 -5 -6 -1 -9 -2
1532261925437114 3 12 20 59 24 10 2 6
1532261925475013 -2 -1 2 9 -6 -11 -7 -3
1532261925556794 -1 1 3 5 -1 0 -2 -1
1532261925609652 -3 3 4 5 -9 -3 -6 0
1532261925624613 5 3 -1 2 -12 -14 -3 1
1532261925678468 4 52 14 0 2 -13 -2 -3
1532261925700409 -5 -12 1 -1 -1 6 -6 -1
1532261925736314 4 11 -2 -2 -2 3 11 -10
1532261925760250 13 39 4 -1 7 -1 1 7
1532261925781194 -7 -33 -5 3 10 27 1 1
1532261925842031 -6 3 -2 2 25 38 -1 -9
1532261925902869 -1 4 3 0 7 -8 -2 -5
1532261925924809 -11 10 -10 -8 -9 -2 -7 -3
1532261925999610 1 5 5 8 3 -19 -3 -3
1532261926067429 -3 -4 -8 -39 -20 -3 -4 -3
1532261926204062 2 1 1 16 5 -21 10 8
1532261926226004 0 2 4 7 -56 -32 -25 -5
1532261926239967 -4 -2 -1 10 -1 -11 -2 -3
1532261926253930 -4 0 -3 -5 -7 15 5 1
1532261926381589 0 -1 -1 14 14 -7 4 0
1532261926398542 -1 -4 0 2 57 40 -3 -2
1532261926549140 0 -2 1 2 -15 -38 -9 -4
1532261926573084 -3 0 -2 1 25 -10 -1 -4
1532261926615962 -2 10 5 1 -8 -2 -3 1
1532261926826399 -1 3 2 4 40 -2 2 0
1532261926839364 2 -13 -1 0 5 2 1 0
1532261926872276 31 8 -2 -1 -2 14 -3 -11
1532261926968020 9 -8 -3 -5 -3 -22 2 -7
1532261927048804 31 24 2 -1 9 37 3 1
1532261927060773 3 7 4 1 -16 1 -2 -15
1532261927123604 0 5 6 19 35 78 23 -7
1532261927184441 -44 3 4 6 -28 -5 -5 -8
1532261927252260 4 1 -9 -15 22 9 -10 -5
1532261927297140 -15 -12 -10 -4 -9 30 -1 -5
1532261927679119 3 4 4 0 -2 17 5 4
1532261927784836 1 -8 -5 -3 -23 -3 -3 -8
1532261927852655 -22 -1 1 -5 -5 7 -1 2
1532261927867614 -11 -6 -1 -4 1 1 3 -14
1532261927972339 7 1 1 3 -21 -2 -3 -3
1532261928055113 9 -5 -5 -3 7 -13 -16 -3
1532261928086030 -8 -3 -3 -6 5 20 -7 -3
1532261928154847 -2 -2 0 -3 -13 1 1 13
1532261928177793 -1 1 4 5 -27 -12 -3 -2
1532261928191748 18 -6 -7 -11 -5 -16 -2 -6
1532261928235631 -17 0 0 -3 -1 -17 3 -3
1532261928294473 7 12 -2 -4 6 -5 -1 0
1532261928362292 -39 -9 4 32 20 21 10 1
1532261928387225 -3 3 -3 -15 4 -29 -1 1
1532261928431107 1 -1 2 5 2 19 6 4
1532261928489951 2 -2 3 0 -3 -13 7 0
1532261928566744 34 14 0 5 4 -16 -8 0
1532261928587689 -22 -14 -4 3 8 9 1 -1
1532261928610628 -13 -39 -5 1 5 8 -4 -6
1532261928663486 -24 -5 1 -6 -8 -23 2 -2
1532261928687423 -8 4 -2 -2 -7 -34 -9 -2
1532261928700388 19 14 0 -1 9 34 7 1
1532261928707369 -2 10 2 6 9 8 9 1
1532261928721331 -17 -19 4 -1 -7 -25 3 -2
1532261928744271 2 15 6 11 -5 22 -3 3
1532261928775199 -3 14 -4 -7 -7 -33 -13 -2
1532261928804110 13 20 8 9 20 9 1 4
1532261928895865 4 1 1 7 -27 -9 -5 -4
1532261928940745 2 -8 -1 -9 9 -2 5 2
1532261928978644 67 11 0 0 9 51 5 1
1532261929000584 -37 -11 -6 -5 -2 -29 4 -3
1532261929044468 35 -4 -4 -5 -8 -24 -11 -3
1532261929083364 3 17 7 -3 0 7 2 -3
1532261929144200 -2 -1 -5 0 -2 -29 4 -2
1532261929172126 36 15 0 -2 1 0 11 -1
1532261929187086 -10 -11 -5 0 3 -2 5 5
1532261929224985 8 16 -2 1 0 1 5 1
1532261929254905 3 3 3 4 6 17 9 1
1532261929276847 -14 -2 0 -1 -4 -13 -3 0
1532261929329705 3 -2 -1 0 -1 -2 -8 0
1532261929344664 -13 -7 -1 -2 -2 -39 -5 -3
1532261929542137 -1 -3 0 -2 -8 56 -1 -3
1532261929555101 -2 -3 -3 -4 3 7 0 -1
1532261929584024 0 -4 -4 -19 -3 12 6 2
1532261929607961 -3 1 -3 -12 -17 -38 -3 1
1532261929659822 3 4 6 6 4 45 5 4
1532261929691736 1 0 4 1 6 45 9 3
1532261929750589 -3 -11 -3 -2 -1 8 -1 8
1532261929818398 0 -1 -3 -3 4 -12 -3 3
1532261929840339 -2 -5 0 -2 -58 -28 1 0
1532261929855299 3 0 -3 -2 -8 -5 13 6
1532261929884222 0 -3 -1 -6 2 -2 -4 2
1532261929907167 -2 0 3 4 3 15 -4 0
1532261929967001 -2 -1 -4 -3 62 42 0 -4
