1532260714272776 -1 0 0 2 -1 1 -2 -1
1532260714317656 0 -1 5 0 0 2 -3 -2
1532260714362535 0 -1 -3 -1 1 0 1 1
1532260714453294 0 0 0 0 0 -1 0 0
1532260714564994 -3 0 -35 9 0 0 -2 -3
1532260714632813 -2 2 29 -20 -4 -1 1 0
1532260714710605 9 14 4 -5 -5 0 1 2
1532260714752493 -1 -7 -20 -43 -1 2 3 -1
1532260714820311 -9 -4 -2 -5 -2 -2 -2 -2
1532260714873170 8 11 -5 -14 -3 -1 -1 -1
1532260714927026 5 14 1 9 1 -1 -2 2
1532260714948971 9 -16 -20 4 1 2 1 0
1532260714969911 -3 -17 -2 2 0 0 -1 -1
1532260715014791 -13 15 -11 5 -2 -2 -2 1
1532260715052690 -15 -33 0 1 -3 -5 0 -39
1532260715097570 27 55 1 7 1 1 -2 5
1532260715127490 18 6 14 1 -6 -10 -5 -5
1532260715195309 -35 -43 -34 7 10 9 9 -31
1532260715226226 20 1 -22 52 17 10 -3 1
1532260715270109 36 110 -24 5 1 0 13 3
1532260715294055 -46 25 11 -14 -1 0 1 -45
1532260715374828 21 -15 -39 -3 -2 1 9 21
1532260715390786 -56 3 35 -10 1 -5 -6 -21
1532260715427687 -45 18 41 4 4 2 -6 -18
1532260715450626 -6 -19 2 3 -3 11 -8 -32
1532260715495506 -6 15 -4 5 2 0 -1 12
1532260715525426 -89 18 -66 -15 -14 -22 -13 -4
1532260715562327 11 5 -12 17 7 3 -2 10
1532260715719906 29 2 88 13 10 13 1 11
1532260715737858 88 -1 1 -5 1 125 -8 22
1532260715796700 -24 1 17 2 -1 -3 15 33
1532260715862524 -42 -2 21 17 6 -10 13 14
1532260715892444 -36 0 -87 1 -1 -6 -5 -7
1532260715960263 -9 0 -19 -7 -2 -3 1 0
1532260716005151 9 2 1 3 0 -17 -4 2
1532260716029080 -2 1 -11 14 0 -34 2 -2
1532260716079943 -14 10 30 -11 -5 -14 -7 -6
1532260716117842 -3 32 -24 -1 0 2 1 -1
1532260716147762 -6 15 -44 -2 7 -5 1 0
1532260716192642 -4 32 19 11 -4 -5 -1 0
1532260716252482 0 0 36 1 -3 -13 -1 1
1532260716351218 1 -1 -39 -4 -1 25 4 4
1532260716373159 -4 -1 53 -6 -1 18 -3 -4
1532260716395101 -25 5 80 -6 -6 -8 0 14
1532260716410060 35 -9 -21 -3 1 -7 4 9
1532260716462919 -13 4 48 10 0 -25 7 1
1532260716613516 11 0 -6 -3 -4 6 6 1
1532260716636467 7 -11 23 -10 -4 -1 -1 8
1532260716659393 3 -3 3 3 4 6 7 -6
1532260716682332 -9 -1 4 -2 -1 0 2 -6
1532260716763116 21 7 -5 4 3 2 -2 -2
1532260716906732 5 6 27 -29 -23 -19 -2 -2
1532260716927676 21 18 22 -6 -4 -7 -3 12
1532260716980552 -9 40 10 1 -9 4 4 3
1532260717002476 2 -45 -5 -8 1 -1 2 13
1532260717138113 -17 -23 0 4 0 1 -3 -4
1532260717153073 20 5 -2 -1 -2 -3 -3 -1
1532260717183991 -3 2 2 -1 3 -6 -1 -11
1532260717227873 13 21 -2 -9 -7 -5 0 2
1532260717272753 -1 -15 3 4 -11 -7 -4 -1
1532260717317634 9 8 -5 -2 -13 -7 0 5
1532260717392433 5 -5 -10 -12 -11 -11 -5 0
1532260717430332 -2 -19 -3 -1 -2 0 0 -13
1532260717445292 16 -7 0 -3 2 0 1 2
1532260717490172 -7 30 9 35 10 -1 0 3
1532260717513111 -11 -29 -6 -14 -5 -2 0 1
1532260717543031 3 -27 -1 -7 -3 1 0 3
1532260717579932 -4 -8 -2 1 0 1 -1 -5
1532260717739506 1 27 1 -4 -2 -1 -1 -2
1532260717775409 3 7 0 -7 -8 -2 -3 -7
1532260717873148 3 -1 -4 -18 8 4 1 1
1532260718024743 1 8 -79 -4 -1 6 0 0
1532260718045686 -3 -22 -30 1 -4 -3 0 0
1532260718082588 5 34 120 12 -1 18 1 1
1532260718167361 -5 3 -4 -6 -8 -10 -5 0
1532260718189303 17 11 14 15 1 3 -1 2
1532260718218246 1 -6 -1 7 4 12 3 -2
1532260718240167 -12 4 36 -16 -1 0 3 2
1532260718256123 -4 3 28 1 3 -6 0 -2
1532260718300006 -10 -4 -8 -8 -6 -5 -7 -10
1532260718322946 -10 -6 -35 5 1 -2 -1 0
1532260718382785 -11 -12 9 -6 2 11 4 8
1532260718412705 6 -16 32 -17 -14 -19 -6 -3
1532260718547345 0 -10 -71 -5 -3 -57 -90 -22
1532260718570284 -9 18 -48 -5 7 41 -8 3
1532260718593222 -59 -71 48 2 -6 33 61 -18
1532260718645091 -5 -8 18 18 -5 -18 -23 -5
1532260718689963 10 24 53 10 6 6 26 -37
1532260718751798 23 7 -2 4 -1 10 -9 17
1532260718862501 16 -74 -8 -1 -1 1 10 68
1532260718892422 -2 12 -1 -6 -2 -3 -9 12
1532260718922342 3 15 -20 -3 -2 1 -5 -78
1532260718975201 -26 -37 -22 -6 -9 -7 1 53
1532260719028060 28 13 35 1 -1 10 7 89
1532260719050001 -1 -28 -2 1 0 11 3 7
1532260719072940 -32 -41 64 5 8 32 108 -53
1532260719094881 28 -1 -21 -2 5 -15 -33 -23
1532260719170678 -20 -32 -3 7 16 -7 -18 -10
1532260719237499 -19 -69 -25 -13 -8 -2 2 7
1532260719328257 -37 36 -3 2 -1 -6 -11 -48
1532260719410038 -11 36 4 36 18 -10 -15 -8
1532260719471873 15 -5 -37 -19 -16 -23 -17 -5
1532260719545675 13 11 -57 38 30 4 13 23
1532260719576592 8 -50 42 -19 -3 -23 -5 28
1532260719620475 7 -7 -7 -16 -4 7 47 1
1532260719672337 -8 2 35 13 -4 -15 -15 33
1532260719695275 9 27 39 -18 4 0 1 29
1532260719726193 14 3 -9 -2 -4 5 16 -6
1532260719748134 -17 17 -19 -11 -3 -5 0 -12
1532260719778054 2 43 18 5 2 -1 -6 -9
1532260719799995 -1 -18 -18 13 4 2 0 6
1532260719822934 2 -19 -25 -8 -6 2 -12 1
1532260719844876 -9 -10 -16 0 0 1 -1 2
1532260719874795 -1 -12 -9 1 -1 -1 3 -1
1532260719942614 2 -6 -6 5 -1 0 -2 -2
1532260719980513 1 -5 -8 -27 1 0 2 -1
1532260720010432 1 -10 -7 0 -1 -2 1 -2
1532260720055329 -3 8 -12 6 0 -1 -2 0
1532260720100193 -4 -13 12 -12 -5 -3 -1 1
1532260720168010 -5 35 -8 -5 1 -1 -3 -2
1532260720204913 -8 -34 -10 -3 -2 -1 0 0
1532260720234832 4 4 -10 -16 -7 -3 1 -3
1532260720287691 5 15 -24 -1 1 -1 6 35

1532260720310659 -13 3 8 -1 -8 -2 0 -64
1532260720400418 -14 11 -14 -9 -8 8 -9 12
1532260720535117 -7 -39 5 1 -1 2 8 11
1532260720587985 -8 -33 -10 26 0 4 3 0
1532260720647816 -2 39 11 -3 0 -1 1 1
1532260720662776 9 12 23 0 -2 0 1 1
1532260720692696 7 -10 -20 -7 -3 -1 -1 -5
1532260720737575 9 -14 7 5 1 0 -2 -8
1532260720812376 -4 -69 -20 4 5 1 0 1
1532260720865234 -8 -39 7 0 1 1 1 0
1532260720977933 0 -4 -3 58 4 0 -2 -1
1532260721022813 -3 1 -8 1 4 1 0 1
1532260721135512 1 0 2 -1 -6 -5 -8 -1
1532260721174409 -2 0 56 4 4 0 -5 1
1532260721278131 1 54 1 -1 0 2 -1 2
1532260721315032 2 -63 17 -1 -1 0 0 0
1532260721346946 -2 41 16 -6 -1 -1 0 3
1532260721412770 0 -2 -17 -9 -2 0 1 -1
1532260721480588 0 9 -25 -3 -5 0 0 -1
1532260721614790 0 3 -12 -5 -2 0 -1 -1
1532260721667649 -3 11 49 6 3 2 0 -2
1532260721787329 -6 -12 -14 0 -3 -9 -6 -2
1532260721870117 5 1 -10 -4 1 0 1 1
1532260721922970 0 -8 50 1 2 0 0 -2
1532260722035322 0 4 -15 2 1 0 -1 -2
1532260722074219 0 -2 -5 -1 -2 -1 -1 -2
1532260722163978 -1 -8 -21 -2 -1 0 -2 -2
1532260722229802 -8 -23 26 4 -2 -3 -3 -1
1532260722312581 2 30 46 1 -3 0 3 11
1532260722402340 -3 -13 -4 10 4 -1 -2 -2
1532260722441236 -18 -9 -39 1 -1 -1 -3 -6
1532260722463178 -7 -5 -7 -2 -1 -2 0 1
1532260722529999 4 14 -11 3 -2 0 -2 2
1532260722589839 0 7 -12 -6 -4 -3 -1 3
1532260722629732 11 17 12 -5 -6 -1 -1 3
1532260722657657 5 -7 31 5 1 -2 -1 1
1532260722717498 3 34 18 5 1 2 1 1
1532260722747418 -9 -7 14 4 2 -5 0 -8
1532260722777338 -9 -11 4 0 -1 1 -1 -2
1532260722823215 6 -3 -4 -1 -1 2 -1 -3
1532260722845156 -4 -22 -6 0 0 0 -2 -4
1532260722919956 8 7 14 2 1 -3 -1 6
1532260722957855 5 16 -28 -2 -1 1 1 2
1532260723011711 7 -24 -43 -4 -2 -2 -2 3
1532260723032655 -2 -4 42 10 -1 1 -1 -2
1532260723092506 5 46 69 4 -4 -3 -2 0
1532260723167294 -6 -8 -9 -3 0 0 -2 -1
1532260723213172 -2 2 9 -5 -3 -3 -4 -5
1532260723250073 5 5 14 0 2 1 1 -1
1532260723288970 0 -15 -14 -1 -1 -1 -1 -4
1532260723309770 -5 -35 -29 -3 0 0 5 10
1532260723326725 -4 22 2 -1 -1 -1 -3 -6
1532260723362632 -1 6 6 -5 3 0 -2 -3
1532260723385567 -7 8 27 -10 -4 0 -1 -3
1532260723415487 -4 -20 -62 4 1 0 2 -5
1532260723492281 2 20 7 3 -2 0 -1 3
1532260723558106 3 26 -67 -13 -1 -3 -1 1
1532260723588026 1 -4 19 0 -2 -2 1 1
1532260723700725 1 0 9 -5 -4 -2 -2 0
1532260723790492 7 -15 13 2 3 1 -1 1
1532260723835372 -56 -24 3 16 -3 -1 0 -6
1532260723888251 4 -3 -31 -5 -4 -4 -1 0
1532260723948071 1 13 -45 -9 -4 -1 0 -3
1532260723977990 1 -7 76 8 -3 -3 -4 -4
1532260724059772 1 -13 3 -4 1 0 -1 -3
1532260724076726 -10 -32 22 -11 -3 -4 -3 -1
1532260724127591 1 0 5 -9 -1 0 -2 -2
1532260724165503 -14 -11 16 2 -1 0 1 -5
1532260724210384 7 4 -34 -2 0 1 0 3
1532260724285190 2 -2 -3 -1 -2 -1 1 -1
1532260724367968 -4 18 -46 -10 -2 0 0 1
1532260724389905 7 -5 28 4 2 -1 1 1
1532260724404865 9 -57 14 -5 2 0 -1 1
1532260724449761 2 17 -24 -6 0 0 0 1
1532260724517580 -4 -10 12 -6 -2 1 -1 -1
1532260724684135 0 -9 -25 0 4 2 -2 2
1532260724720039 2 -14 -45 4 1 1 0 -2
1532260724764920 -5 -8 12 6 1 -2 0 3
1532260724809799 -1 31 -7 -1 3 1 1 5
1532260724855676 0 -7 -47 0 1 3 -7 2
1532260724907537 3 8 45 -8 -3 -2 1 -2
1532260724945436 -8 -1 -7 2 -4 -3 -2 -6
1532260724961393 3 -14 -16 -10 1 0 -3 0
1532260724984332 6 -9 15 -1 -2 -1 0 0
1532260725013256 -3 51 7 -2 0 -2 -1 -3
1532260725027217 -1 11 17 4 -1 -2 -2 -2
1532260725050243 0 -1 41 20 3 1 -1 1
1532260725095123 1 13 -40 -9 -3 0 -2 0
1532260725154968 -1 -2 36 4 1 -1 -3 0
1532260725237745 -6 -12 -6 -3 -1 11 -1 0
1532260725275641 -3 -1 -23 -7 -1 -5 1 1
1532260725342812 1 -15 2 2 0 -2 -1 1
1532260725372735 -4 8 -17 -2 -4 2 -2 0
1532260725410630 -9 -3 2 0 -3 -12 4 0
1532260725450524 -2 -8 90 12 0 -1 -4 -4
1532260725477451 10 30 39 24 5 6 -1 3
1532260725517345 12 -5 14 -8 -3 -2 2 0
1532260725539287 -17 6 56 10 4 0 -1 1
1532260725575190 -9 -25 55 2 1 0 -2 -1
1532260725703846 -7 -16 -88 -2 -1 -5 -1 0
1532260725726785 -6 4 22 1 1 -2 -2 -3
1532260725762688 -8 -11 -20 4 1 1 -1 2
1532260725777649 1 22 46 10 2 -1 0 -3
1532260725807569 -1 10 -16 -6 -3 1 0 6
1532260725852449 2 29 -5 -2 -2 -1 0 -1
1532260725875387 -3 11 84 -16 -3 -2 0 -2
1532260725920268 -1 -2 -24 11 3 2 1 2
1532260725980107 -9 -24 -45 -4 -5 -4 -2 -1
1532260726026982 -5 117 -10 -1 0 4 1 -2
1532260726071871 13 -12 23 -7 -1 -2 3 2
1532260726085825 2 -1 -33 0 1 4 1 -1
1532260726107766 -7 -1 -14 1 0 1 0 -1
1532260726145665 -12 -6 3 8 4 7 1 -2
1532260726168604 -4 -50 -13 -8 -6 -1 -3 0
1532260726191542 -3 3 -61 -33 -9 -5 0 -4
1532260726220465 -11 -4 12 -2 -1 0 1 -2
1532260726242406 3 -16 -1 5 0 -2 -2 -5
1532260726265345 -3 5 18 11 2 7 1 -2
1532260726302258 -8 0 -40 -13 -1 13 1 -1
1532260726333163 8 37 5 -6 -4 -4 -2 0
1532260726348124 -8 -4 7 6 -1 6 2 7
1532260726387019 6 -11 3 -6 -4 8 -4 5
1532260726414951 7 9 -15 3 1 -4 -3 3
1532260726520668 4 -7 -21 -6 0 6 1 5
1532260726565548 -4 -5 -10 6 4 8 1 -19
1532260726641346 2 -14 -75 -4 0 -5 4 14
1532260726685228 -21 -7 -8 2 2 3 4 1
1532260726708204 0 -17 -18 -5 -3 -6 0 2
1532260726782973 -10 15 11 1 -1 -12 -4 -13
1532260726805910 6 -5 -3 -2 2 9 4 5
1532260726842807 14 8 26 -1 0 2 0 9
1532260726865746 7 -10 7 3 -4 2 -2 -1
1532260726902646 -5 4 0 -6 0 5 0 0
1532260726940546 -5 -9 2 -1 -2 7 9 14
1532260726970466 -2 24 9 -2 -5 -4 -1 -1
1532260727007367 -1 -7 14 -2 -2 -11 -3 1
1532260727038286 7 -12 -29 -5 0 -8 -1 14
1532260727076182 -1 -8 -5 9 1 -15 -1 -1
1532260727143013 -7 1 7 3 0 -7 1 5
1532260727180903 5 -2 3 -1 -2 9 -1 -3
1532260727225786 -3 -6 2 7 1 -1 -1 -2
1532260727262684 0 -7 -13 -6 -5 -2 0 14
1532260727292604 4 -3 -14 -2 -2 -3 -6 -6
1532260727315542 0 24 15 1 3 6 2 2
1532260727360423 -7 -1 5 0 0 -5 -5 -8
1532260727435222 -7 -5 2 3 -3 -9 1 0
1532260727473126 11 1 -11 3 -1 -1 -1 11
1532260727517240 8 -3 5 7 1 3 1 2
1532260727608001 -11 -11 -1 3 3 6 -1 -3
1532260727652878 8 5 7 9 5 3 2 -2
1532260727705738 7 19 -3 -4 -1 -3 1 2
1532260727757605 -6 -2 2 -3 -2 -1 -7 -34
1532260727802477 5 -7 -3 1 2 8 1 8
1532260727908210 5 3 7 0 1 14 2 5
1532260727982994 -4 -5 -1 2 0 1 2 6
1532260728019896 -9 -5 0 -3 1 -2 -4 -17
1532260728095111 2 -12 -10 0 0 22 -1 1
1532260728184871 5 1 6 1 2 -2 5 7
1532260728214791 3 6 4 0 -2 -2 -3 -4
1532260728230749 -4 -3 -4 -2 -1 -7 -3 5
1532260728252702 0 -2 -2 0 1 -6 0 -5
1532260728297570 -2 -2 -2 1 2 12 4 -1
1532260728425229 5 -5 -2 1 2 12 -1 -1
1532260728529949 24 -7 0 0 1 4 -4 -1
1532260728763325 -5 9 -15 -3 0 -22 -8 0
1532260728830146 -1 -2 9 0 2 9 2 6
1532260728927885 -8 23 28 7 2 14 -1 2
1532260728972767 -1 -5 -7 2 2 8 -1 -2
1532260729100423 -8 -18 -5 -2 -3 -2 3 4
1532260729145303 4 4 -1 -2 0 -2 -4 0
1532260729160271 9 -15 -8 -8 -2 -3 1 6
1532260729190183 -10 12 -4 -3 2 -5 1 2
1532260729228085 7 -5 -1 0 -2 -7 -1 -1
1532260729281938 9 -3 2 0 0 1 -2 -2
1532260729317842 -3 -15 2 3 2 -2 1 -1
1532260729340788 13 14 1 2 -2 3 0 -4
1532260729377682 -5 14 -3 -3 -2 5 -1 -2
1532260729400620 -12 -8 -3 -1 -2 -5 -1 -7
1532260729482401 -2 9 9 -2 -2 -9 -6 1
1532260729497361 2 -9 7 -2 0 -8 -3 3
1532260729512322 -6 8 -1 1 2 3 1 0
1532260729632999 0 3 1 -2 -2 -11 0 15
1532260729699820 5 -6 0 -2 2 -2 0 0
1532260729782607 0 -4 0 -1 -2 -7 -4 -4
1532260729812518 6 -12 -5 0 -3 1 0 3
1532260729963116 4 10 1 3 0 0 0 2
1532260729985058 -2 -3 -6 12 0 1 1 1
1532260730067836 5 -4 -4 -1 3 2 1 1
1532260730112716 -5 5 -5 4 -3 0 -1 -1
1532260730172279 0 -22 -1 3 -1 -1 0 4
1532260730234112 -2 7 -1 -3 -4 1 -3 -3
1532260730270015 -5 7 -2 -2 -2 0 2 -2
1532260730292954 8 -1 -1 3 -2 4 1 8
1532260730382714 3 9 -3 -5 0 -2 0 -2
1532260730450533 -2 1 -4 1 3 0 -2 -2
1532260730534309 -1 -2 -8 9 4 2 0 1
1532260730563202 6 -3 3 -6 0 -2 -1 -2
1532260730659942 -2 -7 1 3 -1 1 -3 -3
1532260730697842 0 -11 0 -6 1 -1 -1 -2
1532260730766671 -1 4 9 1 0 2 2 9
1532260730795580 0 -6 3 -4 0 -1 1 1
1532260730840461 4 -10 -2 4 0 0 -1 -2
1532260730915260 -4 -4 1 -13 -4 -1 0 -3
1532260730953159 -7 -5 -3 -2 1 -7 0 -4
1532260730976197 6 7 -9 -3 -1 2 -1 0
1532260730999136 7 -12 -3 -5 -4 -6 0 0
1532260731028059 2 6 -11 1 0 2 0 1
1532260731088898 -10 -14 10 0 -3 1 3 -1
1532260731117819 -1 4 -4 -11 -4 -1 -2 -3
1532260731192618 -1 7 21 1 1 -3 -3 -2
1532260731245477 -1 -2 2 0 0 -2 -4 -1
1532260731267419 0 -2 -1 -12 -4 -1 1 -1
1532260731366155 0 -10 -9 -6 -3 2 0 1
1532260731424998 -1 -10 -9 15 4 2 3 2
1532260731454917 -11 -18 -4 -16 -5 -3 0 -3
1532260731499797 -11 13 1 6 7 3 1 -7
1532260731560635 -5 -1 2 3 1 1 0 -2
1532260731582576 -2 12 -3 23 3 0 -2 3
1532260731621472 1 6 -9 -3 -4 -4 1 -2
1532260731644411 -3 -7 -11 -5 -4 0 0 -3
1532260731680315 -1 -8 -7 0 -1 -1 -1 -3
1532260731755114 -9 -5 7 -3 -1 -3 1 -1
1532260731799995 0 -6 1 0 -1 0 -1 1
1532260731837893 11 8 1 -1 1 2 -2 1
1532260731874794 4 1 27 -1 1 1 1 0
1532260731898731 0 -19 -6 1 2 2 -1 1
1532260731912693 -5 4 3 4 -1 -4 -1 -2
1532260731965552 -5 15 8 4 1 0 2 -1
1532260732047333 4 -9 -13 -1 -1 -4 0 4
1532260732093211 -1 4 -16 7 1 -2 -1 -2
1532260732198929 1 0 -7 4 0 -1 -2 -1
1532260732264751 2 3 -2 8 1 1 -1 2
1532260732287690 5 -10 2 3 5 0 -2 -2
1532260732310634 6 23 8 1 -2 -2 -1 1
1532260732393304 1 -6 -5 2 0 0 -2 0
1532260732430206 7 -1 1 -1 -3 -4 -2 0
1532260732520120 8 -11 -21 -1 2 1 -1 0
1532260732602901 1 -6 7 2 2 1 0 -2
1532260732686675 4 3 -2 -5 -2 0 -2 0
1532260732790397 -1 15 -2 2 1 1 0 -3
1532260732820317 3 4 0 -7 -3 -3 -2 0
1532260732903096 3 -6 1 -2 -2 -2 0 0
1532260732962954 -6 -6 -7 5 2 0 0 0
1532260733008831 3 -1 21 18 3 0 -2 -1
1532260733031771 3 5 6 -10 -3 -1 -1 -1
1532260733090612 0 -19 -5 3 1 -2 4 3
1532260733112554 1 4 -14 -2 1 2 0 -3
1532260733157459 -4 18 -33 -3 -1 0 0 -3
1532260733202314 -4 -8 -1 1 -3 -3 -1 -2
1532260733293071 -8 -3 -3 -3 -1 0 -1 -3
1532260733315012 -8 9 4 3 1 3 -1 3
1532260733374853 -2 -2 -17 -3 -2 -2 0 1
1532260733457631 9 -4 -9 4 0 0 0 -1
1532260733577321 -2 -8 -5 -5 -2 -1 -2 0
1532260733593280 2 -3 17 18 4 0 -2 -1
1532260733697988 1 1 -13 7 1 0 1 -1
1532260733772793 2 40 -11 14 1 -2 -3 -2
1532260733796725 -13 -2 -23 0 0 -3 1 -2
1532260733819663 1 1 8 1 -2 -3 1 -2
1532260733841604 -2 10 -5 4 0 0 -1 2
1532260733862548 1 2 5 -5 -8 0 -1 -1
1532260733922388 -6 4 8 17 6 1 0 1
1532260733990207 0 5 -7 5 1 -2 -1 0
1532260734043065 1 -5 16 12 1 -2 0 -1
1532260734087956 4 17 -17 -7 0 1 -1 1
1532260734102906 -3 3 -3 -1 0 1 -1 -3
1532260734216602 -1 -19 -10 0 3 1 1 -1
1532260734282425 6 -4 -44 -2 0 -1 -1 0
1532260734335284 -3 -10 0 0 0 -1 0 -1
1532260734358232 2 -15 -1 -2 -3 1 -1 1
1532260734418063 -8 -4 0 1 -2 -2 0 0
1532260734545721 1 -16 -5 8 3 1 0 -1
1532260734575641 1 -15 0 -5 -8 -2 -4 -2
1532260734612543 3 69 -5 -8 0 -3 -3 -1
1532260734674378 2 -6 -2 -6 2 1 -3 0
1532260734786078 -6 -2 1 4 -4 0 1 0
1532260734860879 -4 8 -9 -11 -2 -2 -2 -1
1532260734928697 1 1 -6 1 -2 1 1 -2
1532260734974576 -15 -3 2 0 -2 -1 -1 -1
1532260735452384 2 0 -4 -8 -3 -2 0 -2
1532260735543142 0 -12 -1 18 0 0 -2 -2
1532260735573061 2 3 1 0 -2 0 -3 2
1532260735662821 -9 -1 3 0 0 0 1 -4
1532260735707701 -2 -1 1 14 5 -2 2 0
1532260735797462 -10 -21 0 -1 -1 0 -1 0
1532260735812422 0 1 -9 -4 -3 -4 -1 0
1532260735933114 -10 -6 -3 -4 0 -2 0 -3
1532260735970000 2 -15 -3 0 2 0 -2 0
1532260736061755 1 -1 1 2 0 1 1 -1
1532260736097658 -2 -16 -3 -2 -2 -3 -2 0
1532260736247907 -3 23 5 6 -1 1 -1 -1
1532260736322709 7 10 -8 0 -1 0 -1 -1
1532260736436421 2 7 4 -6 0 -1 2 2
1532260736510805 -1 -7 0 -4 -1 -2 0 1
1532260736570638 -2 -1 1 -1 -1 -1 -1 2
1532260736630478 7 1 -11 -13 -3 -1 0 1
1532260736698297 -3 -3 1 -5 -2 -1 0 0
1532260736809998 6 11 -6 -7 -4 -1 -1 0
1532260736893773 1 -2 18 13 3 1 2 -1
1532260736930675 -2 -7 -7 -15 -1 0 0 1
1532260737020435 1 4 2 4 2 -2 2 1
1532260737127150 -6 -3 12 -2 0 1 1 -3
1532260737170035 0 0 9 -8 -7 -3 -1 2
1532260737222897 -9 6 -33 6 -2 -1 -3 -2
1532260737320632 -2 -5 -22 -2 0 1 1 -1
1532260737372494 2 -10 -14 2 -2 0 -1 0
1532260737411390 -7 8 -4 -3 -2 -1 0 -4
1532260737448290 -2 8 7 12 -1 -3 0 0
1532260737523091 8 -5 -7 2 3 1 -1 1
1532260737582931 3 8 2 1 2 0 0 -1
1532260737604872 -8 2 3 -6 0 0 -1 0
1532260737665709 -6 2 14 2 2 1 0 -2
1532260737726555 1 -14 7 0 1 0 1 0
1532260737747491 0 -5 3 2 0 1 -1 2
1532260737785389 -2 0 -20 0 -2 -2 -4 -1
1532260737815309 -8 4 21 -1 1 1 -2 -1
1532260737875149 -7 1 15 7 0 1 -4 -4
1532260737928008 3 -10 -4 3 -1 -1 -3 -1
1532260737958235 11 -1 -33 1 -3 -1 -1 3
1532260737981173 1 8 -2 0 2 -1 -1 -1
1532260738004112 -7 0 -7 -4 -2 -1 -2 -1
1532260738056776 -6 -6 15 -2 -3 -5 -3 -2
1532260738107638 -1 2 7 -1 2 0 0 0
1532260738197399 0 0 18 -6 -2 11 -2 -2
1532260738220338 8 -24 -3 0 -1 -6 -4 2
1532260738242278 4 9 44 9 3 -5 -4 -1
1532260738280178 9 4 -29 -7 4 -4 1 1
1532260738319073 -9 -34 -28 -13 -6 -2 -1 -3
1532260738354988 0 33 -23 4 0 1 3 4
1532260738384898 -1 0 -29 7 0 -2 -1 0
1532260738429778 4 0 -4 -2 -3 3 7 3
1532260738475655 -1 11 1 -4 0 -1 -1 -3
1532260738550741 -5 -3 -15 -3 -4 2 3 -2
1532260738565702 3 9 -34 -15 -8 -5 -4 1
1532260738600608 -16 3 2 -4 -2 0 1 -1
1532260738617564 3 5 12 2 2 -1 1 0
1532260738640501 1 -7 8 1 -1 -3 -2 -2
1532260738692363 1 -2 -16 6 3 -1 1 1
1532260738730262 6 43 3 2 -1 -1 1 -1
1532260738745222 8 14 -8 -6 0 3 -1 1
1532260738828998 -5 -3 -6 -6 -1 -1 -2 -4
1532260738842960 -5 1 -9 -3 -3 1 0 1
1532260738895404 -4 19 -1 -3 -1 -3 0 3
1532260738948264 3 16 2 -2 -5 0 -2 1
1532260738979181 5 16 1 -4 -2 -7 -1 -3
1532260739001122 -4 -25 69 19 4 4 -2 -1
1532260739030063 -7 -22 34 -9 -2 0 -1 -2
1532260739059983 -1 -23 15 -6 -1 -5 -2 -1
1532260739082938 1 -33 -73 -22 -2 0 1 2
1532260739127802 2 40 47 2 0 -1 2 1
1532260739157722 -9 46 -20 1 -1 -1 0 -2
1532260739195624 -1 -49 -97 -10 6 2 0 1
1532260739225541 13 75 15 19 22 7 3 4
1532260739262999 3 32 16 7 -6 2 3 2
1532260739299900 2 1 5 -19 -8 -3 0 -1
1532260739412599 2 4 7 -2 -1 2 1 1
1532260739600098 -2 -7 -15 -6 -3 1 1 -3
1532260739668914 -2 20 -15 2 0 0 -1 1
1532260739705815 -2 -12 -8 -2 -2 0 0 -2
1532260739802556 0 11 0 6 3 0 -1 0
1532260739847436 -1 -7 -5 -5 -1 3 0 -3
1532260739885334 2 11 4 -1 1 -1 0 2
1532260739902289 2 13 -8 1 0 0 -1 1
1532260739923249 0 0 1 3 0 0 0 -1
1532260739960135 -3 -1 14 -2 -2 -2 -1 -1
1532260740215452 4 50 4 -6 -2 2 -2 1
1532260740394972 -1 -5 -2 0 0 1 1 1
1532260740470769 0 10 16 2 1 0 -2 -1
1532260740522631 -2 -2 -7 0 -2 -2 -2 1
1532260740582470 -2 -11 -2 1 -2 -2 -1 -2
1532260740627350 2 43 23 -9 -4 -3 -2 0
1532260740822827 -2 -8 -21 -11 -5 -2 -1 1
1532260740957468 0 -1 16 2 0 0 -1 0
1532260741041174 -3 -18 -61 -3 0 1 -1 -1
1532260741227675 2 13 38 5 -1 -2 -2 -1
1532260741265580 -1 4 -5 -2 1 -2 -1 -1
1532260741415174 -9 -3 -18 -3 -5 9 -4 0
1532260741489974 5 4 13 3 3 -8 6 17
1532260741534855 6 -10 -35 -42 -2 -6 4 8
1532260741769227 -5 -7 -16 2 0 -3 -1 0
1532260741843030 2 2 4 -7 1 2 1 -2
1532260741872949 -7 -7 -13 -10 -2 -4 -1 -4
1532260741932789 -4 -3 -4 -9 -6 -4 -1 -1
1532260741992629 7 2 9 -3 -2 2 2 2
1532260742015572 6 8 17 6 -2 0 -1 4
1532260742060447 -5 -12 -16 5 5 1 -1 -3
1532260742143227 5 8 8 7 2 0 1 5
1532260742166166 -5 -15 -10 25 3 0 0 -1
1532260742203067 -6 -5 -1 -1 -3 -2 -2 0
1532260742225024 -17 -27 -18 -10 -7 -5 0 -7
1532260742277866 -10 -10 -7 -5 -1 2 0 -5
1532260742315765 -3 -16 -10 -4 -2 -4 -3 -3
1532260742399541 5 -5 -9 0 -1 0 -1 -4
1532260742442427 15 12 10 3 -2 -4 -3 10
1532260742457387 5 8 8 3 0 1 0 2
1532260742488313 -8 -10 2 -3 -3 -2 -4 -3
1532260742600005 -8 9 -3 0 0 2 -5 -8
1532260742637904 -11 -59 -2 -2 0 14 14 -5
1532260742667824 -22 -36 4 -38 -11 -8 -3 0
1532260742690762 23 127 17 2 4 2 -11 8
1532260742713701 -44 127 -19 -6 -8 -12 -13 -11
1532260742765563 45 -94 -17 -8 -9 2 -7 4
1532260742802464 38 19 30 15 2 3 8 19
1532260742847344 33 2 11 57 17 -1 -2 -8
1532260742893221 2 -10 7 1 -5 -13 -8 3
1532260742915163 -33 -1 3 -8 -6 -2 3 -8
1532260742931120 72 2 10 -5 -7 -5 -10 -41
1532260742960042 -43 17 4 14 2 11 30 10
1532260742976997 23 14 8 29 11 8 18 47
1532260742997941 18 6 16 6 2 -14 -5 10
1532260743087722 -27 25 40 -4 -3 -6 -13 -5
1532260743192421 -56 26 22 -12 1 0 2 6
1532260743245280 -87 -3 -4 -12 -11 -46 -7 -16
1532260743283191 28 -2 -1 -9 -1 -3 6 3
1532260743298139 56 -2 21 0 1 7 48 3
1532260743425797 7 -6 -26 -6 4 -4 -28 -28
1532260743462699 21 3 2 1 7 29 9 30
1532260743500597 -127 1 -1 -7 -4 0 -27 -8
1532260743560437 8 -3 -14 -2 -1 12 -12 -6
1532260743590357 4 6 0 -1 -3 9 3 6
1532260743620276 0 1 -4 -1 -1 -11 1 -3
1532260743643216 8 -32 0 -1 -1 1 3 3
1532260743703056 -2 11 15 -8 -4 10 -2 -1
1532260743732976 -1 4 10 -6 -5 -4 -1 -2
1532260743769877 -1 6 -85 -13 0 1 4 -1
1532260743799797 0 -15 -114 -8 -8 -3 -4 0
1532260743822736 -3 9 50 1 5 -8 -3 -4
1532260743876592 -7 -15 45 2 4 -8 -2 0
1532260743912509 0 15 103 15 -1 2 -1 -1
1532260743935447 0 -3 2 0 3 -11 0 2
1532260743988305 -2 1 20 2 1 -7 -4 -2
1532260744010259 0 5 -29 -11 -7 0 -2 1
1532260744078065 -6 14 59 3 5 19 -2 -10
1532260744102002 -13 0 -44 -9 -3 9 -1 10
1532260744122946 24 4 51 9 1 -17 8 19
1532260744197745 3 -16 -25 -3 -10 -36 -23 -26
1532260744379260 -15 -5 -7 0 1 1 5 -3
1532260744408183 17 -10 -30 37 12 -2 -2 6
1532260744430124 -61 -16 0 -24 -9 -11 -5 -8
1532260744475004 -14 3 7 22 1 -2 9 0
1532260744512903 -5 2 -49 -20 -19 -9 -5 -3
1532260744534844 3 1 7 -4 -4 1 -1 3
1532260744595682 -8 25 11 -3 1 -1 1 -7
1532260744640561 8 -11 -3 -7 -5 -1 3 -2
1532260744677463 -7 -2 -3 -8 -9 -5 -5 2
1532260744700402 1 0 0 -5 1 0 16 -5
1532260744745282 -3 -3 -7 0 1 -1 -4 -3
1532260744835042 9 -2 -3 14 12 6 19 2
1532260744910841 -14 -51 -57 -14 -7 42 13 7
1532260744932780 -10 1 27 -2 -7 -8 -24 -5
1532260744970694 -2 34 40 10 4 -11 22 -31
1532260744985639 11 -4 5 -6 -7 -17 -2 18
1532260745067420 10 -16 33 -1 1 4 -22 3
1532260745165158 23 -3 19 -7 -3 -2 5 6
1532260745232978 -5 -6 -5 20 16 -7 -42 -9
1532260745262897 5 -21 36 21 18 3 -4 7
1532260745338700 0 5 2 25 -4 -8 1 -1
1532260745352657 5 -16 -17 23 28 8 4 2
1532260745405516 19 -8 -29 -13 -9 -5 -3 -5
1532260745428455 17 14 -74 -1 -6 -4 2 3
1532260745450396 21 1 46 -11 -9 -12 0 -7
1532260745474332 -15 8 6 1 -1 -1 -9 -1
1532260745518214 -4 -2 -8 5 1 1 0 4
1532260745563094 -5 -2 -18 1 -1 -2 0 -4
1532260745607975 11 -9 -7 -3 -2 -2 -3 10
1532260745690753 1 -15 -26 -1 -5 -3 -10 -1
1532260745720673 3 14 -5 13 4 3 -4 0
1532260745908172 2 2 -17 7 3 -10 -8 6
1532260745945073 -21 -30 -67 0 -2 -8 -2 2
1532260745968012 -5 -7 -42 2 -2 31 5 -12
1532260745989953 17 45 127 11 -3 -2 -3 26
1532260746004930 0 -14 30 0 -2 45 -5 -8
1532260746043810 -5 -23 -42 -40 -13 -59 -3 -6
1532260746087691 15 57 93 2 6 94 16 0
1532260746110630 -9 4 -21 -1 -6 -13 -2 9
1532260746140550 17 27 63 14 8 -66 33 17
1532260746170471 10 38 7 13 3 -11 -5 -1
1532260746372929 5 -18 24 -4 -4 -7 2 -5
1532260746539484 0 52 19 -1 -1 -1 2 0
1532260746620268 -4 -25 -12 0 -1 -4 -4 5
1532260746665148 -6 23 -9 -2 -3 -2 -1 9
1532260746688089 13 32 -1 -5 -3 -1 1 37
1532260746784827 -2 -6 -27 3 2 22 -30 -25
1532260746822727 -5 -23 0 1 -1 9 -5 -7
1532260746860625 -11 8 -10 -6 -7 -15 -5 -24
1532260746897526 -13 13 -40 2 4 -4 2 -11
1532260747063083 0 3 9 -5 -3 4 -1 -8
1532260747220662 -3 8 36 -2 -7 2 5 2
1532260747317403 9 -15 -23 -26 -8 -1 0 -2
1532260747416139 -6 9 1 -1 0 -1 -1 0
1532260747445062 -3 -5 2 -1 -1 0 -4 -6
1532260747482961 4 -1 -27 0 1 1 -1 1
1532260747550780 -5 1 13 0 1 -1 -1 1
1532260747632561 0 3 -27 8 -5 -2 -2 1
1532260747677441 -2 0 9 10 -1 -1 -2 -1
1532260747715341 3 1 -10 -2 2 1 -1 -1
1532260747753238 -7 5 2 4 -3 -1 1 -4
1532260747805100 -1 8 24 -13 -2 -2 1 0
1532260747977637 1 -12 -60 -15 -5 -1 1 1
1532260747994593 1 -6 -39 3 -3 -2 -1 0
1532260748052438 11 2 33 9 3 -16 5 -11

1532260748150180 -1 -1 37 5 0 -43 -68 21
1532260748195056 10 30 -76 10 0 0 -8 7
1532260748315734 -5 -2 47 1 2 1 -3 0
1532260748427434 -2 -3 -30 9 2 -2 -3 2
1532260748442395 -1 -2 -21 -10 -1 1 -1 -2
1532260748495271 -2 -4 -13 1 0 0 1 -2
1532260748564070 0 4 -1 13 4 3 -2 -1
1532260748592993 -1 -1 2 -3 1 0 0 0
1532260748629894 -1 -11 -15 -1 -3 -2 0 0
1532260748750570 -4 3 49 9 -1 -2 1 0
1532260748810411 1 6 -3 -2 0 -3 -12 -80
1532260748840331 17 2 -1 -2 5 -3 17 26
1532260748885212 1 14 20 -3 -3 18 39 7
1532260748923109 -20 16 36 0 -2 -47 0 18
1532260748982950 5 6 -57 18 3 4 4 1
1532260749035808 10 -2 -4 14 4 -3 -4 5
1532260749072710 -6 -15 1 15 4 0 0 2
1532260749102630 -2 -5 -17 -23 -12 -5 -2 0
1532260749140528 0 -9 -2 -3 0 2 1 0
1532260749170448 -1 1 -17 0 -3 -4 -3 -1
1532260749185408 0 0 2 18 6 2 1 2
1532260749215328 1 10 15 5 0 -4 -2 -2
1532260749238267 0 6 -2 -3 -2 0 -1 0
1532260749260208 0 3 6 1 1 1 0 1
1532260749402827 3 -2 -6 -7 -6 -4 -1 1
1532260749537467 1 -5 -2 -4 -1 -4 -2 -1
1532260749560405 1 0 -3 2 4 4 2 0
1532260749582347 -4 2 -2 -1 -1 -2 -1 1
1532260749635205 -4 -4 -7 0 3 -1 -8 -2
1532260749837664 -1 13 11 -3 -1 -4 -4 0
1532260749914458 -12 -6 6 -7 -3 -2 3 22
1532260749972304 8 -2 -12 -2 -1 -5 -16 23
1532260750114923 12 55 5 6 -1 2 8 2
1532260750159803 0 14 0 -7 -2 2 2 5
1532260750182741 -8 11 -23 1 -2 -11 -19 -24
1532260750205681 -52 -11 -50 -5 -6 -4 -1 -22
1532260750235600 -15 5 6 5 0 -8 5 -14
1532260750272502 14 6 21 1 4 6 41 50
1532260750325360 -15 -1 -7 7 0 -7 -15 -16
1532260750363259 -12 -1 10 -3 -3 -6 -8 -8
1532260750408138 35 -2 2 2 2 4 8 30
1532260750482939 7 0 8 21 6 3 2 -8
1532260750504897 32 0 -4 -15 -2 5 35 -7
1532260750527818 8 -1 -10 -12 -9 9 -1 11
1532260750602618 127 -1 24 2 0 0 1 41
1532260750640517 -19 -4 -7 -10 -17 -26 1 26
1532260750707338 -25 -5 -1 -6 -3 -47 -16 -21
1532260750724293 5 -3 -2 2 2 -20 2 5
1532260750753215 -2 -1 4 2 0 10 10 -3
1532260750775157 -46 0 1 -1 3 7 1 -3
1532260750790118 3 -2 4 1 3 24 8 6
1532260750805078 10 -1 -6 -4 -1 7 3 -1
1532260750828015 -8 0 8 -6 -4 -8 -2 -7
1532260750857935 3 -58 48 -8 -6 -4 -4 4
1532260750902816 -8 55 24 4 2 6 3 -1
1532260750934731 28 12 -105 -9 -2 27 8 8
1532260750977616 2 25 47 -13 -5 -3 2 3
1532260751000554 -3 -15 -24 2 2 2 7 1
1532260751037456 -7 -6 -21 6 -6 -13 -4 -13
1532260751060394 -7 7 -3 -8 -3 -11 16 -4
1532260751113253 0 -20 -18 -13 -4 32 12 -2
1532260751180075 -1 -5 -35 4 2 -8 -27 7
1532260751224955 26 -17 25 0 -1 -24 52 18
1532260751262853 37 -9 -5 5 10 4 -1 18
1532260751405472 7 3 12 -22 -16 5 36 11
1532260751495231 -14 6 -5 -6 3 -3 -6 -7
1532260751570031 -12 9 -4 -9 -2 -2 6 -18
1532260751592970 7 14 -21 -13 -9 -1 6 11
1532260751637850 -16 8 24 22 6 34 5 2
1532260751659792 -4 -3 44 23 16 -30 8 0
1532260751682730 2 3 -60 -44 -18 22 -1 -3
1532260751712650 1 -32 -42 8 4 5 -10 -2
1532260751735588 -4 -11 -12 3 -10 -22 0 -4
1532260751757530 16 2 -5 -6 -4 -6 -13 -1
1532260751789444 -1 11 33 -14 -5 -5 -4 0
1532260751817370 2 -11 -12 -3 -2 10 -2 2
1532260751847290 4 -11 -5 -14 -5 -3 -3 4
1532260751870229 15 -6 -6 4 0 -6 -4 -11
1532260751900149 -20 -11 -4 -3 -6 -4 19 -2
1532260751947024 9 -6 1 -10 0 7 -5 9
1532260752012847 -4 -2 -4 -2 6 9 2 -5
1532260752057728 -1 0 -16 -18 -14 -21 -3 -1
1532260752111599 2 7 12 2 27 2 6 2
1532260752134522 -3 1 26 6 9 3 14 0
1532260752155467 -14 6 13 4 2 10 20 -8
1532260752192367 -2 11 -3 8 5 4 -10 3
1532260752357924 40 14 7 -9 -4 -4 -27 9
1532260752402805 24 5 -3 -3 -7 -2 -4 -1
1532260752432724 20 -20 2 9 3 49 21 5
1532260752462645 -3 -18 1 -20 -10 -7 -7 -5
1532260752485583 -1 3 -34 9 11 1 1 -3
1532260752605264 13 6 -22 -10 -26 -13 5 6
1532260752620223 -14 -2 30 0 14 11 4 -10
1532260752635183 -3 -4 20 12 -9 -11 1 -4
1532260752695023 5 1 -8 -4 -1 2 -2 2
1532260752732922 10 -4 -8 -3 -1 -7 0 -1
1532260752784783 2 15 7 7 1 -1 0 -10
1532260752867575 14 -5 -12 -5 -1 0 1 4
1532260752942361 4 13 -26 -1 1 -9 -2 2
1532260752972282 -3 8 33 1 2 48 6 -2
1532260752989236 -8 -3 16 -5 -7 -12 -2 -1
1532260753010181 1 3 -20 5 5 -3 -2 -3
1532260753048079 -1 -5 -21 9 2 -15 -9 -2
1532260753099941 -1 -13 -51 -10 3 1 2 2
1532260753114900 4 4 5 -4 -1 20 -4 -4
1532260753152799 4 17 -6 14 0 -48 -8 -1
1532260753265497 2 23 -17 -8 -9 10 3 -12
1532260753288437 -3 -8 -40 -8 0 -2 1 -8
1532260753326335 -9 -3 53 5 1 -20 -10 -38
1532260753348277 12 29 -7 21 7 -9 -3 12
1532260753482916 6 43 -7 1 -4 -1 -8 11
1532260753512837 14 8 32 4 6 -1 7 24
1532260753550735 2 -2 38 0 -5 -27 -9 -9
1532260753589631 -15 -67 -10 -13 -8 -6 14 -10
1532260753610589 7 -5 -34 -4 -1 -19 -3 5
1532260753632516 2 3 -4 -2 -3 -9 -1 9
1532260753805056 10 76 9 2 2 2 0 -2
1532260753834975 -21 1 -10 -5 -1 -1 1 -21
1532260753932714 9 45 0 4 3 0 -2 -11
1532260753962634 -2 -26 2 -2 -3 7 -3 15
1532260754091289 5 55 42 1 5 -6 1 5
1532260754188041 7 -19 16 1 0 1 0 4
1532260754255858 -2 38 20 4 0 1 0 -7
1532260754345609 -2 -18 2 8 5 0 -1 -1
1532260754375529 -20 49 4 -1 -3 -4 -2 -14
1532260754412432 19 24 24 6 0 2 -1 11
1532260754442351 -2 -26 -65 -34 -13 -1 1 3
1532260754482248 -26 -12 -1 -14 -6 -1 -1 -23
1532260754548068 5 -1 10 -11 -6 -2 -1 1
1532260754614889 13 -6 10 -10 -6 -2 0 0
1532260754652788 12 -1 2 27 11 2 0 4
1532260754697667 2 -3 -4 -2 -3 0 -2 0
1532260754742548 2 6 18 10 0 -1 -3 0
1532260754900126 2 0 10 -12 2 1 2 1
1532260754930047 4 16 -13 3 -2 -1 -1 0
1532260755019807 19 -45 -28 -6 -6 -15 -22 -53

1532260755087625 -15 -15 -74 -6 -2 3 2 5
1532260755224260 0 5 3 -6 0 -1 -1 5
1532260755253182 2 1 0 23 3 0 2 2
1532260755290084 1 -2 -35 -14 -4 1 1 3
1532260755327983 -3 14 62 14 -4 -2 -1 -2
1532260755357902 -1 1 -6 -11 -2 -2 0 3
1532260755379844 -3 -3 -11 3 3 0 0 -6
1532260755455650 -2 -1 -12 12 2 -1 0 -2
1532260755479577 0 12 22 10 2 0 0 -1
1532260755507502 -1 0 -6 -2 1 1 -2 1
1532260755530441 0 -14 -31 -2 1 -1 1 0
1532260755545401 -1 11 -13 6 1 -1 -1 -2
1532260755590281 -1 -1 7 -8 -7 -2 -2 3
1532260755620201 0 7 -40 2 1 1 3 1
1532260755643159 10 0 -23 1 -1 0 1 8
1532260755717959 12 31 22 5 3 44 -16 -28
1532260755739901 -19 5 -24 0 1 -7 10 -37
1532260755762849 5 -4 0 5 3 4 -1 11
1532260755800738 -7 -11 -65 -4 -3 -11 -12 -16
1532260755830657 -6 -42 45 36 15 4 2 -4
1532260755852599 -5 -2 -3 -13 -10 -4 -5 0
1532260755897479 3 3 3 3 -1 -2 -3 -3
1532260755920417 4 6 8 0 0 -2 4 3
1532260755957319 -3 3 -1 56 21 6 0 -1
1532260756040098 0 1 -3 -15 -12 -4 -3 -3
1532260756070017 -3 -4 -2 -6 -2 -3 -1 -2
1532260756107916 -2 -9 -9 -3 6 5 2 2
1532260756122876 -2 -4 -14 -13 -7 -2 -2 -2
1532260756144818 -3 0 1 -8 -7 1 1 1
1532260756206653 -1 -4 -3 -1 -4 -4 -1 -2
1532260756235574 0 2 -1 0 -3 -2 -3 1
1532260756250535 -4 -3 1 1 -2 -1 -1 -4
1532260756287436 8 2 -5 -3 -3 0 0 -1
1532260756302396 0 -4 -7 1 2 -1 -2 1
1532260756340294 0 2 1 6 1 -2 -1 0
1532260756363233 -1 -4 -11 -3 -1 1 0 -2
1532260756408113 -6 -10 -6 -7 -2 -1 -4 -4
1532260756542753 5 -9 -15 33 1 1 3 3
1532260756565692 3 10 3 -22 -8 -8 7 7
1532260756595613 -7 -11 -15 1 2 5 7 -5
1532260756662450 -4 4 0 -10 -1 1 2 -16
1532260756685372 -2 -18 -18 3 2 11 5 -17
1532260756730252 -17 51 0 5 2 -3 -7 -7
1532260756790092 -24 -88 5 -17 -10 -9 -1 -15
1532260756828988 4 47 -5 9 2 -3 -14 5
1532260756873875 5 86 30 3 -1 6 18 2
1532260756909772 -2 -55 -23 -13 -2 -12 -28 -23
1532260756932711 -10 -76 -13 2 4 7 -18 -4
1532260756962631 -4 -128 -13 -2 -4 -7 3 -2
1532260757000529 -7 127 -17 -12 -4 5 7 -3
1532260757030450 -19 -52 15 17 6 17 23 13
1532260757114225 -56 3 -8 -9 -3 -4 -7 -21
1532260757129186 32 3 2 1 7 -7 -12 -17
1532260757143147 -17 0 5 -2 -4 3 3 -4
1532260757173068 -10 -1 0 11 2 8 19 -17
1532260757217948 24 -5 1 -6 0 0 6 20
1532260757285767 -14 -2 0 -3 -2 3 8 -12
1532260757345607 -2 -3 7 3 2 -4 -24 -16
1532260757360567 -5 -3 -13 -7 -5 -4 -4 8
1532260757390487 4 -3 -8 3 6 -5 -35 -1
1532260757427388 14 40 13 9 1 1 -2 5
1532260757452321 11 -32 -1 0 -1 -3 -43 0
1532260757473266 -5 -16 18 11 3 2 9 -5
1532260757541083 -4 -6 -5 -4 -2 3 26 -2
1532260757577985 5 -13 10 -3 -4 -2 0 3
1532260757622865 4 -21 17 -4 -5 0 2 1
1532260757638834 0 -3 -71 -8 -1 -2 0 -1
1532260757675724 0 -8 -8 -19 -12 13 -19 -2
1532260757712624 -4 -9 -61 -9 0 13 -1 -1
1532260757765484 -1 10 6 -8 -4 -2 -14 0
1532260757840284 -6 -5 -35 7 3 4 0 0
1532260757863222 -15 -6 -10 -6 -5 -6 -3 -1
1532260757878182 9 -3 94 7 2 0 2 -3
1532260757945004 27 -3 1 -1 0 -9 -4 27
1532260757976918 39 3 44 22 13 5 3 15
1532260758004848 6 -10 -7 1 1 3 0 -16
1532260758027782 7 22 88 21 5 1 -6 8
1532260758132502 -16 -11 7 1 0 -1 -7 -2
1532260758192342 -29 -5 0 -1 -1 -2 1 0
1532260758217276 -5 -1 -1 -4 -4 0 -2 15
1532260758253180 13 2 10 -3 0 1 3 17
1532260758364880 5 -5 11 -5 -2 -19 -3 5
1532260758440678 -23 -3 25 -21 -9 -6 -5 -3
1532260758494535 -16 4 2 2 -2 -2 5 -3
1532260758517473 22 10 -37 -21 -4 -2 -11 -9
1532260758553377 -3 7 -1 1 -4 0 -4 -1
1532260758605238 2 3 -1 -4 0 -1 -3 3
1532260758688036 -14 -1 4 1 2 0 3 -1
1532260758739878 3 5 -1 2 0 2 3 -2
1532260758771794 -7 2 -33 2 3 6 3 -3
1532260758807698 -6 -1 14 -25 -20 -5 1 1
1532260758830636 -12 0 -2 -26 -13 -5 -2 -2
1532260758875515 4 1 -8 6 2 -1 2 -1
1532260758920395 -6 -1 -18 -1 9 10 1 5
1532260758988214 2 13 10 9 8 1 -3 0
1532260759026113 3 1 7 1 3 -3 -2 -6
1532260759069995 17 -1 -1 -10 -5 0 -1 7
1532260759093934 2 5 -5 -4 -1 -2 -2 -2
1532260759175713 -10 -9 -5 2 4 2 -1 -8
1532260759250513 -11 -5 -4 -6 -2 -4 -1 3
1532260759287413 13 1 1 3 -5 -3 1 4
1532260759349249 5 -17 5 -3 -9 -3 -2 -3
1532260759372199 -4 -1 0 4 2 -5 -4 -7
1532260759394129 -9 -5 -2 -11 -11 -5 -3 -3
1532260759504852 17 55 5 0 0 -5 -1 2
1532260759565670 -22 -1 21 1 6 5 0 -13
1532260759603572 1 -6 0 2 0 1 -1 -2
1532260759633501 8 1 -4 1 -3 -2 -2 3
1532260759662411 4 -5 -1 -4 -4 -1 2 -1
1532260759775110 1 9 8 -5 2 1 -1 4
1532260759834950 -4 -12 13 2 -1 -6 -5 5
1532260759918725 -6 -8 -30 11 1 11 2 8
1532260759947648 0 13 9 -1 0 24 0 -3
1532260760090267 5 44 21 3 -3 10 -1 -2
1532260760180027 -18 -30 -75 -23 -4 -11 3 4
1532260760203963 10 25 36 5 8 26 2 2
1532260760262806 -11 -36 13 -25 -4 -40 -9 0
1532260760345584 -6 23 -57 -6 -7 -7 -3 -38
1532260760375505 -7 -71 -39 -3 -11 -11 -8 -39
1532260760481221 7 43 6 14 14 -3 1 1
1532260760503163 3 -38 -45 -7 -3 -1 -1 2
1532260760563002 5 29 1 -2 -2 -3 4 9
1532260760675701 -14 -30 3 1 0 -2 0 -13
1532260760758480 11 -7 -17 -5 -3 -11 0 14
1532260760893119 -18 -35 -27 0 0 5 -2 -18
1532260761080618 8 -32 -24 1 -3 4 7 -8
1532260761147440 0 -14 -19 2 -1 -15 -8 -21
1532260761260139 -9 -8 -2 -7 -5 -4 -7 -6
1532260761312997 -14 4 -40 31 4 3 5 8
1532260761380828 2 47 27 -4 3 -3 -1 -12
1532260761470576 -4 12 34 -4 -2 -6 -1 -3
1532260761568329 3 -10 -43 1 -1 -2 -1 9
1532260761590256 0 -11 -8 9 1 3 -3 2
1532260761650096 15 -5 -16 -3 -5 1 1 -3
1532260761694976 -14 11 17 7 8 3 0 0
1532260761719910 3 4 24 -2 3 -2 0 2
1532260761739856 -9 -13 -35 -11 -5 1 -3 -2
1532260761769776 5 -8 -28 -7 -1 -3 -2 1
1532260761807675 -2 19 31 1 -1 -1 1 -2
1532260761867515 -6 -22 2 -1 1 2 0 0
1532260761920373 5 18 -9 -4 0 -1 -2 -2
1532260761958276 -11 -5 2 12 0 8 3 -3
1532260762084933 2 21 62 3 0 4 7 9
1532260762130810 4 9 -33 -10 -3 -31 10 16
1532260762153749 0 5 23 -8 0 7 -8 -12
1532260762175690 -11 -49 0 -6 -6 17 -1 1

1532260762205850 -6 -39 -63 4 5 20 -2 0
1532260762219813 -2 -18 -21 -1 3 10 -4 6
1532260762295610 3 25 10 -2 -4 -1 -6 -2
1532260762424266 2 0 2 1 1 0 1 12
1532260762438243 0 -1 -35 -13 -7 -2 -3 -2
1532260762505049 2 -1 -4 -14 -7 -2 -1 -2
1532260762557908 1 2 14 -5 -4 -1 0 9
1532260762595807 -3 -4 -22 -3 -2 -3 -2 -3
1532260763195205 -2 -7 -18 -26 -3 0 1 -2
1532260763225124 -1 -4 -10 -11 0 1 1 -1
1532260763255044 4 7 10 1 -8 -3 0 0
1532260763277982 -3 -3 3 -4 2 3 0 -1
1532260763299925 6 -3 -11 0 0 0 0 1
1532260763360762 -10 0 9 36 6 6 0 -2
1532260763390681 -2 -10 -5 -12 -5 -3 -1 0
1532260763435562 -5 -10 -3 -5 0 0 -1 -6
1532260763476452 -1 6 9 1 1 -1 6 0
1532260763593140 0 3 -5 -4 -1 -1 3 2
1532260763623060 1 -2 -4 -6 -2 1 0 -2
1532260763659961 -3 -3 -4 -7 -3 -3 -3 -5
1532260763712820 1 -7 4 1 -3 -5 -5 -5
1532260763735759 -21 -3 -1 1 -2 1 3 -22
1532260763750718 -3 2 2 -1 0 -3 3 34
1532260763787620 -2 13 32 6 1 -2 -12 -22
1532260763810559 61 -31 4 5 1 0 5 12
1532260763847459 10 -105 -18 -7 -2 4 12 -11
1532260763879375 -17 39 9 2 0 -2 -7 1
1532260763938235 24 -16 -6 -6 -2 -3 1 25
1532260763968137 -44 -105 5 6 4 0 0 -8
1532260764034959 27 -9 13 -2 -2 -7 0 20
1532260764049919 22 -21 8 -2 1 3 16 8
1532260764065876 48 -35 -20 -6 -2 -3 -2 2
1532260764110756 7 -5 14 4 1 -3 4 15
1532260764147657 -16 0 25 1 -3 -3 -3 -20
1532260764237417 -37 1 -53 -16 -8 1 10 -29
1532260764290292 24 -1 5 2 -1 -2 0 0
1532260764328175 -86 3 -1 -1 -2 2 -1 -41
1532260764350116 -10 -1 10 0 -1 1 8 27
1532260764366073 21 1 -6 1 1 -1 -9 -19
1532260764402974 -23 -1 -14 -4 -6 -6 -12 -29
1532260764432895 -35 -1 4 1 -2 2 -11 -31
1532260764471808 16 1 -10 3 0 -12 -18 -15
1532260764492735 35 2 8 2 1 0 -5 33
1532260764515685 12 -2 -5 -5 -3 -1 1 5
1532260764537615 -1 -2 6 5 6 1 -2 -20
1532260764560553 -1 -1 -15 -5 -3 2 19 23
1532260764597454 -10 -5 -5 -6 -7 -7 -3 -7
1532260764627375 6 22 -7 -4 -3 1 -3 9
1532260764642335 29 19 20 -1 -3 3 7 52
1532260764673252 -13 -25 0 1 1 0 -3 -17
1532260764719158 -10 7 8 0 2 3 1 1
1532260764748081 3 -24 10 2 -1 -2 0 0
1532260764859782 -1 -3 -109 -24 -4 -8 1 2
1532260764899676 -2 -9 -59 18 2 21 -7 1
1532260764912640 0 -2 -104 -12 -7 4 -9 -1
1532260764957520 -9 10 3 12 3 -5 -4 -4
1532260764974476 -1 1 -21 0 2 8 5 -1
1532260764995420 -10 -8 -10 -7 -7 -27 -6 -2
1532260765017360 1 -20 -76 -13 -1 16 -2 -2
1532260765078198 11 8 -22 13 5 7 11 7
1532260765123078 -9 -5 33 -7 -12 -13 4 4
1532260765167958 5 12 7 -6 -8 -10 -1 10
1532260765189900 40 2 -51 -2 0 8 1 12
1532260765219819 2 2 -12 4 4 5 -4 -9
1532260765242758 38 15 6 -4 -4 0 22 21
1532260765280657 -25 -5 5 15 2 -1 -9 -15
1532260765302598 3 8 4 -6 8 6 3 -4
1532260765362438 1 -10 40 -8 -4 2 -2 -5
1532260765385377 10 10 0 -8 -5 2 0 4
1532260765409313 -1 0 -9 0 1 -4 1 12
1532260765432252 3 2 -5 -3 -8 -6 -5 5
1532260765455190 0 -1 -1 -1 0 3 7 29
1532260765476134 -1 -11 0 0 0 1 -3 43
1532260765513035 -33 -12 -1 2 2 -2 0 -9
1532260765534977 5 0 3 3 0 3 2 -4
1532260765625734 0 1 -22 -6 -6 -9 -3 6
1532260765677595 -4 -8 13 -2 6 0 -4 -2
1532260765692556 -5 -12 5 -1 -9 -7 6 8
1532260765715494 4 -31 -19 -3 -6 0 3 -8
1532260765731451 0 6 17 1 0 0 -2 -8
1532260765754390 -12 1 -1 -5 -5 -3 -4 -6
1532260765775334 23 -1 4 -3 -4 -1 1 1
1532260765798273 2 -1 0 9 6 0 -4 0
1532260765835173 1 -4 3 -4 -5 0 1 3
1532260765850134 -15 -1 -8 -8 -3 0 -2 -2
1532260766045611 11 1 6 -11 8 9 0 0
1532260766067553 -1 0 -2 -6 -16 31 6 -2
1532260766090490 5 -1 1 35 16 -12 -4 -1
1532260766112433 -3 -3 -27 -28 -3 -9 0 -2
1532260766157314 1 -8 -11 -34 -19 -13 -5 5
1532260766189239 -4 1 3 -8 -11 -14 -13 1
1532260766248070 4 -22 -5 -6 -2 -2 3 9
1532260766301926 -11 0 7 1 1 4 6 -7
1532260766329851 22 -7 -4 -2 -5 -2 1 6
1532260766397670 14 -6 -1 -2 2 -2 3 -1
1532260766442550 -3 -4 -3 -2 -2 -3 -9 6
1532260766512363 -14 -6 1 3 -4 -3 1 -2
1532260766540288 -8 -7 -5 -3 -3 -1 -7 1
1532260766585168 3 -5 -12 -20 -6 0 -1 0
1532260766652987 9 4 -4 -28 -3 -3 0 2
1532260766735766 4 0 -9 0 4 1 2 0
1532260766802587 0 12 26 9 -2 -3 2 -2
1532260766834502 -2 -2 -6 19 0 -1 -1 -2
1532260766855446 2 -10 -17 -44 -18 -2 -1 -1
1532260766945206 1 -20 -28 -2 -1 6 0 -4
1532260766983104 8 8 -15 12 3 1 -5 3
1532260767140683 -1 -11 9 -7 -4 -78 -7 1
1532260767207504 -5 -21 -5 -20 -5 -80 -8 -2
1532260767275331 -9 -20 -7 -13 -6 8 -8 -9
1532260767380043 0 2 -4 6 10 21 2 0
1532260767426918 -8 3 14 -1 6 105 2 -5
1532260767455847 -3 2 7 0 -1 -102 -23 -2
1532260767515694 13 3 35 -1 1 -5 6 7
1532260767597461 2 -5 3 -1 -7 -4 0 2
1532260767650321 -7 0 -3 0 -2 6 0 19
1532260767695200 0 49 -4 -4 -3 -1 -2 7
1532260767792939 3 4 -19 0 2 -1 -2 4
1532260767829840 7 -67 5 71 27 5 0 -8
1532260767987419 2 19 9 2 0 -2 -1 -14
1532260768040277 1 7 -43 38 10 2 -2 -5
1532260768144997 11 15 40 -4 0 -2 -7 -20
1532260768244731 -3 -8 -11 -2 -3 -3 -4 -3
1532260768287616 0 43 -10 -37 -21 -5 -3 -4
1532260768317536 6 32 -22 -26 -9 -3 -2 1
1532260768385354 -9 -6 -19 21 3 -1 -1 -16
1532260768521990 -6 -5 -9 -2 -2 3 1 -7
1532260768549915 -1 -8 -4 0 -3 1 1 1
1532260768572854 -1 4 -10 -5 -2 -1 2 -1
1532260768632693 -7 12 2 3 3 0 1 -2
1532260768745392 3 4 18 -4 -3 -1 0 1
1532260768798250 -15 -2 10 6 2 1 0 -1
1532260768888010 -1 -21 5 2 2 0 -2 -2
1532260769076507 6 -6 -29 0 4 4 -1 -8
1532260769097450 7 20 25 3 0 -4 -8 49
1532260769120389 -13 8 3 3 2 24 19 -81
1532260769165269 5 -12 -51 -5 -4 0 -10 59

1532260769233087 4 9 7 -16 -7 -18 2 7
1532260769354761 -3 -19 -21 19 3 4 -2 0
1532260769376703 -2 0 -7 -11 -1 1 -3 -6
1532260769420586 -2 5 9 -6 -3 -2 -2 -1
1532260769487407 -2 0 -5 -7 -2 -2 -2 -3
1532260769540267 1 17 3 -10 -3 2 3 0
1532260769632021 2 11 11 3 1 -1 -2 4
1532260769682884 9 0 -42 3 -2 -2 -4 22
1532260769727765 20 -1 -18 -1 -3 15 21 37
1532260769787621 14 11 -5 -3 0 -6 -16 -26
1532260769879376 -17 -1 -15 7 -5 -3 0 2
1532260769924255 -1 1 11 -5 1 2 0 -1
1532260769938219 -1 -5 -13 -18 -1 1 -1 -3
1532260769983098 3 5 4 4 6 1 -1 1
1532260770034958 -7 -4 16 54 23 3 3 3
1532260770064879 9 6 -7 -10 -10 -5 -2 -1
1532260770117738 0 -2 -1 6 -18 -6 -2 1
1532260770155637 3 13 0 0 1 -7 -1 2
1532260770186554 1 16 2 -4 -12 -1 -1 -1
1532260770200516 4 25 8 -3 -5 -6 -2 0
1532260770230436 1 5 2 1 2 1 -1 -2
1532260770517668 -2 -3 -12 -18 3 1 -1 -2
1532260770718131 5 -3 -6 -5 -4 4 -1 -5
1532260770740074 -12 -6 6 3 1 1 -2 -4
1532260770763012 -2 -5 -3 2 0 2 -2 -2
1532260770784953 12 7 4 2 -6 -3 0 4
1532260770807892 -9 -2 -6 1 -1 -1 -3 -2
1532260770830856 2 7 13 1 -2 -1 -1 -1
1532260770942532 13 -25 -4 -12 -5 1 0 1
1532260770995391 4 35 -1 3 -2 1 4 4
1532260771026308 30 81 8 -1 1 -1 8 21
1532260771070191 -27 -128 -22 -7 -5 -3 -7 0
1532260771115071 1 -4 -7 -3 -4 -1 -1 -21
1532260771174911 38 -16 2 -3 -3 -1 12 25
1532260771219791 -18 -77 8 9 9 0 0 14
1532260771235748 -6 22 -11 1 0 -1 -16 0
1532260771280628 -6 -33 1 -19 -7 -3 8 11
1532260771295588 48 -4 -6 3 3 -1 4 10
1532260771326506 17 0 -23 -9 -1 -1 8 -6
1532260771362409 -15 6 -8 -1 2 0 1 -9
1532260771460148 -18 -4 -9 -3 -4 -13 -20 -12
1532260771483087 36 -2 -10 -9 -8 -7 -13 -1
1532260771542927 -21 0 -2 -1 0 -4 -14 -20
1532260771572847 -67 0 9 7 3 3 4 -11
1532260771602769 -15 0 -9 -5 -1 -10 -7 -41
1532260771647646 13 0 -5 -12 -8 1 -4 -3
1532260771715465 -13 -3 -1 3 -1 -14 -8 -14
1532260771737406 -94 -2 -12 -9 -6 5 -61 -38
1532260771798253 -12 -2 3 4 3 -3 -13 7
1532260771820185 30 2 0 -3 3 6 28 11
1532260771843124 -22 1 -2 -10 0 1 -10 -15
1532260771858084 -28 -6 -5 -1 0 0 10 -16
1532260771894985 10 0 -11 -3 2 -1 4 4
1532260771924905 0 0 8 -4 -4 -3 6 5
1532260771985742 7 5 -2 3 4 -3 0 6
1532260772007684 -1 11 -18 3 4 -3 0 -3
1532260772045583 3 5 57 5 0 0 1 -2
1532260772097443 -3 -26 -85 -7 3 -7 2 0
1532260772127364 4 -1 -46 12 -4 6 1 3
1532260772150302 1 0 26 0 -2 -12 -1 1
1532260772196179 -5 -4 23 3 3 32 15 0
1532260772352761 -47 -3 1 3 2 5 8 -10
1532260772382681 -49 -8 11 5 1 -5 -3 -9
1532260772405620 34 -7 4 1 1 -16 -3 4
1532260772442521 -13 11 -41 -19 -11 -6 3 14
1532260772457481 -19 5 86 6 3 2 -8 -10
1532260772563198 -5 -13 10 2 3 4 1 -4
1532260772600100 0 -3 -10 2 1 8 12 6
1532260772623038 6 -7 -9 -5 -3 -4 -4 -4
1532260772647972 -1 70 20 4 1 0 0 1
1532260772697838 -8 6 -8 -9 -3 0 -1 -5
1532260772727758 -5 30 -8 3 4 1 -9 -12
1532260772772638 -4 -10 11 3 5 -2 -2 -6
1532260772923235 25 26 13 -9 -4 20 10 -4
1532260772990057 19 -33 -13 -8 -7 -10 -3 15
1532260773034938 -3 11 2 -2 -1 -3 -4 -2
1532260773185534 -29 2 8 3 16 7 -3 -3
1532260773215454 0 6 1 -1 -23 -3 1 -3
1532260773245374 -5 -13 -29 28 3 3 1 0
1532260773305215 -26 6 2 -1 10 1 0 -14
1532260773320174 11 6 -10 6 -5 -3 0 7
1532260773402953 16 -9 -11 -15 -10 -5 -4 -23
1532260773492713 -12 -11 0 6 2 0 0 0
1532260773537593 12 37 -5 -6 0 0 -1 -1
1532260773567513 -5 1 1 5 4 1 -2 -1
1532260773658270 -38 -9 -5 -15 -6 -3 -5 -9
1532260773799891 9 6 -85 13 9 13 3 5
1532260774034265 3 1 2 2 -1 -2 -3 1
1532260774115048 -3 -20 -24 -13 -7 -20 -4 -8
1532260774257667 -6 12 9 6 1 -12 -2 0
1532260774393304 4 36 -14 -1 -6 -34 -1 2
1532260774468104 7 14 14 2 -1 20 -9 11
1532260774527944 0 18 -25 -11 -5 -7 4 -57
1532260774572824 14 24 0 -3 1 -7 11 41
1532260774602744 10 17 6 -3 3 -5 0 28
1532260774700483 8 37 -51 -9 -2 -3 -2 12
1532260774767308 -5 -41 11 7 1 2 5 30
1532260774807201 -3 11 -11 -1 -2 -2 -5 -17
1532260774835126 13 21 -3 4 3 0 1 18
1532260774947834 13 -102 -10 -5 5 67 104 24
1532260774985725 -10 -40 -5 -8 -3 -15 -22 -5
1532260775030605 -19 -27 -31 10 0 -7 -18 40
1532260775182198 -2 -20 -26 39 15 3 1 -14
1532260775233062 -25 49 -15 -28 -8 -7 -17 -11
1532260775299884 -29 -8 -7 23 12 11 24 0
1532260775459457 2 -12 -4 0 0 1 4 7
1532260775487383 3 13 -5 4 2 -1 -4 8
1532260775533259 2 0 -4 19 7 0 5 2
1532260775578139 1 3 -15 -10 0 -1 1 0
1532260775690838 6 18 0 -5 -5 -1 1 0
1532260775742700 6 -15 8 -21 -2 -2 -3 -1
1532260775802539 -8 -25 -14 -11 -3 -2 -3 -4
1532260775855399 4 4 48 17 1 0 -1 2
1532260775945158 -4 -2 -27 -6 -2 33 -13 -9

1532260776014972 4 -16 -4 2 1 -12 -10 4
1532260776049906 -5 9 23 -1 -2 -3 -3 -11
1532260776080824 -9 -26 1 0 -3 -8 -4 1
1532260776162605 9 22 12 1 1 0 1 10
1532260776328162 1 -48 49 9 7 2 0 -5
1532260776365064 1 -4 -11 4 2 2 3 3
1532260776388002 -2 22 21 1 1 3 -4 6
1532260776432883 0 1 35 1 1 3 1 1
1532260776462802 0 0 -8 2 9 10 3 5
1532260776530621 4 4 18 -5 -1 1 -1 0
1532260776560541 2 1 -27 -2 3 0 2 4
1532260776575501 -3 -9 35 13 2 -1 -4 -1
1532260776643320 -2 58 3 25 3 0 -1 0
1532260776665260 -2 -8 18 7 1 -2 -1 -4
1532260776742056 -6 -2 -20 13 3 2 -2 -4
1532260776777960 -6 -17 -38 -3 4 3 3 -4
1532260776814861 -11 1 23 -1 -6 -6 -3 -1
1532260776831816 23 30 35 5 -1 -2 5 5
1532260776845780 -3 -44 -28 8 3 0 0 0
1532260776920590 4 -9 38 4 4 -8 -3 0
1532260776987399 -2 19 -65 -5 -3 0 -3 -4
1532260777100098 3 -7 -4 2 -1 9 3 3
1532260777161932 5 -15 -46 -10 -1 4 -3 2
1532260777212797 0 9 -19 2 -2 1 -1 0
1532260777257677 -3 -11 23 -5 -2 -3 -1 -5
1532260777302557 -12 -6 10 -3 1 0 -1 -5
1532260777347437 -5 10 27 -6 -2 0 -1 3
1532260777385335 2 4 51 6 2 3 0 -2
1532260777453154 -11 -8 -40 -3 -2 1 0 1
1532260777505015 8 -5 14 -3 -4 1 -2 0
1532260777565354 4 4 6 -4 -1 -1 2 0
1532260777603253 3 2 1 1 0 0 -1 3
1532260777663093 9 6 35 9 2 7 2 -3
1532260777694011 -8 -3 27 -8 -1 1 -1 -1
1532260777827653 -1 -4 16 -6 -5 -1 -4 1
1532260777963290 1 -7 -5 0 1 9 6 38
1532260777985232 -3 -14 4 -2 -3 -6 -2 -6
1532260778053050 -3 17 47 1 1 -1 0 -11
1532260778084009 0 -4 19 1 -1 1 2 -4
1532260778142851 -3 -6 33 3 1 21 2 3
1532260778165803 6 -39 -6 -13 5 -2 -1 -3
1532260778202691 -3 6 3 -14 -5 -12 -2 -1
1532260778240590 2 13 -1 -4 -2 2 0 -4
1532260778271507 1 1 4 -12 -1 1 3 1
1532260778285822 -3 0 -8 1 1 1 1 0
1532260778300801 0 -4 -6 4 -1 4 0 0
1532260778322725 2 5 4 -1 -1 0 -1 -2
1532260778337685 -6 2 0 6 2 1 -3 0
1532260778367605 3 3 16 4 -1 -1 -2 0
1532260778390544 2 -14 15 8 0 -2 -2 -1
1532260778435423 0 8 -10 -6 -3 -2 1 -2
1532260778512218 -5 14 -7 0 1 1 0 -1
1532260778534160 -2 1 -17 -12 -6 0 1 0
1532260778570064 -5 -24 17 -9 -5 -1 -3 -3
1532260778644864 -1 10 -6 -5 -1 1 -2 0
1532260778855301 -8 3 -43 -3 -3 2 -15 11
1532260779050778 6 22 -12 21 3 1 2 1
1532260779080698 -3 -39 5 -2 -2 0 -2 1
1532260779095665 -1 11 16 -10 -6 -3 0 -2
1532260779110618 -3 12 1 5 5 3 1 1
1532260779170458 -2 -24 -17 -9 -6 -1 -1 0
1532260779192400 -1 1 -3 -6 -3 -3 1 -3
1532260779223332 -1 10 -2 -1 4 3 1 -1
1532260779268197 0 0 -5 5 0 -3 0 2
1532260779290138 1 4 8 -9 -3 -1 1 0
1532260779342996 -1 3 -1 -5 -4 -1 -2 -1
1532260779395238 11 0 3 1 4 -3 -1 1
1532260779418177 0 8 -6 -6 -2 1 0 -1
1532260779463057 -1 -4 -2 0 3 1 -1 1
1532260779529878 -2 -5 -4 -2 -2 -3 -1 -1
1532260779544838 -5 -1 0 -10 -6 -1 -1 -1
1532260779583734 -2 6 14 -2 -3 -1 0 0
1532260779642577 -5 27 12 13 5 2 1 -5
1532260779672513 2 -5 -39 -1 -1 0 1 0
1532260779695435 3 1 -41 -2 0 -2 -3 -3
1532260779747710 -4 -17 39 4 1 2 -2 1
1532260779777630 6 39 37 10 1 -1 1 1
1532260779837470 3 -7 -60 3 5 5 -1 3
1532260779861416 2 -4 9 -1 -3 6 6 8
1532260779890343 -10 1 6 -2 -1 -1 2 0
1532260779920250 -2 3 38 7 2 -3 -2 -2
1532260779995049 -3 -5 -10 -11 -3 1 -2 -1
1532260780032948 -5 -2 -3 2 -3 -4 -2 -1
1532260780107754 1 7 6 -2 -1 1 -3 -3
1532260780137668 -6 -5 -1 -3 1 3 1 -1
1532260780205487 12 12 -16 -2 0 0 5 4
1532260780250366 -4 -2 -5 -1 -2 -2 -5 -7
1532260780272307 3 20 22 -1 -3 -1 1 3
1532260780385006 -5 -8 16 -2 -1 -9 -1 2
1532260780407945 8 -1 9 3 2 2 -5 24
1532260780422905 1 14 6 2 1 -13 -5 -12
1532260780453826 -2 -8 5 0 0 2 -2 0
1532260780490728 -4 3 -12 3 -2 3 0 2
1532260780550568 1 2 -44 -3 1 2 0 1
1532260780617410 -3 -19 48 6 -2 -2 -3 -5
1532260780708167 -1 -6 21 5 7 3 -4 -3
1532260780723127 0 0 -1 5 6 3 11 2
1532260780760028 -1 0 -4 0 -2 6 0 -1
1532260780789948 -4 -13 -11 0 -1 -2 0 10
1532260780917648 -6 28 23 -1 -2 -2 -2 0
1532260781015387 -3 -23 -12 0 1 -2 0 -3
1532260781075226 -1 1 5 -2 -2 0 1 -2
1532260781172988 0 -10 -16 -1 -1 -2 -1 0
1532260781217867 1 7 -28 -35 -9 -4 -1 -1
1532260781285686 0 1 16 11 1 -1 -1 1
1532260781315606 0 -9 -17 -6 -3 3 0 0
1532260781360486 0 -4 -10 -1 0 0 -1 -1
1532260781420325 -2 7 24 10 1 3 -1 2
1532260781450246 0 0 -5 5 2 3 0 0
1532260781488146 -1 -2 -1 -12 -5 -1 0 -1
1532260781503105 1 -3 -5 -8 -1 -5 -2 1
1532260781533025 0 -4 2 16 8 -2 0 -3
1532260781569926 -2 -3 6 1 -2 1 -1 2
1532260781614806 -1 -6 -7 -1 -3 -3 -4 -1
1532260781660683 -1 1 -3 -2 0 0 -1 1
1532260781735483 -2 1 -20 -2 -3 0 1 -2
1532260781757424 2 10 49 -3 1 1 -2 2
1532260781848181 1 -4 -17 -6 -1 1 0 3
1532260781864140 -1 0 0 6 3 -1 0 2
1532260781937942 14 -1 19 0 0 -3 2 68
1532260781982822 -9 -8 -19 -1 -6 11 1 1
1532260782042662 -2 -8 70 -17 -7 -11 -4 -16
1532260782095520 -4 -5 -9 -3 1 -4 -3 -7
1532260782119456 -1 4 -14 5 2 -1 -2 -4
1532260782170320 -1 -1 -14 8 9 1 1 0
1532260782215200 -9 -22 1 -3 -3 0 -1 -3
1532260782230160 2 17 4 -13 -6 -4 -1 -1
1532260782297980 -2 -7 -9 -20 -11 -3 -2 -2
1532260782334880 2 3 -21 6 4 0 0 2
1532260782387739 -1 5 3 2 3 0 0 2
1532260782402698 -2 3 7 -2 -1 -1 0 1
1532260782432619 -1 -3 -9 2 -2 -2 0 -2
1532260782470518 0 -4 -11 -4 -2 1 1 1
1532260782492459 0 -3 -15 2 1 -1 -3 -1
1532260782515398 1 2 10 -4 -1 0 0 1
1532260782552299 1 1 -2 18 6 0 1 1
1532260782598176 1 -7 -13 -6 -1 1 1 0
1532260782643062 1 -7 0 -1 -3 -3 1 0
1532260782679963 1 -3 0 -6 -3 -1 0 -1
1532260782709883 -2 -5 1 -1 -1 -1 -2 -2
1532260782755760 0 4 26 1 -2 0 -1 0
1532260782807622 1 -7 5 -2 0 0 -1 -7
1532260782860480 1 19 -28 -3 0 -3 0 1
1532260782928299 -4 -5 18 -13 -4 0 1 0
1532260782958218 0 -15 -46 -4 0 -2 -2 -2
1532260782980160 -2 -1 14 7 4 1 1 1
1532260783010760 -1 -7 15 4 -2 -1 0 -2
1532260783025720 -4 31 12 -2 -2 -1 -2 -5
1532260783055840 10 -43 6 -1 1 -1 -2 -5
1532260783092744 6 3 -14 0 1 -1 2 12
1532260783175523 -5 -26 -9 -1 0 -2 0 -2
1532260783228991 -2 25 -10 1 0 -2 -1 -6
1532260783242954 1 13 -17 -10 -4 1 -1 -1
1532260783264896 -4 -6 -2 4 3 2 1 -3
1532260783287834 0 -14 60 1 -3 -6 1 -3
1532260783302794 -8 -40 -11 -3 -3 0 0 2
1532260783362634 -5 -8 -5 5 0 1 -1 -4
1532260783447408 -6 -1 -21 0 0 10 3 -2
1532260783475332 2 7 36 11 2 -1 1 1
1532260783513231 -12 4 -5 3 0 -4 0 2
1532260783573072 -28 -20 9 6 0 -2 -2 -6
1532260783602991 7 1 -8 -6 -2 2 1 0
1532260783722671 9 10 -5 -1 -2 0 -3 -1
1532260783767551 4 -10 19 -7 -2 0 1 -2
1532260783880140 -1 -6 13 7 0 -2 -1 6
1532260783939981 -9 25 -11 -4 -2 -1 -2 -7
1532260784022763 21 -31 -21 2 1 -1 2 -2
1532260784061659 -5 18 9 -1 -3 -3 -1 2
1532260784082598 -7 -3 7 -8 -4 1 -1 -11
1532260784165377 -8 -5 -4 -2 -4 2 -1 4
1532260784270097 1 6 -9 2 2 -2 1 -17
1532260784344897 -11 -4 -17 -10 -4 -2 -2 -2
1532260784375814 3 0 -14 -19 -6 -3 1 -3
1532260784510454 5 -2 4 -1 -1 1 0 -1
1532260784615174 1 4 15 15 -2 4 -1 -12
1532260784660054 -8 3 -128 -16 -5 -1 -2 -24
1532260784712928 -2 8 -2 -13 -6 -2 0 -7
1532260784757793 -1 -9 -76 -6 1 3 3 4
1532260784877473 2 7 6 5 -1 1 2 3
1532260784922759 -3 -1 11 1 1 3 0 0
1532260784939722 2 -2 4 -5 -2 0 0 2
1532260784960658 -1 2 -3 -2 -2 4 -1 -2
1532260784997559 2 11 1 7 -1 1 -1 -1
1532260785012519 -2 -18 -13 -5 -2 -2 -1 -2
1532260785140178 -2 1 13 -1 -3 1 -3 -4
1532260785194034 -3 0 -48 -7 0 -2 -1 0
1532260785207997 -4 -7 28 4 0 0 -2 -2
1532260785282803 1 6 13 15 3 -3 1 2
1532260785305808 3 8 18 -5 -3 1 1 0
1532260785335731 0 25 54 -4 -2 -2 -1 -5
1532260785402552 -3 10 -9 5 -2 -6 -2 7
1532260785486328 4 -25 -23 -4 6 -3 -2 -6
1532260785590050 3 -20 -59 22 15 -11 5 6
1532260785614983 1 5 1 -1 -4 2 2 9
1532260785726685 0 2 8 -2 -1 -1 1 2
1532260785762589 -1 -1 1 5 -1 -2 -1 1
1532260785807469 0 7 11 17 -3 -3 -2 -2
1532260785837389 0 11 -24 -11 -8 -3 -1 -2
1532260785928146 8 5 -39 -3 -4 1 9 -3
1532260785980007 -9 -4 -20 -2 -2 -7 1 -1
1532260786009943 -4 -3 31 -1 1 14 -2 11
1532260786032866 -3 -4 26 0 3 6 3 -2
1532260786092706 -5 -2 -1 8 2 0 -1 -1
1532260786243316 2 9 0 0 -1 0 1 6
1532260786260846 0 7 -5 5 -1 -1 -3 -4
1532260786310713 -13 12 7 3 -1 1 9 -63
1532260786415432 -2 -5 19 2 0 -11 -7 -3
1532260786490233 2 1 -30 -16 -5 2 -2 -7
1532260786505193 3 -10 20 -5 2 1 3 -2
1532260786560046 -3 0 23 4 0 0 -1 0
1532260786609913 5 -14 -22 0 -2 -2 -1 2
1532260786624873 -21 11 24 4 1 -3 -2 -22
1532260786670750 -1 5 27 1 0 -1 -2 3
1532260786700670 0 -27 -36 -9 -3 -4 -3 6
1532260786767972 -7 4 31 27 5 0 -1 -12
1532260786789913 5 -1 15 2 2 0 3 5
1532260786835790 3 3 4 4 0 -1 0 -2
1532260786904606 -1 -6 -5 3 1 0 1 6
1532260786947492 -2 -10 -13 -1 -1 -1 -1 -1
1532260787000357 -1 -3 -25 1 -1 -2 0 0
1532260787136992 -4 -10 2 -8 -3 0 -3 1
1532260787232735 -1 -1 51 1 -2 -2 -1 -1

1532260787368325 -8 35 40 21 -1 -6 -17 6
1532260787420181 4 8 -16 9 3 12 -7 12
1532260787547840 -7 11 -21 -1 0 -6 -2 -1
1532260787690458 -1 -1 -4 7 -1 -1 -3 -1
1532260787892917 -8 -6 -9 0 -2 -3 -3 -3
1532260787908875 1 -4 -20 -11 -2 1 1 -1
1532260787975696 0 6 11 -3 -3 0 -3 -4
1532260788042517 0 5 2 -9 -4 -2 -1 -2
1532260788125295 0 9 2 0 -1 -1 1 0
1532260788170187 0 7 34 -5 -2 -2 0 0
1532260788185135 -1 -2 -15 0 -1 -3 -1 1
1532260788230016 -5 26 -12 -1 -2 -1 2 -3
1532260788252955 1 -10 -3 -4 0 -1 0 -1
1532260788267914 1 -5 -24 -3 3 -1 -2 -1
1532260788297835 -1 -7 9 0 -4 0 -1 -2
1532260788365652 -3 0 31 -3 0 0 0 -1
1532260788402554 0 9 -2 -3 -3 0 0 0
1532260788427504 -4 -7 -14 0 0 1 1 -3
1532260788538197 3 2 5 0 -3 -2 -1 1
1532260788575093 2 -4 22 5 -1 0 -2 -2
1532260788687792 -1 -3 -2 0 1 -1 1 0
1532260788710730 1 12 9 3 1 -1 -1 1
1532260788732671 0 -3 -4 2 1 0 -1 -1
1532260788785531 2 -2 -7 -2 -1 0 -1 -1
1532260788852352 3 -6 -18 2 -1 -1 -2 -1
1532260788898229 -3 -2 0 -5 -1 -2 0 -3
1532260788958069 -2 -1 6 1 -1 -2 -1 -1
1532260788994970 1 -6 2 -3 -2 -1 2 0
1532260789085727 0 4 -8 -1 -1 -1 -1 0
1532260789130607 1 4 5 0 1 0 -1 0
1532260789160527 -3 -11 -24 1 2 -1 1 0
1532260789212389 4 3 10 0 0 -2 -1 -1
1532260789243306 0 -4 -21 -4 -3 0 1 1
1532260789288194 -2 -4 -13 0 -1 0 0 0
1532260789377946 -1 1 15 1 1 0 0 1
1532260789452746 -4 -1 -12 -4 1 0 -1 0
1532260789497626 0 5 -9 -3 -1 -1 -2 1
1532260789535525 3 -6 -15 1 0 3 0 -1
1532260789557466 -1 3 -3 0 -1 -2 0 -2
1532260789572426 2 1 7 0 0 0 0 -1
1532260789611339 -2 -4 -28 -4 0 0 -1 1
1532260789640244 -1 0 11 2 -1 -1 1 1
1532260789730004 0 -3 1 3 0 1 -3 -1
1532260789752943 -1 -4 -3 -1 1 0 2 -1
1532260789797824 -1 -3 0 2 -3 -1 -1 0
1532260789835722 1 2 -1 -18 -9 0 -2 0
1532260789902542 -1 1 12 17 0 -2 1 -2
1532260789917503 -1 -2 -1 -11 -6 0 -1 -1
1532260789977343 -2 -5 -16 -7 -2 -2 1 -2
1532260790023221 -4 -4 -2 -2 0 0 1 -1
1532260790038180 -1 -2 1 -6 -3 -2 1 0
1532260790098020 -3 1 -2 10 1 0 -1 -2
1532260790119962 -4 -10 -12 -5 -5 -3 -1 -2
1532260790180799 1 -3 6 -4 -4 -4 -2 -1
1532260790210719 2 3 3 5 2 1 0 3
1532260790300479 -1 -16 4 26 14 3 4 7
1532260790352340 -7 -15 -10 -9 -2 -2 -3 -16
1532260790465038 55 -8 6 4 5 1 5 -29
1532260790517898 65 71 -23 0 5 19 18 35
1532260790562777 19 -128 9 8 4 -5 -8 -9
1532260790600676 -32 1 -10 -5 5 12 -30 -5
1532260790630597 -8 -24 -7 -2 -1 -1 2 4
1532260790652538 -46 0 -16 -10 -6 -1 -13 -27
1532260790682458 55 5 -14 24 7 7 26 31
1532260790720356 -13 0 18 -8 -2 9 13 33
1532260790744292 2 -3 -11 -10 -8 -6 -7 -26
1532260790766234 35 -2 15 3 2 3 9 11
1532260790795159 -1 -1 8 14 7 5 2 15
1532260790840036 -48 -3 8 11 7 8 31 -27
1532260790884916 -98 -2 -12 2 4 -12 -48 -48
1532260790922815 63 1 -13 -19 -11 8 -21 45
1532260790946750 16 -1 -12 3 7 10 21 -28
1532260790982655 36 -2 -38 -9 -2 1 22 -21
1532260791012575 23 -1 32 -14 -5 -3 11 -3
1532260791027535 3 -1 -4 -2 -3 1 5 -1
1532260791050473 6 -5 -9 8 1 1 11 -1
1532260791102335 -16 0 18 9 2 -5 -3 -18
1532260791133252 -18 -1 15 5 2 -1 -21 4
1532260791200073 -4 51 24 -6 -1 -11 -7 1
1532260791215034 2 52 86 -9 -4 -6 -10 0
1532260791244954 6 16 14 0 1 2 -28 -5
1532260791261908 -23 -75 -43 -3 -3 -1 -7 -3
1532260791327731 -6 7 -45 -13 -8 -2 10 0
1532260791350671 -5 4 8 9 2 19 -5 2
1532260791387572 16 -6 37 -6 -5 -5 1 9
1532260791485311 0 -4 -28 -3 -2 -4 4 2
1532260791508250 32 2 11 -2 -4 -8 -17 12
1532260791523210 6 4 -24 6 6 13 -6 -12
1532260791545151 4 1 12 55 21 5 7 1
1532260791575071 5 0 14 7 2 -2 8 -4
1532260791642889 -25 -4 39 -6 -7 -6 9 -4
1532260791664830 -22 -6 17 0 -2 -4 5 -1
1532260791687792 -2 0 -20 -12 -2 7 0 0
1532260791755588 -1 6 -37 -2 8 16 -5 -3
1532260791794484 -1 6 50 9 5 2 2 -3
1532260791816425 2 4 -21 -3 -6 -4 -2 -5
1532260791853326 -4 4 57 -3 -4 -1 -2 -3
1532260791883246 -19 -4 23 10 -4 -18 -6 -3
1532260791928126 -8 -7 27 7 -3 2 -1 -2
1532260791958046 6 1 11 -2 -4 -6 -4 -5
1532260791994948 11 3 1 2 1 3 1 10
1532260792017887 5 -1 -4 -2 -5 -5 -1 10
1532260792040825 -11 -16 5 2 0 -1 -3 -20
1532260792077726 8 -4 -1 0 -1 0 0 5
1532260792093684 -24 -1 -4 -1 -4 -3 -1 -7
1532260792228333 -2 -13 -20 16 1 -3 -1 -9
1532260792325065 -1 -7 15 -2 -4 -3 -1 -5
1532260792377924 -2 -24 -42 -11 -4 0 -1 -3
1532260792452724 -6 -34 -93 3 0 -2 -5 -3
1532260792595348 1 13 17 6 -5 -2 1 1
1532260792685102 -2 -5 -38 -3 -3 -3 1 0
1532260792737961 0 -15 13 -6 0 14 5 2
1532260792865619 -9 -13 44 6 -1 -3 -2 -4
1532260792955395 9 2 -54 -3 1 5 15 26
1532260793008238 -3 8 65 2 3 -11 -9 28
1532260793202718 6 37 20 -3 2 -1 0 -9
1532260793270537 -19 -54 -18 3 3 1 5 68
1532260793338357 -3 -44 8 -5 -5 -3 -3 -3
1532260793458035 3 -13 -15 -6 -1 3 1 -4
1532260793494937 -7 10 23 1 -3 -2 1 -44
1532260793518873 4 -33 -4 -14 -4 1 -1 5
1532260793593672 -18 -23 -17 3 -1 -1 2 -39
1532260793630574 1 54 5 0 1 1 -1 4
1532260793675454 -14 -31 18 4 2 -1 -5 -17
1532260793773193 15 -9 -90 -1 0 -3 -5 -25
1532260794005589 -26 0 -4 -3 -1 0 -1 -16
1532260794072392 -3 18 13 -3 -3 -2 -3 -27
1532260794140224 -4 -25 4 0 -1 0 -2 -3
1532260794200051 -3 3 -34 7 4 -1 -1 2
1532260794275857 1 -3 -5 0 7 1 -2 0
1532260794314745 2 1 3 -8 -4 -1 -1 2
1532260794357643 -1 1 8 0 0 1 -2 -2
1532260794440408 4 -1 3 -4 -9 -5 -3 0
1532260794493267 2 2 -2 0 0 1 0 0
1532260794530169 -5 1 19 -14 0 1 0 -1
1532260794568067 3 5 0 18 8 3 5 2
1532260794606962 1 4 16 16 12 1 -1 1
1532260794634888 -6 -2 25 -8 -8 -3 -2 -2
1532260794657827 -2 1 12 13 -3 -4 -4 -1
1532260794680766 1 -2 -7 9 7 1 -1 -2
1532260794702707 3 -1 4 14 5 3 0 1
1532260794725646 -1 -2 -51 -45 -9 -3 -3 -2
1532260794792467 -1 -2 -1 4 3 -2 0 -1
1532260794830383 2 -5 -8 -5 -9 -1 0 -1
1532260794847337 -2 -6 0 1 5 -1 -1 -1
1532260794869279 -1 1 0 2 -3 -1 -2 0
1532260794892218 1 2 2 -1 0 0 -3 -1
1532260794913162 0 -1 -4 -3 3 1 1 -2
1532260795017881 0 -1 1 0 -1 -1 -1 0
1532260795047801 0 -1 -1 0 2 0 -1 -1
1532260795070740 -1 0 -2 -2 6 -1 -2 -2
1532260795085700 0 0 0 -5 -8 -4 0 -2
1532260795107641 3 -1 -2 3 0 0 2 -1
1532260795122603 -1 1 0 6 1 0 1 0
1532260795145541 0 -3 -2 5 14 4 -1 -1
1532260795182441 1 2 2 0 2 2 1 3
1532260795250260 2 -6 -3 -3 3 -3 0 0
1532260795303119 -2 -2 -2 -1 -5 -1 1 1
1532260795327055 1 -2 -3 -3 1 1 0 -1
1532260795347998 -3 -6 -5 -1 0 -2 -2 -1
1532260795384900 0 4 -4 1 3 -1 -1 -1
1532260795482638 -1 -3 -2 3 -1 -3 -1 0
1532260795535498 0 3 1 -4 -2 -2 -1 0
1532260795559434 3 5 5 1 15 6 3 2
1532260795580377 -5 -14 -13 -12 -6 0 2 -2
1532260795618276 -2 -2 -9 -1 -7 -3 -3 -3
1532260795649194 -1 1 5 -8 -5 -2 -3 -1
1532260795670137 12 4 5 -3 -2 -1 2 8
1532260795693081 -6 -5 3 0 -4 -3 -2 -3
1532260795722996 -4 -6 -6 -3 -1 -1 -3 -2
1532260795767876 -1 -5 -18 -3 -2 -3 -2 2
1532260795812756 0 -13 -13 -2 -4 -2 0 1
1532260795917476 -25 -20 -12 -5 -1 -1 -2 -9
1532260795979322 2 12 7 5 0 0 -2 -3
1532260795994270 -10 0 1 -2 -3 -2 0 -4
1532260796038153 -1 -9 0 -6 -1 -1 1 -1
1532260796053113 4 10 27 -4 -1 0 2 2
1532260796068073 0 4 6 2 -3 -2 -2 -1
1532260796180771 -5 -34 -35 -12 0 0 1 -2
1532260796247593 7 7 -18 34 12 -6 0 2
1532260796262553 -7 -16 -30 -21 -8 3 1 -1
1532260796292473 10 -27 -23 -17 -6 4 0 1
1532260796322393 -1 -21 57 -1 -3 1 2 1
1532260796360292 -4 -8 -20 -3 -2 -3 -2 -3
1532260796428111 -1 -20 -18 21 6 -3 2 2
1532260796481966 6 -2 -3 1 1 0 -3 3
1532260796502911 -5 -18 39 3 0 0 -2 -1
1532260796533827 9 94 34 -1 3 7 8 86
1532260796600649 17 -22 -27 3 2 70 30 35

1532260796622595 9 63 73 -3 2 -26 -34 -34
1532260796735288 -10 -31 -42 48 7 -8 17 -24
1532260796780169 -2 -15 6 4 3 -9 -1 -23
1532260796795131 -1 5 -30 -15 -2 -7 -8 -5
1532260796810089 2 0 -25 -11 -4 -5 1 -1
1532260796833028 1 4 18 -5 -2 -7 -1 -6
1532260796854969 -1 3 3 -5 -6 -2 0 -3
1532260796900385 -1 -1 -7 9 -3 -1 1 1
1532260796960203 -4 -4 -7 -7 -5 0 0 -1
1532260796990123 -1 2 9 -3 0 -3 -2 0
1532260797021041 3 1 1 17 7 1 2 0
1532260797057942 0 8 14 10 1 -1 -1 1
1532260797087869 -7 -34 7 8 4 4 0 -2
1532260797102822 0 -3 23 -6 -2 -4 1 2
1532260797215521 2 8 6 2 2 52 102 32
1532260797313259 0 -27 -24 -37 -12 -4 -8 16
1532260797358142 4 13 16 5 2 0 -12 3
1532260797380080 -2 0 -4 14 3 5 0 2
1532260797395040 6 2 7 -6 -9 -1 2 2
1532260797432938 4 9 -2 -13 -4 -3 -2 1
1532260797470853 3 4 -5 0 6 4 1 0
1532260797492779 -2 -1 -13 -8 -3 1 2 0
1532260797522699 -4 5 10 15 7 4 1 -1
1532260797560598 -5 -5 3 -5 -4 -2 -1 -2
1532260797597499 -8 -7 -4 -6 -1 -2 -2 -6
1532260797658337 11 13 12 8 1 -2 1 3
1532260797710198 3 5 0 0 3 -2 -2 2
1532260797733136 -2 -6 -6 -13 -3 0 0 -4
1532260797822896 5 1 -2 2 3 1 0 0
1532260797890715 1 -2 -3 2 0 -2 -1 0
1532260797965515 -2 -1 -5 -8 -5 -3 -4 -3
1532260798055275 5 -1 11 3 -4 0 0 1
1532260798115115 -4 -8 -6 2 1 -2 -3 -2
1532260798138053 -3 -20 -11 -7 -3 -1 0 -2
1532260798199888 6 -3 -2 -2 -3 -5 -2 -10
1532260798250752 30 32 26 14 6 6 11 26
1532260798280672 -3 9 11 0 2 1 9 48
1532260798302613 -7 9 -17 -9 -2 -3 -3 -35
1532260798347493 8 66 -12 -14 -10 -7 -1 16
1532260798377413 21 83 -2 -3 0 1 -5 -16
1532260798423290 -15 -4 23 2 -3 2 1 10
1532260798453211 -7 -48 88 16 5 1 3 40
1532260798490112 62 -119 -2 5 4 3 13 -13
1532260798505072 4 25 -21 4 3 -2 -4 6
1532260798557931 -2 -10 -5 42 10 2 5 -16
1532260798602811 -27 -26 -14 -9 -8 -8 -6 -32
1532260798632731 -13 -4 41 -10 -6 -1 6 9
1532260798655672 -1 13 40 0 -2 0 2 -7
1532260798701547 30 2 9 10 0 -2 3 -14
1532260798745429 -5 -4 -1 10 4 -1 1 5
1532260798850149 4 0 6 -5 -4 -1 -29 18
1532260798865109 -12 3 -1 -8 -13 1 24 -9
1532260798903007 25 0 -12 4 -1 8 20 32
1532260798954871 10 -3 5 -8 -1 -1 -4 42
1532260799030678 16 0 -31 -4 -4 -3 -5 35
1532260799076544 17 -4 15 2 2 -3 4 9
1532260799150347 -1 -6 -1 1 1 1 -4 -2
1532260799165306 -6 47 -6 -1 3 8 11 -6
1532260799235126 1 -46 -82 -9 18 13 3 2
1532260799270027 -7 -29 127 5 -14 -27 2 1
1532260799314907 -8 -11 39 5 -3 -9 2 -3
1532260799375744 7 -10 18 -1 -5 -53 6 4
1532260799420623 -3 8 36 -3 5 -2 12 -1
1532260799487445 3 7 46 8 10 -29 7 5
1532260799510384 6 4 -2 -16 6 71 8 -1
1532260799585198 4 -11 -35 -13 -5 -6 -19 -15
1532260799630063 72 -10 -3 -2 -7 -4 18 62
1532260799810581 -23 -7 2 -7 -8 -12 -11 0
1532260799863440 30 -2 9 -15 -23 1 -30 -1
1532260799930261 24 6 -3 -6 34 0 -13 7
1532260800013040 0 -1 0 6 0 14 10 6
1532260800034981 -47 6 6 3 -3 2 4 -6
1532260800087840 -6 6 7 -1 0 2 2 6
1532260800119754 10 -5 -6 0 -3 -4 -2 5
1532260800155658 9 -4 -4 -3 -3 -10 -3 0
1532260800200538 -13 -4 2 5 5 13 -6 1
1532260800230458 3 0 -5 -19 -10 -2 -7 -4
1532260800417957 17 -4 -3 -4 -17 -10 -7 9
1532260800485775 -11 61 4 -15 -2 9 -1 3
1532260800545615 -2 -24 -6 9 1 1 15 -18
1532260800635375 -5 4 0 1 -2 0 -1 5
1532260800651333 24 -3 0 1 1 2 3 15
1532260800703194 -2 -1 3 3 2 12 7 8
1532260800777994 2 -2 2 8 3 -1 -1 -2
1532260800897674 -1 -15 -34 -2 -2 -5 -2 -1
1532260800957514 -8 -14 -33 -10 0 1 -2 -3
1532260800987434 5 -16 -14 2 7 -5 6 5
1532260801025333 7 24 -10 0 1 12 1 4
1532260801040293 1 17 89 13 1 6 -1 -1
1532260801078191 0 3 69 -8 -6 -2 -4 -3
1532260801108111 -2 -6 86 3 -2 1 0 -5
1532260801145013 -4 5 10 -12 -6 -17 -6 -2
1532260801189892 -2 7 41 1 -4 6 -1 -1
1532260801206848 0 9 66 3 6 -9 -3 0
1532260801228788 -1 0 -20 -8 -2 -1 2 0
1532260801257710 -12 -21 -16 16 1 -2 -6 -5
1532260801287631 -1 24 89 -12 -8 -4 -1 0
1532260801325530 -3 -21 -49 -2 0 -6 -1 0
1532260801439226 13 -21 63 5 -3 -3 -9 -16
1532260801475130 -17 3 -17 -3 0 11 6 21
1532260801513045 -6 -7 -1 -5 2 -29 6 -17
1532260801528986 9 -28 -16 -6 0 2 7 0
1532260801542949 -7 -3 -44 4 2 23 -4 -1
1532260801564890 -2 26 21 0 -7 -2 -2 9
1532260801587828 1 27 4 8 -1 8 2 26
1532260801610766 -3 -2 15 -6 6 9 0 -55
1532260801647669 -8 -62 5 0 3 0 0 -2
1532260801791284 6 -68 11 -5 0 -2 -4 8
1532260801814232 9 -8 -11 1 -2 -1 2 40
1532260801835167 9 62 24 -1 -1 -2 -1 -3
1532260801865087 -10 5 11 -4 -2 -2 -2 -11
1532260801909981 3 13 14 -1 -2 -4 4 3
1532260801956842 -3 2 6 3 1 -24 -2 -8
1532260802007706 1 -13 2 0 1 13 2 -2
1532260802045605 -39 14 -9 1 7 -9 1 -9
1532260802060565 -7 -37 48 5 -6 -22 -4 3
1532260802112426 9 12 -78 -2 -2 -6 -4 -19
1532260802165284 -31 24 17 6 2 1 3 -47
1532260802218143 -4 0 -35 -5 -3 2 -6 -9
1532260802255056 19 11 56 -3 1 -11 -2 16
1532260802284964 -7 13 25 4 2 5 0 -11
1532260802322863 7 -10 -43 -12 -3 -1 4 23
1532260802339818 6 14 85 10 -4 -7 1 59
1532260802361759 -29 -75 -82 -13 -6 0 -2 7
1532260802405642 6 24 -3 7 2 -3 -1 -9
1532260802435562 1 7 -40 -9 -5 -3 2 -20
1532260802472463 24 20 8 -3 1 1 0 29
1532260802517343 9 -33 -8 12 3 2 -1 17
1532260802654975 -4 -4 -22 5 -3 -1 -1 -2
1532260802682900 2 6 12 -11 -10 -3 0 2
1532260802727779 -1 1 -2 -7 -4 -1 0 -1
1532260802742740 -8 -1 1 -12 -2 0 -2 -1
1532260802802579 0 -6 4 -18 -4 0 1 1
1532260802938223 3 6 -38 0 3 1 2 2
1532260802953178 -2 2 4 0 0 -1 -1 -2
1532260803027977 -1 6 -19 1 -2 1 -3 -2
1532260803049919 3 -1 2 -9 -3 -2 0 -1
1532260803079838 2 15 22 8 1 -1 0 0
1532260803132697 -16 -11 60 -7 -3 -11 9 28
1532260803177577 -1 -4 20 12 4 -6 8 -22
1532260803200521 -6 30 75 31 12 0 -3 -28

1532260803215476 5 21 -2 43 9 -2 -9 -6
1532260803230435 -5 -17 -41 2 -3 0 2 -17
1532260803283294 6 -1 11 -32 -8 -2 4 -5
1532260803305236 1 11 8 6 0 0 0 -3
1532260803388019 -1 19 42 19 -4 -3 1 -3
1532260803426928 -5 -16 -21 -11 -4 -3 0 -4
1532260803477774 -5 -5 10 -1 0 2 1 -4
1532260803492735 -4 14 46 1 -4 -2 -4 -4
1532260803515673 -1 25 -26 1 1 -3 -1 -3
1532260803575513 -1 9 33 2 -2 -3 -2 -2
1532260803635353 3 15 5 -4 -2 -1 2 1
1532260803650313 -1 2 -12 1 0 -2 -1 -2
1532260803710164 -2 -5 6 -9 -1 -4 -1 1
1532260803748052 -1 0 1 -1 -5 -3 -2 -3
1532260803830057 -1 1 18 -1 0 -1 -1 -3
1532260803859976 0 -5 -10 -1 -1 -1 0 1
1532260803920827 -2 -1 -6 -7 -3 0 1 -1
1532260803945747 -3 -7 -15 -3 -2 -1 1 0
1532260804010574 -1 -3 2 -4 -1 0 -1 0
1532260804092502 -3 -14 -52 -6 -2 1 -1 -1
1532260804198220 1 -4 -16 -2 -2 0 0 0
1532260804287980 0 -7 1 2 0 1 2 0
1532260804319896 3 -1 10 0 1 1 1 0
1532260804392699 -1 -3 8 -4 -2 -1 0 -1
1532260804467511 2 3 -43 -8 -1 0 0 -2
1532260804528347 0 -9 10 1 -1 -1 -3 -5
1532260804558268 11 -5 -17 -3 0 1 6 14
1532260804589218 -17 -14 -18 -3 5 17 14 11
1532260804648059 7 41 -4 6 7 29 24 5
1532260804677511 8 -3 54 -10 -2 -4 -4 -12
1532260804707430 0 3 -21 17 2 -1 6 15
1532260804753314 2 -6 -19 -1 5 2 -3 12
1532260804805169 2 -5 18 -17 -6 -2 0 2
1532260804828108 2 -3 1 -1 -2 1 -1 3
1532260804858027 -6 -6 -7 6 3 0 -1 1
1532260804879969 -12 -3 -2 6 1 0 -3 -3
1532260804894929 2 3 2 -4 4 3 -1 -2
1532260804917867 -1 -10 -17 -15 -3 -2 -2 -1
1532260804947787 -2 2 2 13 -3 -1 1 0
1532260804977707 0 0 7 9 -1 -4 -2 -1
1532260805015606 1 6 2 2 -1 -2 -1 1
1532260805037547 -7 -9 -4 2 -2 -3 -2 -4
1532260805052507 0 -1 -1 -1 0 -2 -1 -3
1532260805067467 -3 -7 -13 -3 -3 -3 -5 -4
1532260805090406 2 5 6 -3 0 1 2 0
1532260805112347 -1 4 10 -5 2 2 3 2
1532260805128304 3 -1 -14 1 5 2 0 1
1532260805158225 -8 -7 -22 -9 0 0 -1 -3
1532260805180166 0 -4 -14 -5 0 1 1 -4
1532260805203105 7 12 15 1 -2 -1 1 -1
1532260805225046 8 10 18 6 1 1 1 7
1532260805262945 -9 7 -6 -6 -4 -3 -3 1
1532260805277904 7 -7 12 1 1 0 -3 -8
1532260805300856 -17 -30 -32 0 -1 -2 -2 12
1532260805345723 -4 -18 5 -1 1 0 1 3
1532260805367664 -4 43 40 -3 -3 -5 -6 -6
1532260805397584 3 -7 -2 -3 0 2 1 -7
1532260805412544 -4 26 -13 1 -1 -1 1 20
1532260805450443 -17 -31 -15 -1 -5 -5 -4 -5
1532260805465403 26 48 2 8 3 2 1 -10
1532260805495324 -8 -27 -4 5 5 3 3 1
1532260805518262 24 48 -5 -16 -5 -2 -10 -17
1532260805540203 10 72 5 8 3 3 -1 -10
1532260805585082 -18 -117 13 -4 -10 -7 -1 -2
1532260805629963 -16 26 46 -1 -6 -5 -9 -33
1532260805652902 33 63 -74 -12 -2 0 -7 18
1532260805690800 1 30 -12 11 11 11 13 11
1532260805712742 -56 -30 69 -7 -5 -5 -10 -4
1532260805757622 10 -20 -45 -13 -6 -5 -8 -1
1532260805802502 28 -3 -28 0 0 -2 4 11
1532260805832422 -16 -2 1 -11 -7 -3 -3 20
1532260805878299 15 -2 60 12 9 5 0 6
1532260805908219 15 -1 2 6 2 -3 -7 71
1532260805945121 -1 -2 -2 -8 -8 -9 -12 -38
1532260805983019 -43 -3 -31 -3 -3 -6 -12 -24
1532260806072779 -35 -2 5 0 -2 -9 -12 -31
1532260806104693 -15 3 20 -3 2 12 11 -18
1532260806162538 -24 4 0 3 1 1 8 22
1532260806230358 -1 -4 13 1 0 -6 -1 -8
1532260806245318 -16 -2 -25 -6 -4 -5 -3 -1
1532260806290198 -11 0 10 2 1 -7 -8 1
1532260806320118 -4 -4 -8 -3 0 7 2 1
1532260806358016 -1 -75 43 -4 5 0 1 0
1532260806380955 3 8 43 8 5 -1 -1 1
1532260806485675 -2 -18 -36 -9 -8 -31 -2 -1
1532260806522583 3 21 56 19 0 -3 1 0
1532260806545515 -3 25 12 -9 -1 -34 -10 -1
1532260806582416 -4 -21 -117 6 1 15 1 0
1532260806613334 -3 9 21 -20 -3 1 -1 -5
1532260806673174 4 -5 -3 -7 -10 9 -7 1
1532260806710075 -6 3 7 3 -3 -1 4 -15
1532260806739995 -53 -1 -18 -16 -6 -9 1 5
1532260806777894 -21 -3 20 2 -3 -22 -4 -4
1532260806837733 23 -3 -4 6 0 -3 -8 6
1532260806867654 -13 -6 -2 -3 4 14 -25 5
1532260806942453 14 -3 -3 11 8 7 2 4
1532260807025232 4 5 6 2 -1 -1 18 33
1532260807063131 21 22 1 -1 -4 -6 -3 2
1532260807085087 -4 -2 1 2 0 -1 -1 -4
1532260807144912 7 -8 -1 2 2 1 -1 -13
1532260807197771 -3 -8 -33 -3 2 -1 2 7
1532260807325429 7 8 33 -1 4 2 5 3
1532260807362331 -19 9 25 -2 -4 20 6 -6
1532260807445110 0 8 19 8 4 -2 11 8
1532260807550826 -9 -1 15 -1 1 4 1 -13
1532260807595707 -5 13 7 4 0 30 10 8
1532260807632608 6 13 33 3 0 -42 2 10
1532260807655546 1 -4 10 0 -4 -21 -1 5
1532260807692448 17 3 2 1 -2 1 10 6
1532260807723365 -1 10 29 7 3 -2 2 -11
1532260807760266 10 6 9 -3 -3 2 9 -7
1532260807820106 36 20 -40 15 9 15 -1 4
1532260807850027 -20 -1 36 24 -2 -5 -3 -13
1532260807889920 9 -8 8 -7 3 -2 0 8
1532260807917844 -20 -3 9 -1 -5 -2 -7 0
1532260807970704 10 -1 -13 -4 3 -2 -7 -12
1532260807992645 0 18 21 -6 -5 6 3 -13
1532260808045506 -11 -4 -14 -12 -6 -6 -3 -4
1532260808105344 -11 5 14 3 0 -6 1 1
1532260808189119 -38 2 -2 20 4 -1 0 -8
1532260808269904 14 4 -1 -15 -6 -16 2 10
1532260808337722 -7 4 -7 2 -1 1 -4 2
1532260808450420 9 -10 -1 2 10 19 5 -9
1532260808465381 -9 -1 7 25 9 -9 -4 0
1532260808488320 10 -7 1 14 -3 5 -5 -5
1532260808525221 18 -10 -5 -7 -2 -33 -31 -6
1532260808540181 -7 1 -5 -20 -11 -17 10 4
1532260808585060 -21 -19 3 1 -1 9 1 -5
1532260808614980 13 15 8 3 -2 19 4 1
1532260808646895 -4 7 -7 -7 -3 -26 6 -5
1532260808667839 -1 -11 -24 1 5 4 0 5
1532260808690778 -5 2 -23 -6 0 11 -1 2
1532260808712720 1 18 22 -1 1 8 0 0
1532260808735657 5 6 -20 -5 2 11 4 -2
1532260808825418 3 4 -52 4 3 -6 0 2
1532260808847360 -6 -32 -62 -13 -3 -2 -4 -3
1532260808982996 5 -8 0 -9 -7 -34 3 7
1532260809004938 3 -3 59 -3 0 -17 -13 -3
1532260809019898 6 8 49 1 7 -2 -30 4
1532260809042837 -9 -20 -61 23 -5 -2 -38 -8
1532260809065775 -2 -1 -1 -6 -4 -4 15 2
1532260809087717 -3 7 32 6 5 4 16 2
1532260809215375 3 4 42 10 3 7 -14 -55
1532260809299152 16 47 89 20 3 -54 -10 -24
1532260809322091 0 -18 19 -8 4 -4 9 13
1532260809335055 -1 6 24 2 -10 -32 2 24
1532260809417834 -4 -3 -78 7 8 39 21 -21
1532260809470693 2 6 24 -5 2 -4 -5 -17
1532260809500612 -4 -15 -18 -6 -3 -6 -3 0
1532260809591370 12 19 -3 3 0 -1 -7 -1
1532260809613316 -4 -52 2 8 5 0 1 28
1532260809635265 24 -17 -1 2 1 -1 2 31
1532260809688122 -6 39 4 2 -1 -1 -8 -20
1532260809875610 -7 29 -4 -6 -3 -1 -8 -64
1532260809897551 16 18 14 -5 2 0 2 37
1532260810018228 -6 -4 -10 7 -1 -2 0 -10
1532260810055130 10 5 49 19 2 -1 -12 -31
1532260810100010 -8 25 38 -7 -4 -2 -2 13
1532260810137908 -12 -25 -55 -10 -3 1 -1 10
1532260810167828 -5 -6 11 12 1 -1 6 26
1532260810265567 -16 -23 16 -2 -3 1 4 -18
1532260810287508 -1 23 23 0 -4 -5 -5 37
1532260810325407 -13 -5 76 -8 -1 -1 -5 -16
1532260810408186 -7 -23 -79 3 3 -1 -7 -50
1532260810445087 -5 -38 -13 -10 2 1 -2 -10
1532260810497946 -2 8 3 -11 -1 -3 -3 15
1532260810534847 -3 -21 21 2 -2 1 2 15
1532260810647546 -2 -10 -4 13 4 0 2 -7
1532260810724341 -2 -9 -7 2 -1 0 -2 0
1532260810768223 -2 3 27 -8 -3 0 -4 0
1532260810813103 -5 -2 -1 -3 -5 -1 -1 -1
1532260811000601 -2 2 11 -1 1 -3 -1 1
1532260811052463 -2 -8 -94 1 1 3 -1 -2

1532260811165161 -18 -12 11 -1 -2 4 14 19
1532260811239961 5 2 11 9 2 -2 -1 -3
1532260811262899 6 18 -17 -1 -1 -5 1 -1
1532260811307780 -2 12 23 32 15 5 4 -1
1532260811322740 -1 -1 -10 -15 -12 -2 -1 0
1532260811442420 -1 -4 -4 2 1 -1 4 3
1532260811518217 1 4 10 0 5 0 1 0
1532260811555118 0 -1 -15 -4 -2 -1 0 0
1532260811600005 -4 2 3 -1 -4 -1 -2 0
1532260811622952 0 -3 -10 -7 -6 0 -2 0
1532260811652857 1 -7 -1 9 5 1 0 -1
1532260811817417 -3 -3 -24 -1 -1 -2 -1 0
1532260811885236 -2 -7 -25 -7 0 2 -2 -1
1532260811908175 -1 13 36 0 -1 -2 0 -2
1532260811945076 1 2 -2 -1 -2 -2 0 1
1532260811974996 -1 20 24 9 5 -1 18 -17
1532260812102655 2 -8 -14 -41 -9 -16 -3 10
1532260812200393 2 9 34 -2 0 -6 -1 6
1532260812230312 4 -5 -3 -3 -4 -6 -4 -1
1532260812253252 -2 -6 -19 1 2 -3 0 1
1532260812298132 3 7 -1 -3 -8 -4 -1 -1
1532260812320073 -6 1 -3 -13 0 -3 -2 -1
1532260812387897 -5 -4 -14 4 0 -2 -1 -2
1532260812440751 4 4 0 -2 0 1 3 0
1532260812507571 -3 -3 -4 3 -2 -4 -1 -3
1532260812569407 -1 0 -5 -5 1 0 0 0
1532260812613289 0 1 4 -2 -7 -5 -1 1
1532260812628248 0 5 2 -2 1 -1 0 1
1532260812643209 2 0 -3 -4 -6 -1 1 2
1532260812658169 -4 -6 -2 -6 1 1 1 -3
1532260812680110 1 -10 -7 -5 -2 -2 -3 -2
1532260812703048 -5 -3 -1 -1 -3 -1 -1 -1
1532260812739950 3 7 5 1 2 1 -1 1
1532260812854644 5 2 -5 2 -1 0 -1 1
1532260812920467 9 -11 -3 1 -1 -4 3 2
1532260812942410 0 0 -4 1 3 5 8 0
1532260812988287 0 2 -2 1 2 3 1 1
1532260813018206 10 -27 -23 -4 -2 -1 0 -9
1532260813078046 0 -28 -5 -3 -2 -2 -6 -3
1532260813099987 14 -83 -4 0 0 2 5 10
1532260813175785 -29 54 11 18 5 3 -11 1
1532260813190745 36 20 -23 -46 -5 -6 -10 -10
1532260813257575 -33 -126 6 -5 -3 -10 0 -1
1532260813334361 22 -82 -18 -11 -2 1 -9 8
1532260813347326 -20 -80 -10 1 -1 -1 5 3
1532260813393203 7 15 -18 -6 2 -1 -9 -3
1532260813423124 -23 14 12 -6 -13 -7 -3 -17
1532260813445065 -11 -9 13 -7 0 3 -6 0
1532260813468003 -1 15 -3 7 -1 -9 7 -5
1532260813489945 -6 0 20 -22 -7 -6 -4 -9
1532260813572724 -41 3 1 -6 -5 -7 -13 -18
1532260813610622 -36 0 -14 9 1 -2 -8 -7
1532260813677444 32 2 -6 2 -3 -11 -2 1
1532260813753241 18 -9 -6 -2 -5 -4 -1 29
1532260813894862 42 -4 6 -5 1 -3 2 21
1532260813979636 2 2 3 -4 2 19 1 -3
1532260814000579 -4 -61 -9 -4 -3 -7 -3 -6
1532260814022522 0 -50 -16 2 -3 -5 -1 -1
1532260814060419 -5 35 33 3 4 -4 -1 -7
1532260814090339 -5 -13 -9 -23 -12 -18 -4 -8
1532260814128238 -5 -9 -59 -34 -9 2 -9 0
1532260814173118 0 12 2 31 18 6 4 3
1532260814247918 -1 -22 -46 11 5 -11 1 -1
1532260814277838 -5 -7 92 12 1 -13 -19 -7
1532260814300776 19 36 101 11 -3 -7 -54 10
1532260814330696 5 -12 25 20 7 -5 -13 18
1532260814345657 75 -9 -63 -11 8 4 43 45
1532260814397517 -6 -4 -68 -10 -9 -20 -58 -21
1532260814420456 -57 -18 -15 -15 -4 -15 -9 1
1532260814442398 27 7 -19 -15 -4 9 3 1
1532260814592995 -4 0 -25 3 -3 -7 -23 -1
1532260814622915 -13 -5 31 6 3 0 -18 -9
1532260814637875 -15 11 -1 0 0 -3 -15 -13
1532260814697715 40 4 53 -11 -4 20 20 19
1532260814772516 4 -8 -11 -6 -2 -2 1 7
1532260814802435 51 -35 -75 -4 1 33 12 5
1532260814817395 -2 24 55 -5 -11 -28 14 3
1532260814863272 3 12 -22 -4 -2 -50 13 14
1532260814893193 26 -8 -12 -2 -16 -13 -51 19
1532260814953032 -3 19 7 5 6 11 15 17
1532260815027832 -2 -6 5 -8 0 -4 -3 8
1532260815072712 28 12 1 0 6 4 -13 6
1532260815095651 -9 19 0 -6 -7 -2 -10 -5
1532260815110611 5 7 15 6 5 0 7 12
1532260815177432 1 -57 -3 33 6 0 14 7
1532260815215332 -5 -5 -1 4 0 0 4 -6
1532260815253229 15 0 5 -1 -1 -10 6 3
1532260815275171 7 -12 1 -25 -3 -8 -2 -7
1532260815349971 -8 -1 85 6 -8 12 -3 -1
1532260815394851 -6 -13 7 -21 2 25 -10 -6
1532260815417789 -6 -24 -32 -13 -15 -15 -13 -10
1532260815447709 13 2 -9 -4 -7 -5 11 4
1532260815492589 -28 3 2 2 -2 -5 18 -3
1532260815515528 -5 -20 -5 -5 -4 -5 -14 -3
1532260815560408 -4 9 -5 -4 -1 -2 -16 -13
1532260815605302 2 16 -10 51 13 -6 0 1
1532260815659144 7 8 2 -7 -2 -7 -1 13
1532260815695048 4 -27 -9 -10 -4 -4 2 4
1532260815710008 5 10 4 -10 -3 -1 0 8
1532260815739928 -4 -25 -12 -4 -1 -6 -5 3
1532260815792786 7 -3 2 0 3 0 3 6
1532260815837667 0 -2 3 -5 -6 -1 -4 2
1532260815852627 3 -12 -14 -2 0 -1 2 3
1532260815905485 1 -6 -15 -13 -2 -3 1 7
1532260815957360 4 2 22 1 2 2 0 2
1532260816040125 5 -21 -53 -1 1 4 1 3
1532260816160802 3 14 -7 1 1 -4 5 11
1532260816220642 -3 -40 -62 -27 -17 -7 -17 -9
1532260816257543 6 1 20 6 -1 18 0 -5
1532260816304454 2 14 -59 8 4 1 3 13
1532260816370242 -6 10 77 -22 -9 -4 -4 15
1532260816491917 -5 -1 13 3 0 27 -4 -36
1532260816504883 0 -33 -64 6 4 -6 9 52
1532260816580680 -4 -34 31 -3 -1 13 3 3
1532260816595640 -8 -37 -54 -15 -7 19 -8 -23
1532260816647501 8 20 18 6 0 18 4 -2
1532260816693378 4 43 23 9 10 -42 -8 -65
1532260816715320 -3 -6 5 -1 -9 -23 -5 -42
1532260816745239 12 -13 -48 -7 -1 -9 5 53
1532260816792114 0 11 12 -5 -5 0 3 10
1532260816805088 -8 -18 5 -5 0 1 -1 -17
1532260816835000 1 14 -4 -4 -5 -2 -1 -4
1532260816879879 -19 -2 -16 1 2 3 -2 -9
1532260816917778 -22 -66 4 -1 -1 0 2 2
1532260817000557 5 -13 14 -5 -1 -4 -2 1
1532260817083335 3 -27 4 -5 -4 -3 -3 -23
1532260817105289 14 11 -2 -4 3 42 4 22
1532260817173095 -13 -42 3 -1 -7 -42 -15 11
1532260817203016 21 42 57 21 6 -17 9 16
1532260817262856 5 -10 35 8 8 5 3 -44
1532260817331672 35 11 -7 -18 -6 -15 -4 0
1532260817376552 -7 0 -17 -12 -11 -9 3 15
1532260817435394 -7 76 -12 -2 -2 0 2 14
1532260817480274 -8 -1 71 12 3 -4 -23 -12
1532260817540114 -12 -26 19 -13 -10 -10 -9 5
1532260817592973 -11 -67 -20 -23 -11 -5 -8 -16
1532260817645832 11 -15 125 41 13 12 20 -12
1532260817682733 -11 45 55 -56 -27 2 -11 -26
1532260817721628 -19 -3 21 13 -3 -20 -17 -21
1532260817765511 7 24 0 6 0 -7 10 6
1532260817900151 8 -2 3 19 5 -1 -1 5
1532260817917105 2 7 41 18 -2 0 -2 -1
1532260817939049 -1 13 33 -8 -2 -1 -1 1
1532260818027810 -4 -8 -19 3 -1 0 -6 -1
1532260818194364 -2 15 53 1 -2 -5 0 3
1532260818223287 -2 -10 -25 -10 -3 0 -1 0
1532260818290108 -8 -43 -47 -24 -11 -5 -1 -4
1532260818328008 27 -8 -8 7 6 5 8 26

1532260818441228 8 13 20 12 5 8 5 -4
1532260818478130 -4 5 24 2 2 1 -2 17
1532260818523010 3 33 -5 -12 -2 -1 0 4
1532260818567890 -4 0 -7 -6 0 5 -6 0
1532260818597810 -2 3 -5 2 -1 -7 -1 0
1532260818703226 -2 -2 15 -3 -1 0 0 -3
1532260818718185 1 -11 64 -2 -1 -1 -1 2
1532260818740140 -3 -13 -62 -2 2 -3 0 0
1532260818772042 -4 -3 -22 13 2 1 -2 0
1532260818822905 4 18 -11 0 -4 0 -2 -1
1532260818890724 -2 -8 -19 -5 -3 -1 -1 -1
1532260818957545 11 1 -14 4 1 -9 5 15
1532260819027359 -2 -23 8 -35 -6 3 3 20
1532260819078222 1 -6 -36 -38 -10 -2 -3 6
1532260819167982 2 -4 18 12 2 0 -1 6
1532260819227822 0 1 -10 4 5 4 0 5
1532260819272703 -1 3 16 -6 0 -1 0 -2
1532260819287662 5 2 7 -1 -4 3 0 0
1532260819332543 -2 2 2 -4 -4 0 0 2
1532260819355483 -1 -5 5 24 5 1 -1 -1
1532260819460201 -5 -2 -3 -6 -1 1 0 -1
1532260819535004 5 5 8 5 4 3 0 0
1532260819572900 0 -5 -4 -1 2 2 -2 -2
1532260819602819 -6 1 2 1 -2 -4 -1 -1
1532260819647700 -4 -2 3 3 0 0 -1 -2
1532260819686595 -6 -5 -2 -5 -13 -3 -6 -7
1532260819745438 2 -2 0 -1 6 -10 -6 -2
1532260819805293 1 -4 0 0 -2 -15 -1 0
1532260819844174 1 -1 -6 6 3 3 2 1
1532260819888057 -9 1 -2 -3 0 -9 0 0
1532260819932937 6 -10 2 2 0 -2 1 -2
1532260820060596 -5 7 28 5 -3 -9 -6 -1
1532260820143374 3 7 -16 6 3 2 2 0
1532260820180276 1 -8 44 1 -1 -3 0 3
1532260820225155 23 -44 25 1 0 15 24 7
1532260820375753 -44 -61 69 5 -4 -1 3 -42
1532260820397694 -17 -63 24 9 6 2 -13 -19
1532260820421631 -35 -52 -8 -10 -6 -8 -8 -2
1532260820487453 -40 127 -11 -9 -6 4 8 31
1532260820570233 -19 19 -7 -9 0 -2 -10 -39
1532260820600153 7 5 56 7 3 5 8 7
1532260820630073 43 -6 30 28 1 -3 8 5
1532260820705872 36 0 -22 -10 -2 6 11 45
1532260820744784 -10 5 -9 -14 -9 -16 -23 -37
1532260820765710 17 9 -40 -1 2 2 -5 17
1532260820842504 23 2 16 10 7 6 1 6
1532260820892371 -10 0 -9 -5 -5 -5 -15 -7
1532260820915310 13 0 8 -2 1 6 8 -5
1532260820954206 4 -2 8 0 1 0 -1 0
1532260820969167 -9 -94 13 -4 -3 1 10 0
1532260820990111 -3 -5 14 0 -3 1 -22 -1
1532260821005071 -1 36 -49 -5 -1 -1 9 2
1532260821020030 13 -34 27 2 -1 3 -8 4
1532260821072890 3 -15 -71 -8 -3 -1 -46 -3
1532260821147688 0 -4 -6 -4 -9 -6 -20 2
1532260821170627 3 -1 -17 -8 -6 -6 4 8
1532260821208525 -8 11 62 6 -3 -31 -39 -4
1532260821245427 12 5 -22 1 8 44 10 9
1532260821298285 -3 0 14 -5 -1 -4 79 -8
1532260821358126 -19 6 99 23 5 -89 -99 -13
1532260821424947 47 -3 -1 -9 -9 3 1 -5
1532260821470824 -34 10 8 9 3 9 17 4
1532260821515705 -48 -28 6 -3 -4 -7 -9 0
1532260821643363 -4 7 -54 7 2 -7 -2 -14
1532260821755064 13 2 -22 -9 -3 -21 -5 6
1532260821778003 2 -1 -11 -2 8 -5 -4 6
1532260821807922 36 -4 -12 -20 -7 0 9 4
1532260821852803 -28 -2 -1 7 3 0 -3 -12
1532260821875742 3 9 6 17 7 2 4 8
1532260821935581 -33 7 -7 -8 -4 1 1 16
1532260821965502 7 -2 1 -1 -2 -3 -2 -9
1532260822063240 10 1 0 -2 0 -2 6 -2
1532260822130061 -23 -7 -3 -10 -2 -1 3 -8
1532260822153000 -12 4 -18 12 20 -3 -1 -5
1532260822235779 4 -31 4 117 75 41 3 0
1532260822310579 10 -19 7 -2 10 3 -2 6
1532260822355459 -8 -3 -5 6 8 2 -1 -9
1532260822385379 29 1 -3 -1 8 17 1 9
1532260822475139 4 -7 -5 4 -2 2 2 6
1532260822513038 -9 3 0 0 2 -2 5 -5
1532260822595816 -14 -6 -3 -1 -5 -1 3 -3
1532260822835176 -3 -21 0 6 3 6 8 2
1532260822880056 2 1 -48 9 -7 -21 -4 -4
1532260822897011 2 8 62 6 -1 -13 3 -1
1532260822924935 -5 -27 -128 -17 -6 1 -2 -3
1532260822941908 0 3 -57 -8 0 -2 2 0
1532260822962835 5 5 -11 7 5 6 2 2
1532260822985773 -2 9 -23 2 -8 -3 -2 -3
1532260823180253 -1 -49 93 -11 -6 5 -3 -25
1532260823197208 10 -6 -53 18 3 -2 -3 -18
1532260823240093 -8 -9 5 4 -2 -2 -5 -5
1532260823284973 -20 -28 -8 9 1 -1 2 -15
1532260823322872 -4 65 113 -2 -1 -1 1 15
1532260823367752 -10 8 -17 -4 0 -9 -8 -13
1532260823390691 -12 13 1 -36 -17 -18 -11 -24
1532260823457512 1 -33 -19 -3 0 -5 -5 1
1532260823481448 1 48 15 1 0 1 -1 0
1532260823593149 -8 -65 1 0 2 1 2 5
1532260823757709 8 -6 -89 -18 -9 -7 -8 -5
1532260823780648 -9 -5 32 4 0 0 3 -4
1532260823804583 -16 14 -30 -5 -1 1 3 -6
1532260823862429 19 -13 12 1 -2 -3 -4 60
1532260823961165 3 43 -13 -4 -2 1 -1 10
1532260823990088 -13 -7 17 10 5 2 3 -28
1532260824028984 -2 6 -20 -2 0 0 5 26
1532260824132707 5 -2 -27 -3 -2 1 0 7
1532260824177586 -11 40 -51 3 -2 -3 5 -7
1532260824237426 5 -6 115 1 -6 -1 0 -12
1532260824305261 -3 -9 55 -11 -8 -5 2 -5
1532260824320204 4 45 15 18 6 3 -1 -9
1532260824335165 5 2 -12 19 5 6 1 -21
1532260824373064 -2 4 -19 7 4 0 -2 12
1532260824395021 -3 -75 -14 -12 -4 -3 -1 5
1532260824417943 4 -9 -4 2 0 -1 3 18
1532260824439885 8 64 -36 -3 0 3 4 8
1532260824477783 5 -8 13 -7 -8 -4 1 -12
1532260824522664 -4 13 0 -2 -1 0 0 -3
1532260824567544 -3 -12 -20 -14 -8 0 2 1
1532260824582503 0 -1 -2 -8 -2 -2 0 -2
1532260824605442 -3 0 12 2 -1 -1 0 1
1532260824627384 3 4 5 -12 -10 -2 -3 -2
1532260824665282 -2 -16 11 17 2 1 3 -2
1532260824710162 -1 -15 9 8 1 2 0 0
1532260824733101 2 -2 14 -4 -9 -1 -1 1
1532260824748061 -2 -7 -17 -1 -2 1 0 -2
1532260824777981 -1 -4 1 -7 0 0 -2 -1
1532260824792941 3 18 -8 -13 -2 2 2 2
1532260824814882 0 -5 5 4 0 -1 -2 -1
1532260824837820 -6 -2 -2 -6 -4 -2 -1 -1
1532260824853778 -3 -9 -16 -14 -6 -2 -2 -1
1532260824875719 1 -3 16 39 15 3 2 2
1532260824905639 2 17 16 3 -1 -1 0 1
1532260824935559 0 -8 -6 2 0 -2 -2 1
1532260824965479 -2 -2 -4 3 1 0 0 -1
1532260824980439 1 10 31 10 4 1 -1 -2
1532260825017341 0 -2 11 -2 0 1 1 2
1532260825078178 -2 0 26 1 -1 -1 -2 0
1532260825115079 6 -12 -74 -3 1 -1 1 14
1532260825152978 0 0 28 -2 -5 17 25 -8

1532260825197858 15 -17 -18 9 2 -2 6 35
1532260825220812 7 3 -14 -7 -3 -4 -1 8
1532260825242746 -1 33 77 13 2 2 -1 -18
1532260825272667 2 9 -12 -11 -3 -7 -3 -5
1532260825341474 5 1 -3 30 17 6 1 10
1532260825415277 1 -4 3 1 2 -3 -3 5
1532260825444830 -4 -9 -6 7 1 -3 -2 -4
1532260825557808 1 9 -2 -5 0 0 0 4
1532260825587727 -1 -5 5 0 0 -2 -2 -1
1532260825617651 0 -4 -20 -1 0 1 3 -1
1532260825662528 1 -6 -37 -4 -1 -2 -1 1
1532260825775227 -4 -4 15 1 0 -1 -2 -1
1532260825798165 0 -2 -15 0 -1 0 1 2
1532260825843058 -2 -7 -10 5 2 1 -2 -6
1532260825859003 3 9 6 -2 0 0 1 0
1532260825872965 11 19 2 5 -4 -2 -5 4
1532260825911860 2 -1 7 -15 -6 -2 0 0
1532260825940784 -1 14 22 -9 -2 -1 2 6
1532260825963722 0 3 37 2 2 0 1 2
1532260825985663 18 1 -17 2 3 1 8 28
1532260826022577 -11 -4 -19 -3 -4 16 -3 -30
1532260826098362 -11 -5 30 -2 -2 19 -4 -2
1532260826128282 15 -9 -22 0 -2 -1 -10 44
1532260826151221 -3 12 -55 4 -2 0 -4 5
1532260826218042 -2 -3 -3 7 -1 -2 -3 -4
1532260826233002 -2 10 -7 1 0 -2 -1 -4
1532260826254965 -5 8 4 -3 1 0 0 2
1532260826284864 1 10 0 -6 -1 1 1 0
1532260826316781 2 0 -5 21 14 3 0 1
1532260826352682 0 2 -3 4 8 4 1 -2
1532260826382602 1 1 -5 -6 -2 0 0 -1
1532260826473360 -1 -5 2 -3 -6 -3 -4 -1
1532260826495307 1 0 4 -1 -2 0 0 -1
1532260826519237 5 8 6 0 -7 -3 -2 1
1532260826548160 1 -1 -6 -3 -5 -2 -1 1
1532260826570101 -2 2 6 3 3 -1 -1 0
1532260826659861 2 5 15 1 1 2 1 1
1532260826735658 -3 -9 -6 -1 6 3 -1 -2
1532260826817439 -4 -4 -7 1 2 1 1 -1
1532260826847370 0 5 17 0 -3 0 0 -1
1532260826938116 -3 18 -3 -10 -5 -3 -1 1
1532260826997957 -11 5 3 0 1 1 -3 -5
1532260827065775 19 20 -8 1 0 1 0 11
1532260827117637 -20 -26 -16 -2 -6 -2 8 31
1532260827162517 -6 -26 -2 -5 -1 0 -1 -1
1532260827253274 -64 -14 -2 2 1 -1 1 -13
1532260827328074 19 82 2 -6 -1 0 1 14
1532260827379936 18 -64 -10 -4 -4 3 9 45
1532260827470692 14 90 -25 -4 -10 -9 -5 -11
1532260827507594 22 -81 -5 2 2 -5 -13 -25
1532260827560468 -25 -14 2 2 1 2 16 77
1532260827584389 19 -13 51 -12 -4 0 -6 -35
1532260827598364 42 -4 19 -8 -2 -8 -1 11
1532260827628271 -59 15 -25 -3 -5 -4 -10 -20
1532260827658191 32 4 -6 -2 -2 -3 -2 13
1532260827703071 12 7 -15 -2 -2 -3 -6 -21
1532260827739973 24 -10 11 -7 0 1 -1 -25
1532260827792844 -10 -5 47 4 -1 -3 -10 -32
1532260827860650 -18 0 5 -9 -6 3 -4 -24
1532260827890570 39 2 -27 3 0 12 -8 -29
1532260827912511 -1 -4 2 8 1 2 2 14
1532260827927470 67 -1 7 5 7 3 4 49
1532260827973349 -99 -1 -15 0 -3 -11 -10 -16
1532260828018228 -43 0 -30 -4 1 25 17 39
1532260828072084 21 -4 10 -3 3 27 -6 -73
1532260828102004 -67 0 -25 -4 0 48 19 -5
1532260828129930 -28 -3 -16 -3 -8 -13 -3 -18
1532260828160847 31 4 -24 -8 -5 13 0 22
1532260828190767 0 -2 22 -1 -5 -7 4 -15
1532260828227668 3 0 2 -2 -3 -9 -1 14
1532260828257587 -11 -4 -1 0 0 -4 -8 -6
1532260828348346 0 13 -7 0 -3 -4 -4 4
1532260828378266 -1 -4 -50 -6 -2 -8 1 -4
1532260828453065 -1 -4 21 9 4 0 -1 0
1532260828482986 0 2 -64 -13 -6 3 0 0
1532260828504926 1 3 0 -10 -4 2 -2 2
1532260828535857 5 2 37 -4 -2 3 7 3
1532260828581722 -38 -6 56 0 -4 -4 -6 -6
1532260828617625 16 11 69 13 3 21 -1 8
1532260828655524 6 -3 -53 -6 9 -15 6 18
1532260828707385 0 7 44 5 3 18 -9 -6
1532260828723344 6 1 36 1 -2 -2 -12 -7
1532260828738303 -18 7 6 -7 -6 11 9 2
1532260828760244 -31 -2 -92 -5 5 16 -16 -1
1532260828805126 -19 -13 5 27 3 -5 27 4
1532260828835043 4 1 -10 0 -3 -5 -24 -4
1532260828926798 23 -8 -1 -11 -3 -1 -8 12
1532260828985641 -3 -9 -2 -5 -2 -6 -4 -8
1532260829024543 17 3 -3 -1 2 1 6 12
1532260829060441 10 0 1 2 4 -7 0 -1
1532260829090361 11 -5 -3 0 0 -3 -1 0
1532260829218020 7 -5 -13 5 -4 2 2 16
1532260829239962 4 -4 16 0 5 26 2 -2
1532260829269881 -1 2 -4 6 -2 7 0 10
1532260829292821 -1 -6 1 0 -6 8 0 -7
1532260829315759 -26 -14 -10 -4 0 3 -2 -14
1532260829367620 3 -62 12 24 -1 3 -6 16
1532260829412500 6 11 -7 -9 -1 1 1 0
1532260829435438 4 15 13 1 1 10 4 0
1532260829533177 28 -6 -10 -3 -4 -3 -4 4
1532260829570079 10 1 -5 -9 -5 -9 -3 -1
1532260829614959 -1 -9 72 4 -3 -66 -11 1
1532260829705715 14 1 31 0 -10 -87 -16 -2
1532260829727657 -19 -5 2 -10 -6 -7 -2 -5
1532260829780516 2 -15 -5 8 3 3 1 1
1532260829810436 0 26 3 2 3 -5 -2 -5
1532260829825396 16 6 -12 -10 -3 -3 -4 -4
1532260829863294 8 -4 -33 -11 2 10 2 3
1532260829915156 4 -11 -8 -6 -7 -7 -1 0
1532260829982974 -29 -3 7 7 -1 -7 1 -7
1532260830035833 2 -20 0 2 -5 -4 -6 6
1532260830260233 -2 -5 -19 -9 -9 -7 -3 0
1532260830290153 2 1 21 10 8 4 1 3
1532260830343011 -8 -8 2 -6 0 6 2 -23
1532260830372932 -6 4 -7 2 3 9 -1 -5
1532260830395887 19 1 6 -5 0 11 -2 5
1532260830432772 2 -1 5 -2 -2 -9 -4 -24
1532260830462692 13 -4 -10 -7 -2 -8 -1 5
1532260830492612 8 -7 0 0 -2 -2 8 3
1532260830507571 -5 -8 -12 -4 -2 -16 -13 -9
1532260830545470 5 -4 -52 7 3 12 5 -2
1532260830613289 -9 -21 23 3 -8 -10 -1 -3
1532260830635230 6 38 40 -12 -9 1 -3 0
1532260830680110 -7 -8 -35 -8 -8 0 -2 -2
1532260830724990 0 -4 -36 -4 -8 -21 -5 -3
1532260830754910 -1 -8 -15 9 13 6 1 -2
1532260830822729 -2 -15 -68 -7 1 3 1 -1
1532260830922462 5 11 45 4 3 1 -2 -3
1532260830988286 7 -3 -35 4 9 9 4 -3
1532260831070068 -9 -69 -32 1 -2 -1 -12 -10
1532260831205717 7 42 16 5 -1 46 -12 -14
1532260831221663 -4 21 -20 1 18 37 5 -25
1532260831243603 -44 -51 60 -20 -13 48 -33 -26
1532260831265545 -13 14 20 -4 -8 -49 -9 -2
1532260831304441 6 -40 -16 -8 -4 -4 0 7
1532260831370265 1 10 16 1 -4 13 -1 16
1532260831400184 -9 28 -1 -3 -2 -10 0 -1
1532260831497923 -15 13 5 -2 -2 -3 -9 -17
1532260831521876 -2 -41 -10 -1 -5 -6 3 -10
1532260831587683 3 45 2 -6 -2 3 -2 -8
1532260831647538 -2 -13 -52 -8 1 -8 -3 -5
1532260831662484 16 23 56 2 -6 -10 -2 17
1532260831715341 7 3 7 2 -3 3 5 14
1532260831738309 -15 18 -7 -1 -3 9 -3 -19
1532260831753240 18 27 7 3 1 -5 4 14
1532260831792136 -7 55 27 -2 -7 2 -15 -68
1532260831820062 24 -20 -12 -2 -1 -6 -1 -15
1532260831879902 -16 -35 21 7 -1 10 -3 -50
1532260831925779 25 -26 0 -17 -1 -6 -2 57
1532260832000579 -1 -5 -30 28 4 4 10 -9
1532260832098318 11 3 -55 2 -2 -29 4 25
1532260832135219 -8 12 12 -2 -3 -6 3 -21
1532260832210020 -4 5 22 72 19 2 -3 -20
1532260832262877 -4 16 21 21 14 9 6 3
1532260832346666 25 -12 13 3 0 -15 1 21
1532260832382558 -17 24 -14 -1 -2 -3 3 1
1532260832458355 -14 -13 14 3 0 0 -3 -2
1532260832503235 6 -23 -12 -2 -2 4 -6 -14
1532260832555107 1 -7 3 15 4 0 -2 1
1532260832570057 3 -7 14 -7 -5 1 1 1
1532260832624910 -3 10 10 -13 -4 -1 0 -3
1532260832675774 2 1 20 8 -1 -1 4 1
1532260832720653 -2 8 3 -9 -3 0 2 -1
1532260832795454 -1 1 -3 -11 -4 0 0 -2
1532260832819390 -4 -7 -27 -21 -5 -1 0 -1
1532260832902169 2 -2 -1 9 5 0 1 2
1532260832945054 -1 1 -7 2 -2 0 -2 -3
1532260833080690 17 20 27 8 6 7 2 -3

1532260833110611 14 34 18 -7 -1 -20 -11 25
1532260833147512 3 -12 -41 19 7 1 4 2
1532260833207352 -6 -10 22 8 5 -4 -13 -4
1532260833245251 -1 17 11 -55 -7 1 -3 -2
1532260833275171 -1 5 51 -4 -5 -4 1 1
1532260833313069 -4 -1 -11 2 1 0 -1 1
1532260833387869 -4 5 15 -6 -4 -1 1 -8
1532260833410808 2 -5 -23 11 3 3 1 0
1532260833462669 5 6 0 1 2 2 2 -3
1532260833500568 -1 -1 -5 7 4 -1 0 1
1532260833590328 2 22 48 -3 -4 0 0 -1
1532260833642964 -1 2 11 -13 -5 -4 -2 -2
1532260833740703 3 21 1 -1 0 1 6 -2
1532260833777604 4 -20 -64 8 -3 -3 -7 -5
1532260833807524 11 7 -3 3 0 -20 -3 44
1532260833890303 -18 -7 9 -5 -11 -12 42 -30
1532260833943162 -15 9 7 0 0 -2 -15 -47
1532260834032922 7 14 15 34 9 4 -4 7
1532260834062842 0 -5 1 -6 -3 3 0 3
1532260834152601 -1 2 -16 -14 -3 -4 -5 -2
1532260834190500 -14 3 -6 -2 -6 3 -3 -2
1532260834289237 -4 -4 -4 -10 1 -1 -1 -6
1532260834340100 -2 0 7 17 1 -1 -2 -1
1532260834392958 -5 -2 7 1 -2 -2 0 -1
1532260834521615 0 -2 -6 -4 0 1 1 1
1532260834572479 0 1 3 2 2 1 -1 0
1532260834610378 -2 -9 -12 -2 -3 -3 -3 0
1532260834640301 4 0 0 0 -1 -1 -3 1
1532260834708116 -1 -6 -4 -9 -1 -1 2 27
1532260834782916 -19 -12 -2 -2 -1 -1 -4 -13
1532260834804857 4 -5 -7 1 0 1 -2 2
1532260834842756 -1 2 1 1 -2 0 -3 -3
1532260834857716 6 -5 -2 -2 -1 1 2 2
1532260834910575 -7 -9 -54 -8 -3 2 2 1
1532260834977396 11 4 6 -2 0 2 0 -23
1532260835023273 -2 10 14 -2 -3 -3 1 29
1532260835045215 21 -43 -7 18 9 5 7 56
1532260835083113 8 7 -40 -10 2 8 7 4
1532260835113033 74 -128 29 0 -3 -3 5 -7
1532260835127993 10 -29 -39 -19 -3 -9 -16 -4
1532260835149935 16 32 27 8 3 3 3 19
1532260835277593 11 -60 1 0 -5 -10 -12 -48
1532260835307513 -1 -86 60 10 10 13 18 61
1532260835368351 -2 -3 51 7 6 10 11 -14
1532260835384307 -57 7 22 -3 0 -3 -1 -16
1532260835405251 25 3 3 0 -2 -4 0 -1
1532260835465092 -53 3 27 21 7 2 -7 1
1532260835488030 28 -3 26 3 0 -5 -7 28
1532260835555849 2 -2 -20 -5 -3 2 0 -16
1532260835647603 19 -5 -8 8 -2 0 9 42
1532260835661566 -20 0 13 9 6 -3 -8 -3
1532260835750329 0 -1 51 5 3 4 0 -8
1532260835788228 -11 1 -103 -10 0 1 0 -19
1532260835855049 -5 1 41 2 -3 -5 -10 -1
1532260835907908 0 11 19 8 -3 6 3 0
1532260835945806 0 4 -6 6 5 3 20 3
1532260835975726 -1 -14 -23 3 -5 -15 -12 0
1532260836087428 3 9 42 9 -8 -12 -1 1
1532260836133305 -1 -7 107 12 8 22 -1 -1
1532260836170206 -4 -4 -53 0 -8 -11 -6 -2
1532260836201124 15 7 21 0 3 -9 -8 -6
1532260836216084 5 -4 45 8 2 -3 -5 -9
1532260836238025 2 6 9 5 0 4 -4 -10
1532260836282905 27 -3 30 -3 -4 -1 46 -5
1532260836327785 -3 -3 -12 -4 0 -7 20 15
1532260836402585 -17 -13 -19 4 4 -13 -7 -3
1532260836538222 -9 3 -30 -2 -2 -3 -19 -9
1532260836620003 -27 4 41 -1 -1 1 -3 -10
1532260836665881 -10 1 16 -29 -9 -1 2 -1
1532260836747662 -18 -11 -13 -7 -1 -1 19 12
1532260836771598 22 -12 -7 -6 -1 1 1 -6
1532260836785561 -12 -4 1 -13 -1 -1 -1 -6
1532260836807502 -7 -11 -13 -13 -9 -3 -4 -12
1532260836830441 11 -7 -1 -8 -6 -2 -3 -4
1532260836928179 -26 11 15 1 -3 -2 4 -5
1532260836950121 3 -9 -4 -2 -2 -5 -1 0
1532260837004974 -11 -8 -3 -3 -4 -12 -5 -4
1532260837070798 -6 2 -65 6 10 9 6 -3
1532260837092739 35 6 25 18 1 3 -14 0
1532260837130638 -5 2 90 -2 9 5 3 4
1532260837220397 -13 -16 -4 -34 -16 -5 -2 -4
1532260837265278 4 -6 14 -11 -3 -3 3 -2
1532260837303177 8 4 -1 -10 -2 -1 1 -7
1532260837325118 10 -11 -1 5 1 3 1 -9
1532260837348056 12 -9 -13 -6 -8 -7 -2 0
1532260837369998 -12 5 -3 1 -1 2 -1 -3
1532260837392936 2 3 5 1 -1 0 1 -3
1532260837415875 6 -11 -1 -2 -1 -2 2 10
1532260837505635 -21 7 -2 -5 2 3 6 1
1532260837542536 -1 0 1 -8 -1 0 -1 9
1532260837565481 3 -2 15 -5 7 8 1 -2
1532260837581433 -7 1 -7 2 3 1 2 0
1532260837625315 -2 -3 -8 10 3 -5 -1 -2
1532260837685155 12 32 40 13 8 4 2 4
1532260837715075 -2 11 49 1 0 9 4 6
1532260837791874 3 29 8 5 1 5 1 1
1532260837836750 -9 -13 -28 11 12 20 9 0
1532260837858691 0 6 -4 14 -5 -18 -10 -1
1532260837881630 -4 -1 39 -11 -4 -12 5 -1
1532260837902574 -1 2 -36 -6 0 -4 -5 -4
1532260837948463 2 6 8 8 6 -5 1 0
1532260838023251 -5 -10 16 0 -1 -4 0 -2
1532260838142931 -10 0 -51 -8 -3 -12 -7 -3
1532260838188809 -5 15 66 11 5 -29 1 -11
1532260838202771 15 27 74 8 2 -8 3 5
1532260838241667 15 12 18 -2 0 -9 -7 67
1532260838292531 0 -11 26 16 7 25 -4 2
1532260838315470 4 -41 -75 -23 -5 8 4 -41
1532260838338410 -38 -33 14 6 11 -3 -15 -55
1532260838375310 -21 2 41 3 -3 -2 0 -30
1532260838416201 14 69 -6 1 -6 0 -11 -9
1532260838652568 4 0 -8 30 5 0 -2 -3
1532260838705431 3 -9 16 -8 -4 -5 -7 -13
1532260838729364 1 45 4 -2 0 12 -2 -9
1532260838855026 -29 27 12 4 -3 -14 -3 -48
1532260838952765 -20 -53 -18 -3 3 0 4 -23
1532260839012606 1 11 -18 8 3 2 -1 0
1532260839057485 -12 -62 -7 3 1 -2 1 -1
1532260839118323 5 26 -4 4 3 1 -2 0
1532260839148242 -8 -12 -1 -1 -2 -2 -2 5
1532260839193122 7 -9 -70 -13 -4 -1 0 7
1532260839252963 1 1 -67 6 -3 -1 -4 12
1532260839290861 3 -32 -10 -1 0 0 0 12
1532260839327763 -14 17 21 12 6 3 2 7
1532260839372643 16 17 -77 -4 1 0 1 25
1532260839447443 6 -31 -1 -1 1 1 2 23
1532260839463401 -5 21 -17 9 6 3 0 -7
1532260839493320 -12 11 -21 2 -3 0 -1 0
1532260839538200 0 28 37 7 1 -2 -1 7
1532260839560141 0 -39 6 -7 -3 0 -4 -11
1532260839613000 5 -36 -19 1 9 2 3 7
1532260839649902 -4 -6 10 -7 -1 -1 0 -2
1532260839725709 -2 -2 -3 2 0 0 -1 -2
1532260839772573 0 3 -4 -6 -2 -1 -1 0
1532260839785539 1 -5 11 18 3 0 1 2
1532260839807480 1 16 22 -10 -6 -1 -1 2
1532260839830418 -3 -12 -18 -11 -4 -1 0 -1
1532260839853357 3 6 -5 -4 -3 -1 -4 -2
1532260839905235 -1 5 15 -4 -1 -2 -1 -1
1532260839928157 -4 9 24 -24 -3 0 0 -1
1532260839994978 -5 -26 -37 7 -2 -2 0 -3
1532260840017917 -2 -14 -17 2 1 -1 0 0
1532260840039859 -2 3 8 -2 -3 1 -3 -3
1532260840085735 0 -1 -5 -12 -1 0 -2 0
1532260840107677 -4 -16 2 4 1 -1 -2 -3
1532260840167517 -3 -7 66 3 -1 -1 -1 0
1532260840348034 -15 11 -21 -1 -2 19 20 -4

1532260840535533 0 3 8 -6 6 -1 1 0
1532260840663192 9 7 11 -4 -1 3 3 12
1532260840693112 0 -2 -6 -1 -3 -2 0 -1
1532260840723032 -1 -4 -1 -6 -2 -4 -1 -1
1532260840737997 2 10 19 14 5 0 0 0
1532260840767868 -3 14 2 -3 0 0 0 1
1532260840812748 3 10 63 -1 -1 -1 -1 -1
1532260840850656 0 -1 6 -2 -2 -1 1 0
1532260840895535 -2 -7 -15 7 -1 1 -1 0
1532260840926453 1 13 31 -11 -3 -6 -2 6
1532260840955376 4 12 56 3 1 1 1 1
1532260840970335 -21 3 -4 -8 -3 5 -2 -18
1532260841023195 1 -15 -32 -4 -3 0 0 0
1532260841083034 11 -3 -23 -1 0 -2 1 12
1532260841097994 35 -8 -26 -7 -6 -17 -1 33
1532260841112955 -9 -3 -38 2 2 -9 -7 27
1532260841127915 -14 -7 88 -36 -10 3 3 -22
1532260841142874 -1 -12 68 61 13 4 4 1
1532260841202714 -5 -4 -30 -45 -10 -4 -3 -6
1532260841270533 -8 8 -37 -25 2 4 -1 -11
1532260841405172 0 5 -27 -3 2 1 -2 1
1532260841435093 6 4 9 -12 -1 1 -2 -2
1532260841465013 -5 -4 -17 -44 -17 -5 -3 -2
1532260841494932 1 -1 -4 -1 -2 -1 0 0
1532260841509893 -2 2 2 6 5 -1 0 1
1532260841532832 3 1 -2 -6 -3 -3 1 0
1532260841555772 2 3 -13 2 3 2 0 1
1532260841600650 -2 -7 -5 -16 -5 -5 -2 -2
1532260841630570 -7 -4 -8 9 2 4 -1 -3
1532260841720330 -4 -5 -6 -8 -6 -1 -1 -3
1532260841782164 3 2 1 7 1 1 0 0
1532260841803109 0 1 -8 -11 -12 -3 -2 2
1532260841833028 2 -4 -10 -4 6 0 -1 1
1532260841854970 1 4 -1 4 0 2 -1 1
1532260841900864 -2 -6 -10 -11 -11 -7 -1 1
1532260841937763 -1 0 -2 -4 -3 0 -2 0
1532260841967683 2 1 12 12 0 -2 0 -1
1532260841990622 -5 -9 -21 -8 -2 0 -4 -4
1532260842012563 7 8 6 2 5 -1 0 4
1532260842050461 -5 0 -6 -3 1 2 1 -2
1532260842080381 4 11 -4 1 1 2 0 0
1532260842110302 4 4 -11 4 1 1 1 -7
1532260842133240 9 12 17 8 3 -1 -2 9
1532260842179118 -2 10 18 2 4 1 3 -7
1532260842209037 -8 -21 -21 -5 -3 0 -1 -6
1532260842231979 7 -25 -11 -6 -3 -2 5 3
1532260842254925 -21 5 0 1 0 1 0 1
1532260842276856 7 17 3 -1 -3 -2 3 6
1532260842298797 8 10 1 3 0 1 5 9
1532260842320739 -21 47 -3 1 1 0 -4 -15
1532260842335699 -1 -26 0 0 -2 -2 -1 -32
1532260842380579 -32 3 -8 -2 1 1 -1 -12
1532260842432440 -5 51 7 7 3 1 -9 0
1532260842470338 -8 40 -22 -8 -6 -2 6 7
1532260842523197 69 64 -6 -5 -4 -1 6 49
1532260842553117 -35 -56 -11 -6 -4 2 -7 4
1532260842568078 -4 -113 4 5 4 26 21 17
1532260842598995 -8 -16 3 -7 -4 -3 -16 4
1532260842612957 9 -46 -24 0 -6 -7 -2 3
1532260842634899 -3 -30 -20 -15 -4 -7 -21 10
1532260842657837 13 11 9 -11 4 10 5 6
1532260842687758 -41 28 -14 -10 -3 -13 2 -3
1532260842732637 22 -22 -28 -3 -6 -4 -7 -18
1532260842815416 59 5 18 8 11 18 35 -3
1532260842845336 -89 -2 13 2 2 3 2 -5
1532260842877250 -9 -3 -1 4 1 -7 -10 10
1532260842905182 30 -1 -7 0 1 -3 17 5
1532260842928114 -29 -6 -15 -3 -2 5 6 31
1532260842987955 22 -1 -4 1 0 17 28 -12
1532260843085693 -40 3 -5 -4 -4 -10 -1 -8
1532260843137554 -7 -4 2 3 6 8 -5 -22
1532260843167474 -2 -3 -2 -3 -4 -5 12 12
1532260843198392 -1 18 14 1 -2 -2 -11 -31
1532260843228312 10 11 -4 4 -1 4 4 11
1532260843288152 6 -1 1 5 7 3 12 1
1532260843340013 -11 -52 -74 -8 -1 -12 -3 -5
1532260843392872 -2 -2 14 11 -3 4 12 1
1532260843430770 -2 5 19 -3 2 -12 -5 -2
1532260843476648 -1 -9 -47 -3 -17 -106 -32 -2
1532260843535490 0 -1 25 -5 4 22 28 2
1532260843610301 15 -3 6 5 3 -8 49 -5
1532260843633229 -11 -9 12 2 -5 -4 -38 -16
1532260843663149 5 -7 19 -16 -9 -21 -6 -12
1532260843744930 2 1 -18 0 1 9 -3 3
1532260843797789 -1 -2 -32 1 1 -2 2 -3
1532260843842669 -4 -3 15 -1 -1 8 3 -2
1532260843872590 23 1 4 -1 -8 -1 -38 1
1532260843925447 2 -4 -4 6 7 44 65 0
1532260843947389 -12 -6 31 -12 5 -16 -12 -3
1532260843978306 10 2 18 -1 -3 -17 -6 -4
1532260844015208 -7 1 -61 -28 5 50 0 -13
1532260844053106 9 4 17 -2 -14 -31 -5 5
1532260844077042 -21 -2 1 8 0 -12 24 5
1532260844196723 -10 11 5 8 3 5 -8 -7
1532260844241613 11 5 7 4 2 -2 1 1
1532260844264541 10 3 0 6 -3 -1 36 6
1532260844345325 -7 -1 -7 -12 -4 -5 0 -2
1532260844398183 -1 -5 7 -6 0 1 -3 -2
1532260844487943 -8 1 -8 -24 -11 -9 -4 -5
1532260844525842 18 -2 -6 6 -3 9 -1 3
1532260844556759 6 23 -8 -18 -12 -5 0 -13
1532260844585682 -17 -3 39 -6 0 -1 2 -8
1532260844607623 1 -13 2 -2 -7 -2 2 3
1532260844652503 18 -1 -5 19 1 -2 3 10
1532260844675442 19 -5 -19 -9 -7 9 -6 15
1532260844720322 17 6 -8 -7 -4 -8 -4 -2
1532260844797117 -41 -5 -1 2 0 -1 1 -29
1532260844825042 0 -7 -52 16 -1 1 -2 4
1532260844952701 3 -4 9 -3 -1 12 -3 0
1532260845021517 -6 -3 23 12 -1 1 0 0
1532260845057420 -3 -16 1 -8 -1 -1 -1 8
1532260845081357 -12 -4 -1 -10 0 1 -1 -6
1532260845118258 1 -2 -2 -4 0 0 -8 -2
1532260845140200 -1 0 2 -3 -1 1 -4 0
1532260845178109 -3 -5 -1 -1 0 1 -6 -1
1532260845200039 2 11 2 3 -1 0 0 -1
1532260845267858 -6 1 -13 -14 -6 -2 0 -3
1532260845320716 1 2 35 -8 -1 -19 -3 -1
1532260845351634 -2 10 -3 -1 -2 18 4 -1
1532260845374573 -4 -24 0 -6 -10 -9 0 -2
1532260845432418 0 8 13 4 1 3 5 -2
1532260845493255 -5 5 55 4 -5 -14 -3 -4
1532260845695714 1 1 -2 4 1 11 6 9
1532260845725637 -5 25 26 8 8 -4 -5 12
1532260845762535 16 -3 -36 -5 -4 -20 -6 2
1532260845785474 -5 -55 -5 -37 -7 5 2 3
1532260845830354 -4 -38 -58 -11 -7 -10 -3 24
1532260845868252 -5 -16 -42 -19 -7 3 6 17
1532260845964995 -22 28 51 0 -3 23 -1 7
1532260846002909 -5 -78 20 1 1 5 -3 -9
1532260846167452 3 50 8 -1 -1 0 9 9
1532260846206348 9 12 -5 -4 -5 -4 7 80
1532260846252225 22 65 1 2 1 -1 3 23
1532260846422769 -2 -14 7 -3 1 8 -4 5
1532260846499564 -5 66 15 3 3 5 9 -9
1532260846663127 28 51 45 -7 -2 2 -3 25
1532260846782806 2 14 10 -7 -5 -7 -3 18
1532260846985265 2 67 20 -7 -3 -2 -4 -3
1532260847023164 -16 -37 20 15 -2 -5 6 -16
1532260847038142 -10 -18 -23 4 -1 -8 -21 11
1532260847068044 3 10 -4 -2 0 4 1 0
1532260847089985 3 15 28 9 -1 4 14 -17
1532260847150822 2 17 3 3 -2 0 2 -6
1532260847187724 -6 2 37 -6 -6 2 -1 -5
1532260847247564 2 3 -7 29 3 -1 -2 -1
1532260847285462 -4 9 4 9 3 -2 0 -2
1532260847338331 -3 -16 -18 -23 -5 1 0 -2
1532260847353281 1 13 12 12 2 1 1 -1
1532260847368241 0 -7 15 -3 1 -2 -2 -1
1532260847413122 -3 11 5 6 1 3 1 -2
1532260847428081 -4 -62 -30 -7 -3 -3 -1 -1
1532260847464983 -1 36 9 -4 -4 -3 -1 -3
1532260847502881 0 2 -52 -1 3 2 1 2
1532260847594636 -8 10 -11 1 -2 -3 1 -4
1532260847615580 9 -2 50 0 -1 -2 -7 7
1532260847637538 2 12 2 -4 -2 3 -2 -1
1532260847667441 17 5 17 1 -1 -23 -10 -16
1532260847728278 -6 -9 -47 0 -2 3 7 28

1532260847750224 -19 45 -21 -2 2 -1 -9 -22
1532260847803078 -2 -27 32 -4 2 7 0 -4
1532260847832998 -6 8 -46 10 5 3 3 2
1532260847884859 0 -11 -23 -28 -9 -3 -2 -1
1532260847907798 0 -15 -11 12 -2 -2 0 0
1532260848043435 4 2 10 1 -2 2 -1 1
1532260848075351 -2 -4 38 -23 -2 -2 -1 0
1532260848170097 -3 -1 3 2 -1 0 0 -1
1532260848207996 -2 1 -6 -5 0 0 0 -1
1532260848222658 -4 -5 -14 -3 0 -1 -2 -2
1532260848268966 -1 11 36 3 -4 -2 -2 -1
1532260848304879 -4 4 70 -4 -9 -4 -4 -6
1532260848342770 1 -3 -1 12 2 1 -1 -2
1532260848402616 33 10 8 5 1 12 17 3
1532260848440531 -7 -32 -14 1 -11 -20 -18 23
1532260848492799 -3 0 6 5 1 -12 1 21
1532260848605500 -2 -8 -51 -43 -13 7 5 3
1532260848680298 8 -1 24 17 7 3 1 0
1532260848725178 -1 -4 -32 -11 -5 -4 0 -3
1532260848755111 2 1 3 17 14 5 3 1
1532260848830896 2 4 14 12 6 1 -1 -1
1532260848845856 2 7 2 -3 -3 -3 -1 0
1532260848875775 -2 -11 -19 -10 -2 0 0 -2
1532260848891733 -9 -9 -4 -10 -5 -1 -2 -5
1532260848914672 -2 -3 3 5 -1 -4 -3 0
1532260848935615 -1 3 8 12 1 2 -1 -2
1532260848965535 -5 -11 -7 -1 8 6 1 -1
1532260849019392 1 1 -1 -1 0 -2 -2 -2
1532260849040336 1 13 9 7 1 -1 0 1
1532260849070256 0 2 2 -2 -2 -2 -1 0
1532260849130096 -7 -7 -7 -3 -3 3 -4 -2
1532260849174975 1 1 3 -9 -3 -1 -1 0
1532260849197914 4 4 0 -16 0 1 1 0
1532260849280693 -7 6 2 0 0 0 3 0
1532260849347515 8 -6 5 6 -1 -3 -2 -2
1532260849385413 22 5 11 -9 -4 -1 1 1
1532260849438271 -10 -9 -10 0 -3 -5 -7 6
1532260849483151 -14 0 -1 4 1 2 -2 -9
1532260849507088 -6 10 15 1 -4 1 13 -15
1532260849542991 7 18 -5 2 0 -4 -4 4
1532260849557951 5 -86 -17 -1 -3 -3 -2 -6
1532260849580890 11 28 8 -2 0 5 5 -19
1532260849602831 -9 -27 -7 -2 -6 -8 -13 -12
1532260849685610 4 -8 -60 7 7 9 11 -13
1532260849707551 -34 4 14 -3 -3 -1 -1 -2
1532260849762405 -29 -39 -10 -32 -8 -7 -6 3
1532260849798309 20 -23 -1 1 -5 -8 -7 7
1532260849820250 3 -16 -3 -7 0 3 8 18
1532260849835210 -12 6 14 -11 -7 -1 -3 -3
1532260849880090 16 11 -10 16 3 0 -4 -22
1532260849917989 -22 -23 -14 -9 -4 -4 -7 -27
1532260849940927 -11 8 -6 2 -2 2 1 3
1532260849992789 12 2 -9 -2 -2 2 8 12
1532260850067589 4 0 -11 -3 -4 4 -6 -12
1532260850090527 3 2 -15 -3 -2 50 -13 24
1532260850112469 -46 1 -8 -3 41 57 37 20
1532260850135407 9 10 12 0 -20 -22 -10 15
1532260850165327 18 -5 1 4 23 13 13 17
1532260850227162 14 1 -1 -8 -6 -3 -32 0
1532260850270047 18 0 20 -4 -9 -6 0 -8
1532260850307945 -14 -3 11 1 -8 -11 -6 15
1532260850330885 -30 0 -5 3 9 2 -19 -27
1532260850345862 2 -1 -8 -1 -6 6 -7 -6
1532260850375765 -2 -62 -8 -2 2 -1 0 1
1532260850390725 9 -19 8 -4 -8 -14 -10 -2
1532260850420644 0 20 -4 -5 -5 -21 -32 3
1532260850450564 -3 -8 -5 -2 7 16 15 -3
1532260850472519 -6 -2 -33 -5 -8 3 6 -2
1532260850495444 -13 19 13 -3 -2 -28 -7 -2
1532260850517386 12 1 22 9 9 21 0 0
1532260850534340 -1 -12 5 10 2 -12 20 2
1532260850630085 6 5 -18 18 15 7 15 11
1532260850653023 3 -3 -46 -6 -9 -33 -17 0
1532260850667983 -20 -4 -6 -6 12 37 5 -6
1532260850697903 13 20 -1 1 -7 -40 -3 -7
1532260850719844 35 -20 -110 -9 -5 -46 18 33
1532260850736799 -5 6 46 6 0 -12 -1 -7
1532260850757743 10 13 47 5 1 11 1 25
1532260850802623 69 20 56 10 1 16 13 26
1532260850825562 58 15 31 1 26 6 28 7
1532260850939276 46 4 -7 3 1 1 3 14
1532260850953220 -11 -2 -1 -15 -4 27 -6 -9
1532260850992116 12 10 -4 3 0 7 -4 -2
1532260851028023 -22 10 36 3 -1 22 3 -3
1532260851102820 0 -4 -11 -7 4 -2 -4 -1
1532260851140719 -6 3 3 -27 -72 -19 -8 0
1532260851162677 -5 -4 5 -10 -7 -3 2 8
1532260851179614 -1 -4 18 5 35 -14 -8 -4
1532260851200559 -10 -34 -29 -30 -32 7 -10 -7
1532260851238462 -15 -42 -22 14 1 -26 -4 -7
1532260851267380 6 20 11 0 3 6 -3 3
1532260851305280 -18 -21 -3 -3 -10 -1 0 -14
1532260851403017 -1 -17 -8 -6 -3 -6 3 2
1532260851456874 9 -4 -1 -1 -13 -3 -6 7
1532260851479812 -5 18 -2 0 -1 28 7 -3
1532260851507738 -7 -26 -2 3 19 5 18 26
1532260851537657 -53 -18 13 63 93 2 -6 -7
1532260851567578 8 -18 -5 26 5 -18 -2 -5
1532260851673294 14 10 -4 12 16 6 3 0
1532260851718175 -11 9 4 -3 1 10 -7 -8
1532260851757070 7 4 -1 3 -1 4 3 -2
1532260851784996 1 -6 3 6 4 3 0 -9
1532260851845834 -4 6 4 0 0 20 3 2
1532260851905674 -5 31 4 2 0 4 3 4
1532260851935593 0 5 -1 -6 -4 -18 -5 0
1532260851987455 -7 -1 2 3 6 2 0 -4
1532260852025353 13 -11 -4 -19 -10 -10 -1 -1
1532260852048292 -2 -6 1 19 24 9 3 0
1532260852093172 -1 2 -9 10 -3 10 4 2
1532260852123092 -7 -7 -20 -9 0 -2 6 0
1532260852235791 -3 29 50 -2 -3 -11 -1 2
1532260852257731 4 12 23 5 -2 21 -17 6
1532260852295631 -2 7 28 5 -4 -23 -7 -2
1532260852332540 -9 -7 -41 -8 -1 -18 -3 -6
1532260852347492 3 -4 27 7 2 -17 -2 0
1532260852408330 -2 10 23 10 8 -2 0 -1
1532260852460190 2 3 -6 -2 -3 -15 -2 3
1532260852505079 4 0 -51 -3 -5 -6 -2 -2
1532260852572889 2 17 42 4 -3 -8 -1 -4
1532260852595828 -1 -3 7 4 4 -2 -3 0
1532260852647689 -9 12 42 -13 -14 -18 -10 6
1532260852670628 10 29 25 5 -1 2 0 3
1532260852722489 -20 -15 21 -8 -5 -5 -7 -60
1532260852745446 -5 -30 -83 -18 5 -11 2 3
1532260852867102 -2 35 42 19 -1 7 -1 12
1532260852890041 11 -1 14 6 8 12 6 19
1532260852926943 -16 -42 6 2 2 7 -5 -41
1532260852955865 17 15 6 9 6 11 9 46
1532260852992766 4 16 12 2 3 5 5 -1
1532260853015705 -4 78 -11 -5 -4 -4 -7 -13
1532260853067566 7 -91 -18 1 3 1 0 -4
1532260853174281 2 87 -5 -4 -1 0 2 0
1532260853197219 12 -10 -1 0 -1 0 4 55
1532260853233124 0 10 0 0 2 2 -2 6
1532260853459555 24 39 -1 -12 -3 1 3 27
1532260853495459 -2 15 38 3 -2 0 -2 -7
1532260853593197 18 27 -1 10 -2 2 9 10
1532260853674979 -2 -3 68 -13 2 -4 4 0
1532260853714872 -6 -33 75 -2 -1 2 -1 -16
1532260853728835 -1 36 -38 3 1 -3 -8 -2
1532260853772717 -9 13 -19 3 -7 -3 -11 -78
1532260853795667 3 -29 -38 18 7 -2 -1 9
1532260853825576 -13 2 9 -2 2 -6 -3 17
1532260853847517 -8 -7 0 -27 -9 -2 -2 -18
1532260853900375 -4 -16 42 -11 -1 -5 -1 -3
1532260853938289 1 9 4 -10 3 -4 -2 -8
1532260853960216 -2 -9 2 -18 -10 1 -2 -4
1532260853975176 6 -9 19 -14 3 -3 -6 4
1532260853998115 4 -12 -14 -21 -22 -6 7 -2
1532260854020056 -13 -1 6 -4 -5 -2 -20 -6
1532260854049976 26 16 -7 20 1 -2 0 0
1532260854064936 9 -1 2 -1 -4 -1 2 6
1532260854102835 -4 -5 1 1 1 -1 2 2
1532260854125773 -1 -6 -29 -9 -4 1 0 -3
1532260854147715 3 17 40 18 7 1 2 2
1532260854177634 2 -8 14 8 -2 0 0 0
1532260854269389 1 -5 -6 -10 -6 -1 0 0
1532260854291331 -1 -1 0 8 2 -1 0 -1
1532260854313272 -3 -1 -5 -6 -3 1 0 -1
1532260854365133 -1 10 55 -6 -1 -1 -3 0
1532260854410012 -4 -6 -5 -1 -3 0 -2 0
1532260854447911 3 -26 -12 -1 -3 -1 -3 -1
1532260854477832 -6 -5 -25 -6 1 0 0 1
1532260854507752 5 6 -2 0 -1 1 1 -2
1532260854539666 -4 -6 20 4 2 0 -3 -1
1532260854590530 15 2 -11 6 0 1 3 3
1532260854612471 -10 39 44 12 11 2 5 -32
