1532259928163653 -12 -12 0 1 2 2 3 1
1532259928185595 -12 -12 28 21 33 13 7 0
1532259928230474 13 -1 -5 -5 -10 -6 0 1
1532259928309263 9 17 -2 -2 -1 -2 -2 2
1532259928328213 -3 -22 0 3 0 1 -4 -5
1532259928500751 11 15 13 2 -3 0 3 16
1532259928560591 -1 -23 8 -4 0 0 -1 -7
1532259928584527 -3 -4 -7 -2 0 0 -2 -2
1532259928800948 -1 -7 0 -4 -2 -2 -2 -1
1532259929264708 -8 -13 7 -17 -6 -3 -2 -1
1532259929362447 -1 -7 0 -7 -2 0 -2 -2
1532259929484124 -15 -17 -6 0 -2 0 3 1
1532259929574879 -8 -22 -4 1 -1 -1 -6 -21
1532259929580863 -10 -5 -8 0 -1 0 -3 -27
1532259929624745 8 3 -2 -2 -2 -1 -3 9
1532259929647684 -19 -25 2 0 0 0 3 3
1532259929662643 14 -25 0 -3 -1 -1 2 31
1532259929719495 26 7 2 0 3 2 3 9
1532259929760383 -20 -52 -3 1 -4 -3 -5 -13
1532259929813241 2 20 -3 -4 -4 -3 -2 -5
1532259929844158 20 14 1 0 3 1 -4 12
1532259930120420 -2 9 1 5 2 -20 -9 2
1532259930173278 -3 4 1 18 -12 -3 23 7
1532259930202201 -10 -44 -14 2 0 -6 -22 0
1532259930248079 2 -22 -11 -21 4 8 69 14
1532259930309914 -1 2 -10 -1 -17 -28 10 -7
1532259930441561 9 12 -2 -4 -10 3 -8 12
1532259930473476 -7 2 32 -3 -4 0 6 0
1532259930609139 7 12 37 4 1 -2 -13 -7
1532259930827556 17 31 -11 -5 -4 -20 -4 28
1532259930892382 -9 3 -23 3 3 1 -2 -7
1532259931089854 -3 16 -12 -4 0 4 -1 0
1532259931163657 1 22 -9 4 -2 -5 53 -3
1532259931298297 -4 9 4 -1 -1 -7 3 7
1532259931338209 0 9 27 4 -3 -4 3 -6
1532259931373097 -9 -6 20 0 -2 -5 -15 14
1532259931417977 0 -7 12 1 1 5 18 9
1532259931560595 5 19 15 4 3 1 3 2
1532259931613454 0 -33 -29 -5 -1 1 -1 0
1532259931710195 13 10 17 1 -2 -2 0 1
1532259931785993 -15 12 17 5 -1 0 -1 -7
1532259931821896 11 -14 -4 -1 -2 -1 0 -11
1532259931853812 -10 -16 35 0 -3 -3 -2 -1
1532259932010392 4 -5 -8 -6 -1 -1 2 3
1532259932047294 -1 -14 -9 -20 -6 -1 -1 1
1532259932166973 33 -19 -20 -2 -3 -5 -3 2
1532259932190909 2 -3 9 0 -1 1 -2 -4
1532259932250750 2 -2 10 -1 -1 0 -3 -1
1532259932280670 -29 1 8 1 4 4 -1 -6
1532259932295630 -13 -6 -5 -6 -3 -2 2 8
1532259932340510 1 -22 -14 1 -1 0 10 -3
1532259932393368 -15 -93 -37 -2 -2 -1 12 10
1532259932415309 -7 18 -33 0 -2 0 -3 9
1532259932460189 -6 -3 18 1 -3 -1 -3 -1
1532259932467171 -13 -11 13 -17 -6 -1 -1 -3
1532259932482131 -10 3 13 1 -2 -2 -3 -8
1532259932513048 4 28 23 7 1 0 -1 4
1532259932550947 10 -8 -7 24 7 -9 4 -3
1532259932578872 -43 14 16 -29 -7 75 21 -9
1532259932620761 17 -12 12 22 2 -38 -11 -3
1532259932632728 31 5 -40 20 1 -3 4 4
1532259932729469 -10 10 31 -5 -3 -4 -4 -10
1532259932753406 -15 -35 4 -4 -5 -11 2 -85
1532259932789309 -6 -93 5 -4 0 2 1 5
1532259932873085 4 -42 -7 3 1 1 -1 3
1532259932932926 4 24 11 20 6 4 2 0
1532259933023690 6 -9 -40 16 3 1 2 3
1532259933164306 -18 1 42 -1 -3 -1 2 -3
1532259933233123 -16 -17 -21 1 -2 -3 1 -6
1532259933300941 -2 -76 -12 2 2 0 3 11
1532259933315901 -5 126 -7 -1 -1 -3 1 2
1532259933366765 4 -4 3 -2 0 0 -1 -13
1532259933436579 1 2 -13 -39 -7 -4 -3 -1
1532259933449544 5 -11 -29 -27 -10 1 1 0
1532259933578200 -17 -4 -61 2 -2 -2 -2 -7
1532259933638044 8 -10 -33 2 -1 -1 0 5
1532259933795619 0 18 -8 -4 -2 -3 1 1
1532259933855458 -12 -24 -25 3 2 1 0 0
1532259933891362 19 -33 -3 -6 0 -4 -2 -1
1532259934140712 -7 2 -4 0 -1 0 -2 -5
1532259934199538 -2 -22 -1 -6 -2 -3 -2 0
1532259934260376 -7 -27 1 3 2 0 -1 0
1532259934501730 -1 -9 -3 0 0 0 -2 -2
1532259934544616 -2 -2 1 -7 -1 -1 0 -1
1532259934574536 5 4 4 -8 -2 1 1 1
1532259934628392 -4 12 12 -19 -7 -3 -3 -3
1532259934643352 3 5 -4 -3 -2 0 1 -2
1532259934675266 0 11 16 13 3 2 0 1
1532259934690238 -3 -25 -2 -3 -2 -1 -2 0
1532259934709176 -2 -2 2 -6 -4 -2 -1 0
1532259934740093 1 7 3 -1 -3 0 0 1
1532259934763043 0 33 -30 -8 -4 -1 1 -1
1532259934800930 -10 37 -18 2 3 0 1 2
1532259934830850 -8 5 -3 2 3 4 -4 14
1532259934860770 7 9 4 2 -4 -29 18 2
1532259934882729 -4 -47 -9 -9 -2 16 13 -19

1532259934907645 -10 -36 -10 -6 -12 -40 -12 5
1532259934934573 -6 28 5 -3 -5 2 -11 3
1532259934958509 3 38 -16 -9 -2 15 -5 -1
1532259934980450 3 -6 -3 3 2 5 -2 -2
1532259935025330 3 -1 1 -8 -4 -11 -2 -4
1532259935085170 2 19 -10 -5 -2 0 -2 0
1532259935108109 -5 -32 -4 -2 -2 -2 -2 -1
1532259935160967 4 3 1 2 3 0 -1 0
1532259935219810 -3 -6 -4 0 0 3 -1 -3
1532259935280647 1 22 5 1 0 0 -1 0
1532259935309570 -4 -12 -13 1 1 1 0 2
1532259935400327 1 -4 -5 -1 1 -1 0 0
1532259935452189 0 3 -2 -3 0 -1 0 -2
1532259935557906 1 1 2 0 -1 -2 -1 0
1532259935580845 -2 -4 -6 -1 1 0 -2 -2
1532259935617745 0 16 1 5 -1 -1 0 0
1532259935678583 3 4 -2 -2 -5 -4 -3 -1
1532259935725458 0 2 5 -1 0 2 -2 -1
1532259935746402 1 1 -38 1 -2 -3 -2 -7
1532259935835164 4 -78 -10 1 7 -1 -1 42
1532259935864087 10 32 18 2 5 9 2 7
1532259935895004 -12 -5 -4 -5 -5 -3 2 5
1532259935925922 -5 38 13 -10 -10 -2 -1 -1
1532259935934898 0 37 -65 -21 -15 -2 -3 -7
1532259936000722 0 -1 7 -3 -2 -5 0 3
1532259936022663 2 0 27 6 6 -1 4 -37
1532259936036626 -3 12 -4 4 -1 2 2 -3
1532259936091479 -5 -2 12 -5 -3 -1 -3 6
1532259936128381 -2 16 10 3 1 3 -2 -4
1532259936211159 -2 -6 16 12 6 3 1 -1
1532259936225122 1 -9 26 36 6 -2 -1 -2
1532259936286956 0 -5 4 -6 -5 -2 -1 1
1532259936298924 2 17 17 -8 6 0 -1 -3
1532259936314882 2 -19 19 6 0 5 0 0
1532259936359762 -7 4 -11 -3 2 -3 -1 0
1532259936376717 -2 3 -6 3 2 1 1 1
1532259936413618 2 8 9 3 3 2 1 0
1532259936419602 0 19 6 26 18 4 -1 1
1532259936441548 0 -3 -13 -7 -5 -2 -1 -1
1532259936479442 -4 -14 -1 -9 1 -1 1 0
1532259936505373 -1 -3 -17 -2 2 0 -1 1
1532259936532300 -4 9 2 -8 -4 -3 -2 0
1532259936554242 4 -1 -2 -1 -4 -1 1 0
1532259936586168 2 3 2 -6 -3 -1 0 5
1532259936608098 -2 -13 -10 0 -2 1 -1 -1
1532259936622060 -2 19 2 0 2 -1 0 -4
1532259936652978 2 14 -7 5 0 -1 0 -1
1532259936682898 3 -11 -3 0 -2 0 0 2
1532259936826514 -12 -38 -7 0 0 -1 -3 -5
1532259936930236 -3 2 -1 0 2 1 -1 4
1532259937514673 11 24 9 -4 -12 -14 -17 -2
1532259937597452 -11 -51 -20 -14 -27 -3 7 -4
1532259937667265 -3 2 -1 4 12 1 4 -11
1532259937726108 -2 -18 -1 6 10 5 2 3
1532259937748049 2 0 3 -6 0 0 -1 -6
1532259937824844 -5 -10 -1 0 1 -9 -2 -12
1532259937845802 12 -25 0 -3 -3 -1 0 13
1532259937889670 -2 -6 -3 0 0 -2 2 -11
1532259938001372 3 -26 -24 -5 -10 -7 9 -6
1532259938071186 0 -9 -1 -5 1 1 0 14
1532259938169921 -5 6 6 -1 -1 -6 -9 -31
1532259938445185 7 -20 -55 -8 -5 -4 -1 -3
1532259938498044 -37 -20 17 2 4 1 -7 -106
1532259938588802 6 -6 57 6 -1 -2 -6 -8
1532259938767324 -2 -1 16 -1 -1 -7 1 -67
1532259938804226 -18 13 18 1 0 0 -23 13
1532259938925900 -5 17 12 1 -2 0 4 4
1532259939113398 -3 -55 1 -7 4 2 1 0
1532259939127361 0 24 -27 -15 -2 -1 -3 -1
1532259939187201 -12 13 42 8 0 -1 -13 -9
1532259939211137 10 -18 -42 -3 -4 -3 -3 4
1532259939262001 -19 21 -67 -1 5 3 1 2
1532259939330817 -19 -7 4 5 -1 -1 0 -4
1532259939426561 -2 -29 -52 1 3 3 1 -3
1532259939494379 -10 4 -16 -4 0 -1 0 -6
1532259939518316 -7 -9 -23 -28 -19 -10 -3 -6
1532259939564193 4 25 -14 11 5 2 3 -2
1532259939573168 4 3 10 -5 0 -2 0 0
1532259939607078 16 -20 -15 -9 -8 -4 -6 -3
1532259939631014 2 3 6 7 -1 -4 -1 7
1532259939758679 -7 32 26 -1 -3 -1 -3 -33
1532259939773639 5 12 -6 -3 -3 -2 -1 1
1532259939842455 -12 -111 -11 -3 -1 -1 -2 -3
1532259939849437 -4 -2 2 2 2 1 0 4
1532259939900301 4 9 3 -17 -9 -3 -2 2
1532259939916258 4 18 2 -36 -13 -4 -2 2
1532259939953159 -4 -12 -7 -7 -11 -1 0 -1
1532259939975100 7 0 -17 -1 4 1 0 1
1532259940026962 13 11 -17 17 4 -2 -1 2
1532259940095777 -21 10 3 6 7 5 4 -13
1532259940155619 -21 21 12 1 2 3 1 -13
1532259940185551 16 9 9 -3 3 -2 0 3
1532259940253356 -8 2 30 5 -3 -4 -1 5
1532259940290257 1 -8 -20 2 5 2 1 2
1532259940313196 -2 -3 24 -14 -4 -2 -1 3
1532259940373036 -8 2 1 45 10 4 4 1
1532259940395975 9 22 36 -5 -5 -1 -2 4
1532259940440855 -4 -6 50 -3 1 0 2 1
1532259940529617 -59 14 11 4 4 1 -1 -7
1532259940649297 4 -11 -3 -7 -6 -4 -2 6
1532259940777953 -5 0 -13 10 8 5 -1 -1
1532259940791916 5 -14 -27 -20 -13 0 -3 -2
1532259940852753 4 7 -13 2 -4 -13 0 0
1532259940935532 -15 6 11 -32 -11 -13 -5 -4
1532259940995371 21 -5 0 -1 -3 -6 -1 0
1532259941055212 -30 36 -2 0 -4 6 -2 0
1532259941197831 -4 -16 80 -14 -4 -7 1 -2
1532259941219772 0 11 -6 1 1 -2 -3 1
1532259941271634 1 -1 -13 -17 -14 -3 -1 0
1532259941294572 -3 -2 -11 14 6 -4 -2 0
1532259941317512 -6 -1 -4 11 1 -1 -3 -4
1532259941475089 5 -5 6 -2 -5 -1 -2 -4
1532259941617708 16 -7 2 0 -2 -2 -2 1
1532259941640647 6 2 0 2 2 3 0 -1
1532259942060523 11 5 -5 2 0 -1 0 -4
1532259942105404 -5 -12 5 5 -22 2 -1 -1
1532259942180204 22 -12 2 -3 1 0 2 5
1532259942202145 9 50 4 -3 -1 -2 -1 1
1532259942241041 -11 16 12 0 -4 -3 4 8
1532259942262982 -1 -33 16 2 0 -8 -16 -36
1532259942300881 -82 11 -7 3 0 -40 -1 -15
1532259942328806 -13 11 27 -8 2 -7 8 -11
1532259942382662 -7 14 6 -18 -7 -4 2 -5

1532259942457462 -2 2 -5 1 1 14 0 -6
1532259942480401 2 22 7 -1 -1 -4 0 -2
1532259942540241 3 -4 0 -2 -2 -4 -1 -3
1532259942659921 -8 -17 25 -2 -4 -4 -1 -3
1532259942742700 0 -4 0 0 -1 -1 0 -1
1532259942779634 2 1 -3 -1 -1 -2 0 0
1532259942794594 -4 -16 -2 0 0 -1 -1 0
1532259942854682 -3 -6 1 -2 0 -1 -1 0
1532259942877621 -2 -15 -2 0 -1 1 1 -1
1532259942899561 2 -11 -5 -1 -1 1 1 1
1532259942937478 0 12 -1 0 -2 0 -1 1
1532259942960399 -12 3 2 -1 0 -1 0 0
1532259942999295 -8 11 0 0 0 0 1 1
1532259943020250 3 -3 -1 0 -2 -1 -1 -1
1532259943080079 -1 7 0 -2 -2 -2 -1 -6
1532259943103017 -3 -2 0 0 2 0 -1 5
1532259943117977 3 15 0 0 -1 -1 -2 -1
1532259943162863 -6 -11 6 0 0 -1 -1 0
1532259943223700 5 -6 18 -2 -4 -3 -1 12
1532259943259604 4 -37 1 5 18 45 -4 26
1532259943282576 5 27 9 2 4 9 10 -23
1532259943297536 -6 7 -16 -11 -9 -37 -14 -43
1532259943350395 -6 26 50 -15 -4 -3 7 23
1532259943372337 5 0 105 -26 -7 0 2 -15
1532259943425195 -4 32 -6 18 4 -1 -1 5
1532259943463094 -6 -40 -8 -3 1 0 0 3
1532259943582773 3 10 3 6 0 3 1 0
1532259943627654 -15 26 1 -2 0 -1 0 -1
1532259943643611 3 -7 -2 9 -1 -4 0 2
1532259943703451 -3 -17 -2 -10 -7 -3 -1 -2
1532259943763290 -3 -6 1 3 5 -1 1 0
1532259943792214 -1 3 7 1 -1 -2 -2 0
1532259943837094 -1 12 24 6 5 6 11 0
1532259943860032 -1 -2 -1 -3 -9 -3 -4 0
1532259943942811 0 13 -3 -11 -12 -5 -3 0
1532259943980709 2 20 10 -11 -10 -6 -4 -2
1532259944003648 1 -13 9 -4 11 4 2 0
1532259944085429 2 9 1 -9 -4 -2 -2 -1
1532259944264950 -2 -24 3 1 -2 0 3 -3
1532259944325794 -17 -4 -3 0 0 0 -3 -17
1532259944385627 -3 6 0 -4 -1 1 4 2
1532259944483366 -2 22 0 0 1 -2 1 -28
1532259944528246 -26 -11 -8 -1 0 3 -3 -30
1532259944603048 4 -28 13 -11 -2 -4 -3 12
1532259944680838 -10 -9 2 -8 -5 -4 6 21
1532259944804506 14 15 0 -2 -4 -1 1 19
1532259944895264 -6 2 4 3 3 1 -1 -10
1532259944972059 -12 -2 -4 2 0 -3 0 0
1532259945046858 -5 -15 10 -5 -1 -1 -1 5
1532259945059824 -25 13 -46 -2 12 -6 -62 -17
1532259945098720 -7 -29 5 -4 -17 2 17 0
1532259945158560 3 -8 -22 33 -3 1 -13 4
1532259945225381 -11 -55 -8 -11 -5 -2 -15 -60
1532259945248320 -19 -5 38 -9 -9 0 -16 15
1532259945310155 31 6 -3 -2 1 0 -10 56
1532259945427840 8 2 29 4 3 -3 -2 -51
1532259945488677 -4 -84 -3 -3 -11 1 -25 -15
1532259945644261 0 -30 -7 5 2 6 8 18
1532259945737013 9 -1 0 2 1 -6 -9 -10
1532259945787892 2 5 3 0 3 3 4 63
1532259946015269 2 26 20 -3 -1 0 -32 -10
1532259946104033 -19 -41 29 2 -1 -1 7 -17
1532259946128965 -4 4 -32 2 1 4 10 -14
1532259946224708 5 -12 -6 -1 -1 0 -2 -2
1532259946291530 -5 -15 0 -2 -1 -2 -31 -24
1532259946364335 1 -2 -2 -1 -2 -2 -3 -7
1532259946515930 -1 -16 -10 11 3 0 -1 -1
1532259946530890 3 52 26 -2 1 0 1 1
1532259946629644 -3 17 1 -6 -1 0 1 -1
1532259946641594 4 -28 1 -9 -3 -1 -5 -6
1532259946695450 -5 -35 -19 -2 -2 -1 1 3
1532259946756287 -11 -1 -11 -2 4 -1 0 -1
1532259946770251 0 0 14 2 0 -1 -3 1
1532259946846047 -4 -31 6 -3 -4 -3 0 2
1532259946905887 -6 -49 -16 -18 -11 -5 -2 -2
1532259946911872 5 20 -36 -20 -2 0 0 2
1532259946972710 38 -43 3 -10 -6 -4 1 7
1532259947033546 5 -4 0 -1 -2 0 6 14
1532259947046511 -10 -19 1 0 -4 0 -4 69
1532259947070448 -22 -1 24 0 1 2 3 -8
1532259947123318 -6 20 21 5 2 2 6 20
1532259947153226 12 86 -13 -1 3 1 1 2
1532259947176165 9 -18 41 -10 -1 1 0 20
1532259947213066 8 -7 -26 3 10 1 0 -3
1532259947236005 -2 21 11 -10 -14 -8 -8 -4
1532259947251962 0 -20 -37 17 4 1 -1 0
1532259947286869 -9 -1 77 17 -1 0 1 -3
1532259947310805 4 0 35 -10 -4 -1 1 3
1532259947393583 -24 1 16 -10 -4 0 -2 -6
1532259947431482 -1 1 0 -4 -5 -2 -2 1
1532259947527226 -1 4 1 1 -1 -2 -2 3
1532259947587067 -12 0 -43 4 -1 -1 -2 -5
1532259947638932 -1 0 20 -2 -2 -1 4 24
1532259947692783 1 -15 0 26 21 6 1 -2
1532259947775562 -3 -3 40 -12 -2 -18 -8 -5
1532259947835402 -13 8 -25 -28 -18 -2 0 2
1532259947856346 4 17 6 12 -2 1 1 -5
1532259947875295 35 -13 27 -7 -9 -4 -3 11
1532259947897251 6 3 -21 2 4 2 1 3
1532259947918193 -6 15 -4 7 4 -1 -1 -10
1532259947935135 -38 23 22 12 7 3 -3 -19
1532259948052820 0 27 15 0 -1 -4 0 0
1532259948089722 3 2 -18 -14 7 4 3 -3
1532259948135599 1 9 -57 -12 -14 -8 -3 3
1532259948173498 8 1 -6 8 11 -15 -15 0
1532259948278234 -14 1 -65 0 15 9 6 -4
1532259948346037 0 1 -2 1 2 4 9 46
1532259948388922 6 0 13 0 1 1 -3 9
1532259948412858 1 1 11 -7 -4 4 1 1
1532259948435796 11 4 6 -2 -2 17 3 8
1532259948495636 -3 2 5 2 -4 -16 -4 -3
1532259948531540 -3 -6 0 -7 -12 -10 -4 -4
1532259948591380 -3 0 8 -6 -10 -17 -4 -5
1532259948938475 6 11 1 -14 -6 -2 0 0
1532259948998294 -3 -13 -2 0 2 -2 -1 -1
1532259949058132 -6 -22 3 1 0 -2 -2 -2
1532259949229673 -4 34 7 1 -1 -2 1 0
1532259949297493 6 7 -9 -2 -4 2 -1 2
1532259949320430 -31 -59 -1 -3 -3 2 -2 -8
1532259949343370 15 2 -10 -8 0 3 0 3
1532259949396228 16 20 6 6 2 0 -1 2
1532259949410191 -10 -18 19 -5 -3 0 -2 -4
1532259949441108 -1 -34 -22 -1 5 -23 -18 11
1532259949536852 -13 26 -19 -7 -9 -10 0 -21

1532259949559791 13 13 30 -5 -10 -22 -9 -14
1532259949582730 -21 -9 -20 -1 -7 -1 -4 -10
1532259949605668 -31 -5 -9 14 4 6 0 2
1532259949657529 -26 3 3 7 0 -5 0 -4
1532259949688446 6 -9 -24 -15 -4 -1 2 0
1532259949717369 1 8 -11 -5 -3 -4 4 1
1532259949749284 -1 7 -1 -1 -3 -2 0 -1
1532259949785188 2 -5 2 -3 -3 -9 -5 -3
1532259949859988 -2 -21 -2 1 0 1 -2 -5
1532259949919828 3 6 -1 1 0 0 -2 -3
1532259950003605 -3 -16 -4 -1 1 1 0 2
1532259950077407 -4 -4 -2 -2 -2 -3 -1 -2
1532259950100345 -1 25 4 0 1 1 1 -3
1532259950115305 2 -19 -8 -2 -1 1 -1 1
1532259950168164 1 -8 -4 -1 -1 0 -1 -2
1532259950221023 0 18 7 0 0 -1 -1 0
1532259950234984 -3 8 -3 -2 -1 2 1 0
1532259950281860 3 8 -6 -1 -1 -1 0 -1
1532259950294825 -1 -5 -1 -2 0 -2 -2 -2
1532259950346686 0 3 -9 -9 -3 1 0 4
1532259950369625 -2 2 -1 -2 -2 -2 0 4
1532259950406527 3 19 13 -2 1 8 3 26
1532259950429465 17 12 -6 0 -2 -15 -1 7
1532259950474345 14 -12 5 1 -3 -34 -3 2
1532259950497284 0 20 2 -3 2 43 -1 -6
1532259950528234 2 -17 -7 -15 -6 -4 0 0
1532259950581092 -13 -26 -16 -11 -2 -9 1 2
1532259950594057 -4 -4 -24 -1 1 8 0 -20
1532259950631956 4 4 -20 -3 -3 -2 -1 3
1532259950647914 1 -4 -24 -2 -2 -2 2 7
1532259950676836 1 6 13 -2 -2 -2 -4 -4
1532259950691796 4 8 8 12 7 3 2 9
1532259950717727 -3 -7 -3 -1 -1 -2 -1 -3
1532259950751636 2 -5 -2 -2 -7 -6 -1 0
1532259950766596 5 20 -11 -2 1 -2 1 2
1532259950789535 0 -5 -7 0 -2 -1 -1 0
1532259950835412 0 20 -2 -6 -5 -2 0 -2
1532259950849375 1 -22 2 7 1 -3 0 -1
1532259950880292 -5 -21 2 0 0 -2 -2 -3
1532259950917193 -5 -22 6 -1 4 1 0 -2
1532259950932154 -2 11 0 4 0 -4 -4 -3
1532259950977033 2 2 -10 -5 -2 1 1 0
1532259951028895 -3 -9 0 0 3 -2 0 1
1532259951067791 3 31 9 10 3 1 -1 0
1532259951119652 -1 6 -4 5 -2 -6 -2 -1
1532259951134612 -5 -3 -4 4 0 0 2 -2
1532259951179492 -7 -41 -19 -1 -1 1 -2 -1
1532259951210409 -3 18 -3 1 0 0 -2 -2
1532259951240329 -3 13 -1 -4 -2 -1 0 0
1532259951287204 -8 -20 39 5 5 0 0 -1
1532259951300169 2 17 -2 -14 -9 -3 1 0
1532259951346047 1 -8 -10 3 -2 -2 0 0
1532259951382948 -6 64 5 -10 -4 -1 -4 -21
1532259951525567 3 -4 7 -2 -3 -1 1 23
1532259951802825 15 -8 5 2 0 1 5 0
1532259951902559 -17 5 -5 1 1 2 -6 -15
1532259951923506 11 -13 -15 0 -2 -1 1 0
1532259951968382 12 10 0 0 -2 0 0 -6
1532259952028223 1 8 -1 -1 -1 -2 -3 -5
1532259952066121 8 7 2 0 0 1 3 11
1532259952153887 -2 -1 0 0 0 -1 -1 -2
1532259952170848 -5 -1 6 -3 -1 -1 -1 -4
1532259952296505 4 46 10 -2 -2 1 56 3
1532259952396238 3 -25 1 5 10 3 16 2
1532259952522900 0 87 -8 -2 -3 -1 7 -42
1532259952596702 6 -33 -24 -3 -3 -2 3 6
1532259952673497 -10 41 -22 -1 -2 -6 -1 -48
1532259952735347 17 -11 -13 0 -1 4 -13 14
1532259952785199 17 11 -2 -4 -5 -8 4 -5
1532259952875956 -3 7 -7 1 1 4 0 -25
1532259952927817 -9 8 11 2 1 -1 4 -2
1532259952934798 0 15 -2 8 8 11 -5 -18
1532259953001619 -6 14 -5 -3 -1 0 0 0
1532259953048494 -16 47 53 8 1 -1 -6 -98
1532259953061459 -1 1 10 1 -2 -2 13 -23
1532259953087391 -18 9 56 7 4 0 -1 -30
1532259953153213 4 42 -22 -6 -2 -2 8 56
1532259953191113 6 -38 -3 3 0 -1 -6 -22
1532259953213054 -9 -6 -9 -7 -3 0 -6 -55
1532259953273891 -21 -6 34 8 3 -2 2 34
1532259953301817 -7 -11 -86 -1 -1 -2 3 -1
1532259953407534 -8 -4 64 4 3 -2 4 -12
1532259953415513 8 17 -43 -4 -2 0 -6 9
1532259953559129 0 7 25 -1 -1 -1 -3 -9
1532259953596030 -9 -40 12 -5 2 -1 -3 -6
1532259953640910 1 16 7 9 7 4 1 2
1532259953692772 -3 -5 -19 -3 -4 -2 0 -5
1532259953707732 6 2 -34 -1 1 1 1 3
1532259953790510 -4 -22 13 8 2 1 -3 -3
1532259953858329 -1 5 -24 1 3 0 -2 0
1532259953912185 -2 -1 2 -5 -4 -3 -3 -6
1532259953933129 -3 -11 -28 -6 2 0 1 1
1532259953994963 3 5 9 20 2 0 -2 0
1532259953999950 4 -11 -46 15 0 1 2 2
1532259954030867 0 -39 -42 -4 1 1 1 1
1532259954053806 3 18 3 -4 -10 -3 -7 -3
1532259954090708 18 1 10 1 2 2 1 10
1532259954120628 -18 -10 2 15 10 5 -1 -3
1532259954173486 6 2 -1 -5 -2 -3 1 23
1532259954210387 -4 9 -18 -1 0 -1 -2 -1
1532259954233326 -14 -45 -7 -1 0 2 3 37
1532259954270227 7 7 -2 0 2 0 -10 -31
1532259954293166 -3 -13 -32 7 3 5 2 -12
1532259954325080 5 29 5 -2 -4 -3 -3 6
1532259954344030 -2 0 20 11 20 1 0 5
1532259954375944 -3 -7 13 -4 -5 0 7 12
1532259954398883 -3 -8 -7 -4 1 3 0 1
1532259954427806 0 -2 -9 -1 -6 -4 -1 -2
1532259954472685 18 -12 -12 31 7 1 0 5
1532259954510585 8 -21 33 -6 -8 -3 -4 1
1532259954532526 5 -11 18 23 4 1 0 2
1532259954539507 8 6 4 -10 -1 -1 0 2
1532259954593363 -6 22 0 2 1 1 2 3
1532259954607326 9 -4 -4 -9 -3 -1 -1 4
1532259954630264 8 -1 10 -7 -4 -1 -1 2
1532259954653203 1 -8 -21 -7 -1 -2 1 2
1532259954721022 7 6 -13 -3 -1 0 0 1
1532259954772883 -5 1 -10 -2 2 1 8 0
1532259954795822 0 -2 -17 -5 -4 0 -2 3
1532259954832723 -5 -1 2 5 0 -3 1 -7
1532259954878600 1 2 10 7 7 3 0 -2
1532259954893560 -1 -1 33 -11 4 -1 -2 -1
1532259954953400 9 -12 -25 13 -1 -1 0 -2
1532259955036178 -4 6 -4 7 -2 -3 -1 -1
1532259955079064 -13 13 -2 -5 -2 1 -1 -1
1532259955132920 -13 10 -3 0 -1 -1 7 1
1532259955215699 -2 2 5 1 1 2 -1 -2
1532259955349341 3 -6 -16 5 -3 -5 -2 1
1532259955379261 -6 -9 15 -13 -7 -8 -4 -4
1532259955575736 5 -6 -7 -5 -2 0 -3 0
1532259955649539 -3 -7 2 1 0 1 0 -2
1532259955701400 9 47 11 -1 0 0 -3 -4
1532259956055453 -1 1 0 0 1 1 0 -2
1532259956115293 -6 -7 -2 3 -1 1 0 -2
1532259956206050 -8 -34 -5 0 -1 2 0 -1
1532259956394547 23 4 -1 -1 1 1 1 7
1532259956460370 -12 -11 2 4 -1 -2 -1 -7
1532259956597005 -2 -27 -3 -18 -8 -3 -4 -3
1532259956685768 -3 -36 -6 -1 -1 6 2 9
1532259956769544 1 -20 -3 -1 0 -21 2 18
1532259956822406 -13 -34 -61 0 -1 1 -11 -38
1532259956835368 -13 54 66 13 1 -8 -5 -10

1532259956895208 -12 -21 54 -4 -1 -2 -5 -1
1532259956976989 -2 11 6 2 -1 -1 2 -9
1532259957044808 -4 13 0 -2 -2 -4 0 -3
1532259957165485 -2 -2 0 1 1 3 8 26
1532259957180445 -2 -5 1 -3 -2 1 -2 -3
1532259957240285 0 23 1 1 -2 -1 0 -3
1532259957278183 -28 5 3 1 3 1 -2 -9
1532259957301122 8 -23 1 0 -1 -2 -3 1
1532259957338024 9 -15 -2 0 1 0 0 6
1532259957375922 -3 -23 3 -2 -2 -4 -2 -6
1532259957397863 -3 13 2 0 -1 1 0 8
1532259957465682 0 5 2 -1 -1 -2 4 10
1532259957494605 -1 -1 2 2 0 -6 1 -5
1532259957555453 1 16 -8 -1 1 -1 -3 -8
1532259957592343 4 -2 -16 -1 -3 -4 1 -4
1532259957661171 3 5 8 7 18 30 -18 -6
1532259957721000 2 11 12 0 -4 -22 2 -14
1532259957757901 -6 -4 -82 -4 -7 -15 -1 2
1532259957854642 5 -9 -11 -2 -1 -5 0 1
1532259957922461 2 24 2 -2 2 -1 0 -2
1532259957960360 1 6 5 -24 -7 -1 -1 0
1532259957974322 6 9 -14 4 5 2 2 0
1532259957998258 -1 -12 3 -8 -14 -8 -2 -3
1532259958066076 -3 -9 -6 -4 18 3 1 -1
1532259958094002 -4 3 15 30 14 4 -1 0
1532259958125917 -1 -3 17 0 -1 -1 -1 0
1532259958185767 -5 -25 3 -2 -2 -2 -3 -1
1532259958223655 3 12 -6 0 1 2 0 -1
1532259958251581 2 0 3 -4 -3 -3 0 -2
1532259958282498 -3 -11 -5 -7 0 -4 -1 1
1532259958350316 -5 -21 6 -4 -4 -4 -1 -1
1532259958372258 -3 6 23 10 -2 -2 -1 0
1532259958410156 -2 -21 -16 13 20 5 1 1
1532259958449052 2 -2 -34 -7 9 4 0 -1
1532259958501911 0 0 16 -3 -3 0 0 1
1532259958515873 0 3 10 17 -2 0 -1 1
1532259958536823 2 23 8 -12 -47 -9 -3 -3
1532259958628572 4 27 -12 -16 -12 -3 0 -2
1532259958703372 2 22 5 -2 -5 -4 -2 1
1532259958830035 10 11 -1 -4 -5 -3 1 11
1532259958905831 -77 -28 -10 9 -3 -5 -2 -17
1532259958997594 -86 -22 -10 -11 -16 -12 -11 -6
1532259959057426 -6 26 1 -4 1 1 3 22
1532259959124247 -34 18 1 -3 -4 -12 -14 -2
1532259959242930 14 23 1 0 2 3 6 9
1532259959294791 -6 -20 -1 -1 -3 -3 1 -11
1532259959385548 7 -29 -1 -2 5 4 32 -1
1532259959566065 -2 -42 52 67 38 14 -13 -3
1532259959610946 -1 2 -2 -26 8 -3 2 -8
1532259959663804 11 -14 -5 8 6 -3 -2 -31
1532259959724643 13 -11 11 15 12 -2 15 -37
1532259960045783 3 3 9 2 2 -5 0 -16
1532259960128561 -26 3 20 1 1 -8 2 -31
1532259960165463 -3 -14 -8 8 7 6 0 2
1532259960225302 8 0 27 -5 -4 -3 3 33
1532259960293121 12 4 -22 0 2 2 2 24
1532259960405820 2 -4 -34 -3 -4 -2 8 10
1532259960428759 2 -9 67 -1 1 0 7 -7
1532259960450700 8 0 35 0 0 -3 -1 14
1532259960503559 -18 -17 0 2 1 3 3 -16
1532259960579356 7 -22 17 -7 2 8 -5 13
1532259960654156 12 -11 7 -2 -1 -2 -47 5
1532259960705021 2 -6 -77 -7 -2 -1 8 4
1532259960775830 -10 14 -2 -3 -2 -2 -3 -7
1532259960856615 -4 -10 3 4 -1 -4 -1 -6
1532259960891521 2 24 -9 1 1 -2 0 -1
1532259960930417 6 -19 -13 -24 -5 -1 0 4
1532259960970311 -1 -36 -10 -9 0 0 -1 -2
1532259960982278 -2 -43 -2 -4 -2 -1 0 -2
1532259961028156 -25 -22 -12 -1 3 2 0 0
1532259961050097 -35 1 11 9 1 1 2 -1
1532259961072039 -21 38 18 -5 -3 1 -2 28
1532259961126892 14 16 62 10 0 -2 -6 -3
1532259961132876 7 18 0 2 5 1 0 11
1532259961191719 -3 -5 -29 0 0 1 2 -2
1532259961238593 -5 -26 57 6 6 3 4 -2
1532259961253553 0 -29 -30 -7 0 0 1 -2
1532259961305415 1 6 -16 -30 -9 -3 -1 -3
1532259961350295 4 -12 34 -1 -6 -4 -4 1
1532259961411132 -2 6 -5 -6 -4 -1 -3 -4
1532259961507879 -10 12 -10 0 1 2 -4 4
1532259961530818 -6 -6 0 -2 -1 -2 1 10
1532259961544781 1 35 0 -4 -1 -1 0 -36
1532259961604622 -2 18 -13 1 -2 -2 -8 -11
1532259961650498 14 64 -26 17 1 -1 -1 12
1532259961664461 -2 -13 -26 -11 -7 -3 2 1
1532259961679421 -7 7 33 -1 0 -1 1 -47
1532259961741256 -7 13 -14 6 -7 -5 -4 2
1532259961771183 -11 -12 19 -18 -5 -1 0 -2
1532259961784140 2 -6 53 10 2 2 0 0
1532259961823037 6 -11 -2 -16 -7 -3 -2 -4
1532259961884871 7 -14 -15 -5 -1 -1 -3 -4
1532259961951693 -28 10 18 -1 2 2 2 -5
1532259961972636 33 -13 -16 -6 -5 -1 1 1
1532259962070375 -2 -11 -27 2 -2 -1 -2 1
1532259962093314 -16 3 -2 -3 1 1 3 -2
1532259962107276 16 -53 -14 -11 -3 -4 2 5
1532259962130215 -3 19 54 10 -1 -1 -1 -1
1532259962153154 4 -4 26 6 -1 -2 2 5
1532259962191053 -5 -2 -35 0 9 1 0 -1
1532259962235933 0 10 -57 -3 6 3 3 2
1532259962286801 10 17 27 -13 -3 0 0 2
1532259962310732 -2 8 -12 -12 -3 0 -1 -3
1532259962346637 3 -1 -17 -3 -5 0 -3 1
1532259962406476 0 -12 -5 5 1 0 -1 1
1532259962452354 -50 34 8 16 5 1 4 -2
1532259962551090 -22 13 8 1 2 0 -1 -3
1532259962594973 5 -5 -7 3 0 -2 -4 -7
1532259962609933 6 -15 -26 -3 -1 -1 -1 -1
1532259962654822 7 -1 -6 -1 1 -1 -3 -1
1532259962669773 4 9 10 -2 -1 -2 -1 -1
1532259962714653 1 21 -57 -3 4 0 2 1
1532259962729613 -2 -20 -14 -9 -3 2 1 -3
1532259962774493 0 -7 72 5 0 2 -2 -4
1532259962872232 -40 10 -12 19 5 4 3 -8
1532259962903148 11 1 -13 17 6 2 -1 -5
1532259962932071 -39 7 65 1 5 2 1 -3
1532259963000887 44 -28 19 12 4 -3 -2 5
1532259963052748 6 0 1 0 2 1 -4 0
1532259963270167 -9 -3 -42 8 7 1 2 1
1532259963389848 -6 -16 -8 -9 -5 1 0 0
1532259963419767 4 -10 15 11 -1 -2 -2 -2
1532259963472644 0 1 27 13 2 -2 0 -1
1532259963675088 8 -22 -9 -2 2 2 0 -1
1532259963712992 -8 20 2 -2 -1 0 0 -5
1532259963750882 -9 -17 -3 -2 -3 0 2 1
1532259963772822 -3 -68 9 1 -1 0 -1 1
1532259963809724 9 9 -16 -3 -3 -2 -1 2
1532259963832662 -14 -40 -4 0 3 3 -1 -1
1532259963954351 -5 -52 -14 3 -2 -2 0 -1
1532259963962325 -7 31 -2 -13 -3 -2 -2 -2
1532259964080998 -4 28 6 2 3 -3 6 47
1532259964161783 6 -26 -39 -16 -4 7 8 -2

1532259964253537 -2 -7 -35 -19 -10 -7 1 -9
1532259964657458 6 0 -7 1 -1 -2 0 -1
1532259964695356 -1 -8 -5 -3 0 1 0 1
1532259964732258 2 -9 2 3 0 0 6 4
1532259964793095 -5 -5 -3 1 0 -2 0 -1
1532259964822032 -2 -1 -1 -1 -3 0 0 -3
1532259964860927 8 24 -5 1 -1 -1 3 2
1532259964931737 -5 -6 -21 1 0 0 0 -2
1532259964935726 -1 13 17 1 0 -1 0 -4
1532259964988586 0 -43 -10 -3 -2 0 -3 11
1532259965069369 5 44 -7 -7 -4 5 -15 70
1532259965114271 11 30 -9 -4 1 0 -1 0
1532259965152169 -4 47 40 -19 -6 1 -8 -13
1532259965167130 3 -30 -106 -9 -3 0 3 -3
1532259965212009 -6 -6 10 4 1 2 0 -1
1532259965296782 -3 11 24 1 -1 0 2 0
1532259965302767 0 -23 -6 1 6 6 1 1
1532259965354628 -10 6 3 -1 0 -1 -2 -3
1532259965429427 -3 -6 -9 -6 -5 -7 -2 -1
1532259965549108 7 30 -3 1 -6 0 -2 0
1532259965572047 1 -20 2 0 5 -3 -1 1
1532259965640863 7 -24 -3 4 6 6 2 -1
1532259965729625 1 19 -19 14 5 2 1 0
1532259965775503 11 26 9 3 10 4 -2 -11
1532259965797444 3 16 5 2 3 3 -3 10
1532259965851300 -7 6 24 3 0 0 -4 -22
1532259965919118 -10 15 16 -2 -5 -2 1 5
1532259965994915 12 21 7 3 4 0 4 63
1532259966029823 -7 1 -1 -6 -1 3 -5 -8
1532259966143518 -25 4 -4 -1 -3 -4 -4 -25
1532259966173439 5 -8 4 -1 -2 -2 -3 -8
1532259966195379 -8 -19 -4 1 -1 0 1 3
1532259966248239 -10 -12 4 -2 -3 -1 -3 -1
1532259966322041 -4 14 -1 -7 0 -2 -3 -7
1532259966532478 -3 3 6 -16 -4 -1 -2 -2
1532259966839657 0 -4 -1 -3 -2 -1 -2 -2
1532259966870586 -6 2 1 0 0 -1 -1 0
1532259966885534 -4 9 -1 0 0 -2 -2 -2
1532259966954362 -11 8 1 1 0 -1 0 1
1532259967007209 -8 2 0 1 1 -1 2 0
1532259967082009 -1 0 -2 -2 -3 -3 -1 2
1532259967155812 -1 5 2 3 4 0 3 3
1532259967176756 2 -3 1 -1 -2 -4 -2 -1
1532259967230612 6 25 30 17 6 -2 -2 -1
1532259967290452 -1 14 9 0 -4 -2 -34 1
1532259967343310 4 70 6 -23 -11 -7 -26 -17
1532259967379214 -3 -7 31 -3 -5 -2 20 1
1532259967627550 5 7 15 -2 2 -1 -11 -15
1532259967710329 9 14 -4 9 6 6 12 43
1532259967740249 5 61 19 -8 -2 3 12 -12
1532259967822030 0 -29 32 1 -1 -5 -1 -14
1532259967844968 1 11 38 2 3 12 -3 -2
1532259967890850 -16 14 -16 2 -1 1 2 -39
1532259967935725 -12 2 0 1 3 -2 2 -38
1532259968085326 -16 -5 44 3 4 2 4 2
1532259968161124 2 22 -22 -4 -8 -5 -17 18
1532259968250885 -1 11 19 1 0 -26 -2 13
1532259968341640 2 -1 -49 -8 1 0 -1 -11
1532259968499219 -1 -6 6 3 0 1 -17 7
1532259968618899 0 -7 -8 -1 0 0 0 2
1532259968686718 -4 15 5 10 2 0 0 0
1532259968692702 2 -2 0 -9 -4 -1 0 -1
1532259968769496 -1 -20 -16 -5 2 1 1 1
1532259968796424 -5 -18 -15 4 -3 1 -1 -3
1532259968860255 -4 26 1 -2 2 -1 2 0
1532259968880200 -3 -16 9 -5 -1 0 -1 -3
1532259968979933 5 -6 -22 -7 0 0 -1 0
1532259969097618 -1 20 -33 -1 -1 -1 -9 -10
1532259969115571 -5 -39 17 0 -3 -2 2 -13
1532259969210318 -4 -6 56 -6 -9 -2 -4 2
1532259969217316 3 18 -1 1 -7 -5 -2 6
1532259969255198 4 13 -7 -10 -7 -3 -2 -1
1532259969262179 -2 -13 17 -35 -7 -3 -1 7
1532259969292099 3 2 -67 1 -1 0 0 -3
1532259969318030 -8 4 39 8 1 3 2 -6
1532259969360914 -44 13 -15 3 3 1 1 -8
1532259969367896 -1 15 -1 13 3 0 3 -6
1532259969412776 67 -41 -21 -19 -14 -7 -6 2
1532259969472616 -20 10 19 -4 -2 0 -1 1
1532259969532456 -2 -10 -29 5 8 3 6 -47
1532259969592296 -2 -6 -35 -15 -6 -3 -1 -4
1532259969607256 4 6 19 -10 -4 1 3 24
1532259969661112 -2 -2 5 1 4 2 -4 -3
1532259969690034 -3 1 -1 -19 -7 -1 0 -6
1532259969728931 15 -9 15 -1 -2 -1 0 2
1532259969789767 12 -19 -20 7 -3 -1 -1 1
1532259969855592 -15 8 17 -2 2 1 -2 -8
1532259969930392 0 1 1 3 2 1 2 2
1532259969990232 1 12 6 14 10 5 -1 11
1532259970050072 1 -32 -62 -4 8 1 0 16
1532259970073010 -1 12 19 0 -14 2 1 4
1532259970087976 -4 -5 -100 -9 -10 -7 -2 0
1532259970109912 2 -1 -32 -5 1 1 -1 2
1532259970140829 -1 -7 13 -2 0 -1 -1 -2
1532259970154792 9 -5 -48 8 5 -1 -3 1
1532259970192690 -10 9 101 4 2 -20 -10 -5
1532259970206653 -56 6 9 13 2 -35 -19 -6
1532259970252531 16 -5 6 0 -4 4 10 9
1532259970290429 -10 -3 -3 18 6 10 9 8
1532259970350269 11 0 3 -3 -7 -1 0 -5
1532259970425070 1 -1 -17 2 -1 -1 -3 5
1532259970469949 4 17 -21 1 2 1 0 5
1532259970492888 -1 2 -23 4 5 6 2 4
1532259970515827 -4 -2 -12 2 -9 2 0 0
1532259970560707 3 12 15 13 10 0 0 2
1532259970589629 0 14 30 -13 -6 -3 -2 0
1532259970620555 -3 -7 17 23 23 5 0 1
1532259970672408 -2 -9 6 5 -7 1 -1 -3
1532259970703325 6 8 18 8 1 0 -3 -4
1532259970763165 13 -9 -10 -5 -4 -2 -3 3
1532259970792088 -7 4 27 -3 -2 0 0 1
1532259970816024 5 2 7 0 2 0 0 0
1532259970905783 -7 -4 8 -6 0 1 3 0
1532259970972606 7 -8 3 -12 -6 -4 0 2
1532259971100264 8 6 10 5 -2 -4 -3 -1
1532259971176061 -1 -4 -1 9 2 2 0 1
1532259971429384 -1 8 2 -2 1 0 -1 0
1532259971535102 -4 -23 -1 -2 0 -1 1 0
1532259971656775 -3 8 33 1 -3 -2 -1 -2
1532259971730578 8 17 23 5 -2 -3 -1 0
1532259971751522 15 11 -6 1 -2 -1 -2 1
1532259971804382 21 21 -8 -5 2 2 1 0
1532259971824327 -17 20 6 9 1 2 1 -1
1532259971874194 24 13 12 3 1 0 1 1
1532259971896136 -2 13 7 3 0 0 0 2
1532259971918076 -7 -4 -11 -1 1 0 2 0
1532259971947996 1 11 6 2 1 -1 -4 -5
1532259972009832 0 2 4 -4 -14 17 0 2
1532259972052716 -29 52 -10 -4 0 5 -6 25
1532259972098594 -27 23 43 -9 -7 1 -5 12

1532259972150455 20 -17 -24 0 -3 -3 6 7
1532259972232236 3 -2 1 -7 -2 1 -2 0
1532259972269138 3 30 9 0 -1 -2 4 2
1532259972315258 0 -10 17 1 -1 -1 -3 1
1532259972361136 0 5 -7 3 -1 -1 -2 4
1532259972375098 -10 31 -5 -2 -1 -1 -1 8
1532259972420976 5 -21 -8 1 -1 2 0 2
1532259972434938 4 -5 3 0 0 -1 -2 -2
1532259972501759 -3 0 -1 0 0 0 -1 -1
1532259972546640 -1 -11 -1 -2 0 0 0 3
1532259972600499 0 10 28 -2 -2 -1 0 -1
1532259972660336 -2 -6 -45 -3 2 2 0 4
1532259972706213 10 -38 -17 -3 0 2 -1 -3
1532259972737137 14 -17 -37 -4 -1 8 0 38
1532259972766053 1 18 3 2 5 69 15 46
1532259972840852 -4 -42 -11 13 3 -8 2 3
1532259972862794 9 7 67 9 0 -2 1 6
1532259972878752 -2 41 61 15 4 -2 -1 9
1532259972916650 -8 -39 -53 -3 7 6 2 2
1532259972974496 -1 -23 -3 13 19 5 2 4
1532259972997434 -4 -4 -16 -11 -17 -4 -2 -3
1532259973034336 -4 -14 -15 -4 -7 -3 -1 -2
1532259973059270 -7 -9 4 4 6 3 -2 -3
1532259973109136 12 19 10 3 10 4 2 1
1532259973132074 -1 24 30 23 11 -1 -3 -3
1532259973199893 -1 -24 -61 -40 -14 -2 -1 -3
1532259973213856 -4 -14 15 -10 -2 1 0 1
1532259973320570 -2 0 47 13 -15 -5 0 0
1532259973380410 4 -7 14 -20 -28 -14 -3 3
1532259973410330 0 3 -18 -5 3 1 0 -4
1532259973440249 7 -7 22 10 16 4 1 -7
1532259973463189 -5 2 -10 -10 -28 -5 -1 -3
1532259973486127 10 0 -14 2 23 5 2 7
1532259973545968 13 6 5 -6 -21 -6 -1 7
1532259973604811 -3 10 24 0 -15 2 -1 -9
1532259973673626 7 20 8 -3 -8 -3 1 5
1532259973749423 -5 0 0 -3 -1 -1 1 -3
1532259973765381 -34 0 -5 -5 -13 -4 -2 -11
1532259973823226 12 34 -1 -1 -3 -4 -1 7
1532259973876084 -7 -7 -1 0 -4 0 5 33
1532259973912986 -6 -15 1 0 11 6 -2 0
1532259973974821 8 2 -2 -3 -17 -7 -2 -6
1532259973990778 3 -1 -2 2 -3 0 3 7
1532259974027680 3 2 -1 -2 -4 1 0 -5
1532259974063588 10 0 -1 -3 -1 -2 -4 -10
1532259974102497 -8 -3 0 -4 -2 -3 -1 0
1532259974139381 2 0 -2 -4 -5 -4 -3 -5
1532259974153343 -7 1 -1 1 2 -2 1 -15
1532259974170298 8 -4 -2 -3 -3 -1 0 0
1532259974227145 -2 -1 -3 1 3 0 -2 -1
1532259974302942 -3 0 0 -1 -2 -2 -1 3
1532259974341839 0 -4 -2 5 3 1 1 -3
1532259974355802 2 11 14 4 -4 -2 -2 1
1532259974395695 -2 0 -1 0 -2 -2 1 -2
1532259974429605 0 10 3 1 20 3 2 4
1532259974468500 -3 -11 -6 1 -6 -4 -3 -7
1532259974506399 -5 0 -7 -20 -25 -4 -2 0
1532259974528341 -2 -3 -5 -6 12 6 -1 -2
1532259974597156 0 -21 -3 9 22 -3 1 3
1532259974619098 -3 -17 10 4 11 4 -2 0
1532259974671957 1 -16 2 7 10 -8 -3 2
1532259974782660 1 9 -2 5 8 4 1 8
1532259974873418 18 -42 6 10 7 -2 71 59
1532259975073882 -51 -1 32 12 21 35 20 23
1532259975173615 10 -6 22 -11 -4 12 10 -7
1532259975428932 12 -1 77 1 -2 4 -11 -1
1532259975608455 -9 3 7 0 1 -14 10 -1
1532259975668292 -3 0 88 -9 -4 6 -2 17
1532259975728132 -4 5 -7 3 0 -5 -15 4
1532259975758068 18 -13 18 2 -1 3 -11 21
1532259975787972 1 -5 -10 -1 -3 -2 -6 14
1532259975968489 -12 -4 7 -1 -3 -1 3 -2
1532259976330521 8 37 22 -4 -2 -1 -2 -2
1532259976349471 -16 -22 -50 -7 -4 -1 1 0
1532259976364430 11 25 -49 -10 -5 -3 -1 3
1532259976388367 1 14 13 5 -1 -2 -1 1
1532259976472142 -8 -3 -24 -4 -1 0 0 -12
1532259976539961 0 12 50 4 4 2 1 -18
1532259976568884 -2 12 -56 -7 -9 -2 -2 -18
1532259976598803 2 -5 -9 -2 -7 -1 -2 1
1532259976687566 26 1 5 -16 -8 -4 -3 1
1532259976778324 3 3 -6 -3 -6 -3 -2 -5
1532259976853124 -1 -18 -1 5 1 1 -5 13
1532259976867086 1 -4 7 3 -3 0 5 -5
1532259976890025 1 28 -3 4 4 -1 -5 22
1532259976949865 -3 57 -9 -3 3 -1 2 -4
1532259977033650 -4 -7 59 7 -1 2 1 -7
1532259977071551 -2 -22 -32 -10 -3 -8 -3 0
1532259977130382 -14 -5 -106 -14 0 1 -3 -3
1532259977169278 -1 -7 30 6 -2 8 2 4
1532259977273001 -12 -24 -19 -11 -5 -3 -2 -5
1532259977317881 13 7 3 10 4 -2 0 3
1532259977355780 -7 -11 -25 2 3 2 -5 -6
1532259977369743 4 -26 -99 -5 -4 -2 -3 -2
1532259977467481 5 -3 4 16 9 4 1 1
1532259977527321 4 12 44 -93 54 33 6 4
1532259977610103 31 -15 2 -7 -10 -10 -4 3
1532259977700856 -4 10 8 3 -3 -5 -1 6
1532259977753729 0 0 -6 1 -2 7 3 -1
1532259977775657 -11 -5 0 -3 2 10 0 -4
1532259977835497 -2 -11 15 11 1 -4 0 0
1532259977933236 -4 -28 25 -22 -11 -7 -2 0
1532259978112756 -24 -12 6 18 14 7 -5 -19
1532259978256372 6 -10 -22 -4 0 0 0 1
1532259978375054 -1 2 -8 -9 -3 1 0 0
1532259978533630 28 -16 -23 -3 -1 -2 -1 -2
1532259978653317 4 -6 2 -4 -5 -2 0 2
1532259978808894 3 -7 -7 -13 -4 1 -1 1
1532259978839811 -11 -22 10 -13 -1 1 2 0
1532259978892670 7 16 -11 -8 -1 -2 0 0
1532259979088147 -3 26 -4 -5 -1 0 0 0
1532259979119064 2 12 5 -6 -2 -2 -1 1
1532259979154968 5 -5 -7 -4 -1 0 1 3
1532259979177908 8 -13 -13 1 -1 1 0 -2
1532259979200861 -11 46 18 -2 -2 -2 2 -2
1532259979224785 0 -25 -10 -4 -2 -2 -2 -1
1532259979247721 3 -25 -3 3 1 0 1 -2
1532259979282627 -5 -9 -3 -20 -5 -2 -1 -1
1532259979289609 1 -7 -17 -23 -9 -6 -5 -1
1532259979374381 16 -29 2 9 0 0 -2 -1
1532259979441206 -7 -77 -22 -4 -7 -13 -30 14
1532259979463144 12 0 21 6 3 26 11 27
1532259979517000 10 15 85 15 3 3 10 -2

1532259979540936 -3 25 -60 -8 3 -3 4 -3
1532259979576840 -13 -12 -6 -2 -3 -5 2 -3
1532259979592798 -5 -9 -2 -1 -2 2 6 7
1532259979626707 28 13 -9 2 -1 1 -3 32
1532259979651640 3 -17 0 -2 -3 -6 -10 -38
1532259979686553 -5 4 -14 -2 -2 3 3 -3
1532259979703501 0 3 0 -16 -8 -6 -3 0
1532259979756366 -12 -12 -6 -5 -2 -7 -5 -41
1532259979780312 -2 -7 3 -2 -3 -5 -3 2
1532259979807224 1 -16 0 -1 -1 -3 -2 0
1532259979838141 -1 13 9 2 0 -1 -2 -27
1532259979867064 2 4 0 -1 0 -1 0 4
1532259979891000 1 7 -2 1 -2 -1 -3 9
1532259979903965 -4 -14 -5 0 -1 1 0 3
1532259979927909 -6 4 9 -2 -2 -2 0 4
1532259980003698 1 -5 -2 -2 -2 -2 -2 -1
1532259980026638 -2 -31 -2 0 -1 -2 -3 -1
1532259980055560 0 -6 -1 0 -3 14 4 2
1532259980106432 -8 -1 -3 -2 -1 -3 7 -35
1532259980137341 -1 -1 -1 -1 -3 -3 1 -6
1532259980167261 1 1 2 2 1 3 -1 -5
1532259980250040 -2 -9 2 6 0 -5 -5 -5
1532259980264012 -4 6 14 2 1 -1 4 11
1532259980332818 12 -7 10 -2 -9 45 -11 6
1532259980392659 7 9 1 0 -14 93 -18 29
1532259980438544 -36 24 -11 -7 -6 -49 -27 -53
1532259980483416 3 3 -40 -14 -6 -15 -8 18
1532259980520317 0 -3 17 1 -1 0 7 11
1532259980557219 3 -7 18 4 7 3 5 3
1532259980594120 -4 -7 14 1 0 -16 -6 -3
1532259980640005 2 1 -3 -6 -4 -1 0 -4
1532259980714797 6 70 0 -3 -8 -4 -2 -1
1532259980753693 -3 -2 4 5 7 2 1 0
1532259980813533 -1 -9 3 1 -3 0 0 2
1532259980924237 0 -8 -20 -8 -11 -1 -2 -1
1532259980942190 -7 -6 10 10 22 2 1 -2
1532259981001032 9 31 -12 6 31 6 2 1
1532259981022973 -5 -34 -7 4 -12 0 3 -2
1532259981037934 -3 -10 -13 -17 -25 -1 0 0
1532259981081816 1 10 5 6 10 4 1 1
1532259981106749 -4 -21 51 43 5 1 1 0
1532259981189528 -1 14 -17 -10 3 3 0 -1
1532259981257346 -1 -25 -5 -5 2 -1 -2 -2
1532259981309207 -4 9 -8 -1 -4 -1 -1 -2
1532259981382013 -1 -5 -18 -16 -5 -2 -2 5
1532259981449832 16 -7 11 1 -1 1 -3 0
1532259981534605 -20 2 14 12 0 -2 -5 -8
1532259981587463 -13 4 3 4 2 5 2 3
1532259981662264 -28 0 1 1 1 2 0 -7
1532259981735069 26 4 6 5 2 0 2 9
1532259981786930 -3 1 -4 -8 -6 -1 5 0
1532259981862728 -24 -9 -2 -1 -1 -3 -2 11
1532259981885666 -1 0 1 1 4 1 0 -8
1532259981947501 2 -1 -3 -8 0 -1 1 -5
1532259981982408 -1 -1 2 2 0 2 0 -1
1532259982005358 1 -3 0 -6 -4 -3 -1 -2
1532259982027288 -4 -6 0 1 1 0 0 5
1532259982080146 5 -13 6 3 4 4 3 2
1532259982098098 8 8 0 1 3 -1 0 -1
1532259982125026 -3 -3 -4 -5 -9 -3 -2 -1
1532259982165916 1 16 26 1 -15 -5 -4 -9
1532259982268642 -1 1 10 6 11 -3 10 -3
1532259982290583 -3 -1 0 10 -14 -1 12 1
1532259982312530 -13 -7 -26 -17 -4 0 11 -4
1532259982368376 3 11 -14 -16 -34 -3 12 -2
1532259982413256 -3 3 -8 -8 3 -3 11 -2
1532259982486069 -1 -17 -7 -5 3 0 -10 8
1532259982558866 -7 13 -11 2 -3 4 36 -19
1532259982644637 3 6 -3 -4 2 1 -7 6
1532259982739384 -8 -5 -2 3 5 7 3 15
1532259982770301 2 -14 -34 -1 1 10 1 0
1532259982845101 -3 -26 -2 -2 -3 4 6 52
1532259982904941 6 -15 49 -1 0 -1 -9 -34
1532259982980738 11 -23 -10 2 -3 -9 -1 -12
1532259983001682 4 -8 -18 -2 -2 -6 0 -12
1532259983036589 -3 38 32 3 1 0 -1 13
1532259983099421 -6 -13 61 6 1 3 -6 -43
1532259983124367 1 -10 11 0 -3 -5 5 -14
1532259983175218 -40 -6 11 -8 -3 -3 9 -5
1532259983201149 8 -19 6 6 1 -1 5 0
1532259983402609 -6 -22 -12 6 1 -1 1 -5
1532259983437530 1 41 21 15 6 -1 1 1
1532259983679868 -7 -14 -11 -1 -2 -2 6 4
1532259983723751 -3 32 -16 -2 2 0 -3 -2
1532259983804536 -2 -36 -53 11 5 3 0 -5
1532259983827474 4 6 -7 -7 -1 3 3 2
1532259983849416 4 9 33 3 -2 0 0 -1
1532259983910252 15 16 -31 -3 7 2 2 4
1532259984008005 -2 -9 -21 -2 -1 -2 -3 -5
1532259984090770 6 7 -4 0 -2 -2 0 4
1532259984129666 1 -6 9 -2 -1 -3 -3 -6
1532259984158589 0 5 18 -9 -3 -3 -1 0
1532259984187511 -2 1 -29 3 18 5 -1 -8
1532259984210450 1 18 43 -17 -19 -6 0 -5
1532259984233388 -10 -20 2 -12 2 -2 -1 -4
1532259984270290 -2 12 -48 32 1 1 -2 -8
1532259984285250 4 1 51 0 4 5 3 -3
1532259984352070 -13 -33 -6 -5 2 1 -1 -6
1532259984383986 9 13 -33 -12 -7 -4 -2 0
1532259984442828 -3 -8 18 7 4 -1 -1 -1
1532259984487727 -6 -14 -17 2 -1 -3 -5 -3
1532259984524610 2 10 15 1 -2 -2 -3 -2
1532259984547547 3 -10 2 8 12 4 0 1
1532259984586444 -2 14 18 6 -13 -3 0 -2
1532259984607388 5 5 -20 -5 14 6 8 8
1532259984629329 3 -18 17 3 14 7 2 -2
1532259984690166 -9 0 -53 -17 -3 -1 -2 -2
1532259984772945 10 -5 4 1 -7 -5 -1 -2
1532259984786908 -8 6 21 2 -1 -1 -2 -2
1532259984840764 11 3 -87 0 -5 -2 0 7
1532259984870722 -2 -2 4 -3 0 -1 0 0
1532259984915564 5 12 17 3 -4 0 0 3
1532259984953462 0 10 32 -10 -5 -4 -2 0
1532259985058183 2 6 64 -13 -13 -2 0 0
1532259985206785 -13 -4 2 3 -4 -6 1 -5
1532259985253660 -3 -8 -44 0 1 1 -2 -5
1532259985387303 -1 -7 -5 4 5 1 -2 -2
1532259985596742 37 13 -26 -4 -2 -2 -2 0
1532259985757330 -2 -8 22 -15 -2 -1 0 -3
1532259985815159 -1 19 11 -15 12 3 0 0
1532259985853057 5 32 5 -3 -21 -8 -3 0
1532259985949798 -3 -6 -2 1 -8 -2 -1 -2
1532259986129318 9 -5 -4 0 -3 0 -1 0
1532259986160236 -4 43 1 -5 -1 -1 -2 -2
1532259986228055 -1 -5 11 4 2 1 1 2
1532259986236033 -3 -59 -18 -7 -3 -2 -3 -3
1532259986280913 -5 61 23 -3 -3 -3 0 2
1532259986310833 2 -58 -23 -2 -3 -1 -4 -2
1532259986334768 10 25 65 -4 -1 -17 -5 86
1532259986339756 3 -20 -40 1 -9 67 8 76
1532259986387627 -15 -33 -26 -1 -2 -20 11 -3
1532259986406576 0 -4 -50 -30 -12 -5 -4 -22
1532259986438491 -2 15 -34 -3 0 -14 -3 -23

1532259986459436 0 11 -2 14 8 -3 -2 -18
1532259986529249 1 45 24 6 1 -3 2 -2
1532259986566150 3 -81 -30 0 -1 1 1 43
1532259986581120 -1 20 -6 -1 -1 -4 -2 -2
1532259986625997 -3 3 -3 12 4 0 1 -9
1532259986663895 -4 -11 -3 4 2 0 1 -1
1532259986677858 -7 17 3 2 2 -2 -3 -4
1532259986706781 -14 -7 -5 -2 1 2 -2 -15
1532259986783575 -3 15 4 2 0 1 0 -5
1532259986835439 2 1 0 -1 0 0 1 -1
1532259986858375 0 5 2 0 -2 -1 -1 1
1532259986978079 -12 -50 -2 2 1 1 -1 -1
1532259987001018 -1 -6 4 -1 -1 -2 -1 0
1532259987036921 -7 0 -6 -1 -2 -1 0 -3
1532259987075817 -1 29 2 -3 1 -3 -1 1
1532259987135658 1 -6 -2 0 0 0 -2 -2
1532259987171562 -5 17 -3 0 -1 -6 0 2
1532259987218436 3 -12 -33 -4 0 1 -1 -1
1532259987240403 -5 10 17 -1 -2 0 0 0
1532259987278302 9 2 -1 -2 -3 -1 -3 -2
1532259987292264 0 -25 -2 0 0 1 -1 1
1532259987337145 1 6 -2 0 -1 0 -1 0
1532259987361080 1 9 11 -1 0 -4 -1 -2
1532259987420930 -5 45 6 0 2 -20 -6 -34
1532259987458133 -15 -54 -2 1 0 -45 5 16
1532259987480082 2 4 17 0 -8 1 -14 -19
1532259987495042 -3 5 -9 -2 -4 21 0 -50
1532259987562860 5 32 96 41 13 -2 -2 10
1532259987630679 -5 4 9 -10 -3 -1 -1 0
1532259987660599 0 19 -10 -8 -2 -1 -3 1
1532259987698497 0 11 20 -2 4 0 2 2
1532259987749362 1 5 -7 15 -2 -1 -1 -2
1532259987794242 1 -6 -4 -12 -14 -3 0 0
1532259987818178 4 14 9 16 11 1 1 1
1532259987841116 1 -12 -9 21 8 1 3 2
1532259987863058 -2 -12 -7 -14 20 0 1 -2
1532259987914920 -1 6 26 5 -3 -2 -1 -1
1532259987936861 1 -1 -2 -4 2 0 1 0
1532259987960796 3 15 -12 -6 8 2 -1 -1
1532259987982738 9 6 -6 -2 -4 -6 -4 -2
1532259988042578 -3 5 -3 -19 -6 0 0 -2
1532259988080476 1 -14 -22 -10 7 -1 2 -1
1532259988103415 -1 -4 -11 1 -2 4 2 -2
1532259988140316 0 1 3 -6 -11 1 -1 -1
1532259988178215 1 -6 -5 7 -20 -6 -3 -3
1532259988248029 -3 1 -5 14 41 10 2 2
1532259988259996 -7 -32 0 -7 -19 -5 -1 -4
1532259988304877 0 -10 0 4 -25 -11 -3 5
1532259988357735 -17 -9 2 -10 -8 -2 -3 -15
1532259988371698 -4 -13 -5 -19 -15 -5 1 11
1532259988424557 -4 -3 11 -7 1 2 -1 -5
1532259988472428 5 -5 -20 -9 -1 -4 -5 1
1532259988491378 17 -6 -4 3 -10 -2 -1 -7
1532259988544236 -41 -14 -16 -12 2 2 -1 -35
1532259988600092 -3 10 -19 -5 0 -1 -2 -4
1532259988606071 -7 5 36 5 11 0 -3 -7
1532259988658930 -2 2 54 4 -5 1 1 2
1532259988718771 -11 -1 -17 0 1 1 0 -6
1532259988747692 2 -13 -39 -5 -4 -4 -7 -9
1532259988801548 -32 -3 18 -1 1 -1 -3 -13
1532259988837452 5 1 16 -4 -4 1 1 -5
1532259988875351 19 4 5 0 1 -1 -1 10
1532259988952145 -8 4 77 7 1 0 0 -2
1532259988996034 1 -1 18 -1 -2 -1 -2 -4
1532259989025948 -5 -15 1 -2 -8 -2 -2 -23
1532259989062850 -1 -14 -6 0 -3 -2 2 -3
1532259989138647 3 8 -1 -4 17 3 -1 1
1532259989176556 1 -4 1 -7 41 6 2 0
1532259989243367 1 1 -2 31 26 3 -5 -1
1532259989305202 -2 15 41 -18 16 5 3 3
1532259989340108 9 21 -6 -4 -9 -11 3 39
1532259989379004 -25 -58 -24 9 9 -39 7 -9
1532259989542566 -6 2 -26 5 6 -6 9 -7
1532259989670225 1 -25 27 2 -6 -3 -9 -7
1532259989723084 -5 4 -17 -12 -8 -1 -6 -14
1532259989767964 -25 -7 -6 -5 -2 30 -6 -23
1532259989783922 13 36 7 -5 -7 -11 -2 17
1532259989820823 3 -5 16 0 -3 -7 0 44
1532259989902604 0 -35 0 -7 -5 8 -13 -76
1532259989993361 20 -10 -13 2 0 2 0 -6
1532259990105063 -3 -4 15 5 5 11 -35 15
1532259990135979 -1 -8 16 1 -2 -12 19 18
1532259990210780 -10 10 111 7 5 1 -12 0
1532259990414236 -3 -62 -20 -1 2 2 -2 -1
1532259990490035 5 55 -3 -12 -5 -2 1 0
1532259990562839 8 48 31 8 1 -2 -1 4
1532259990607718 -2 -6 24 -8 -4 -1 -2 -3
1532259990622679 21 -42 14 1 -1 -3 -4 2
1532259990677532 -6 -9 -10 3 -1 -1 0 -1
1532259990720417 -12 -6 -14 -2 2 0 -1 -2
1532259990742358 0 1 -26 3 1 1 1 0
1532259990817158 -2 1 19 -4 -2 -3 -2 -1
1532259990848076 4 9 24 4 -5 -4 -1 1
1532259990884977 -11 -15 -22 6 6 0 -3 -3
1532259990930854 -14 -5 51 -21 -5 -2 -3 -7
1532259990944817 6 -12 -36 -13 1 -3 -1 1
1532259990989696 -16 11 10 -1 5 4 3 -3
1532259991004657 -2 -5 -25 -10 1 1 0 1
1532259991095414 -6 8 1 2 -1 1 0 3
1532259991147276 7 -20 16 0 -1 -1 -6 -4
1532259991162235 4 4 -27 4 2 0 2 1
1532259991185174 4 -4 33 -1 2 1 0 1
1532259991208113 0 -20 -8 6 12 2 2 1
1532259991231052 -2 4 -51 -3 -3 0 -1 0
1532259991267953 1 5 3 -17 -10 0 0 2
1532259991281916 -1 -2 -21 5 1 -4 -1 0
1532259991304854 2 4 -12 0 -8 0 0 1
1532259991350732 -7 -5 -20 -34 -11 -5 -2 -4
1532259991373673 -11 6 -5 2 1 0 -2 -4
1532259991410582 8 -13 1 -22 -11 -2 0 1
1532259991470411 -14 1 16 -10 -2 -1 0 0
1532259991508310 24 7 32 6 9 5 -2 0
1532259991530251 21 -23 0 -1 -6 -4 -2 2
1532259991568150 -3 4 -12 -2 -1 1 0 -4
1532259991627990 -2 -30 -43 1 0 2 -1 0
1532259991673868 6 1 -7 0 -2 -1 -1 -1
1532259991710768 -6 5 9 3 -1 -3 -1 -1
1532259991808507 3 14 -37 68 -15 -10 -5 -1
1532259991844411 -5 -21 -128 0 36 -4 -4 -2
1532259991853388 -9 -10 32 0 10 0 -1 -4
1532259991904265 9 4 4 -14 -3 -3 -1 0
1532259991928187 -50 28 56 21 5 3 1 -5
1532259992070806 -17 2 -9 0 -7 -2 -1 -2
1532259992153584 -12 -61 -18 3 2 0 -1 -10
1532259992214422 6 -26 27 -3 1 -2 -3 0
1532259992318157 -5 -3 19 54 5 6 2 5
1532259992357041 13 28 -63 -28 -5 -3 -3 3
1532259992467744 -5 -9 16 -1 16 1 0 1
1532259992618341 -5 13 10 10 5 2 -1 -1
1532259992812822 -4 16 2 -4 -2 -1 0 -1
1532259992826784 -2 -2 0 -3 -2 1 0 -2
1532259992886624 -7 9 -1 -1 2 2 -2 1
1532259992940481 -4 -10 -4 1 0 0 2 -1
1532259992972395 -42 8 18 2 1 0 0 3
1532259993000320 50 12 1 6 2 2 5 7
1532259993038226 8 25 12 -5 -1 0 -1 5
1532259993164880 22 -32 -20 3 6 -86 -1 47
1532259993248656 17 16 9 1 2 -3 6 22

1532259993285558 9 -18 -21 6 2 -2 -4 9
1532259993323468 -17 -27 -18 -12 -6 -2 -3 -6
1532259993339414 -6 -10 -8 -3 -4 -3 -2 -2
1532259993413216 -17 10 -5 7 1 2 2 -1
1532259993458096 1 -3 -8 -1 3 4 1 0
1532259993495995 1 7 -1 2 1 -1 -2 3
1532259993541872 4 0 -10 -3 -3 -1 -3 1
1532259993555835 -2 -4 -2 -4 -2 -2 -1 -2
1532259993578774 -1 7 -10 -5 -7 6 -6 -1
1532259993599718 -3 11 -3 0 2 -13 -2 -4
1532259993675515 2 28 13 1 -2 3 -1 -1
1532259993690474 2 -13 5 -2 -2 -1 -1 0
1532259993728373 0 -11 -9 -3 -3 7 4 1
1532259993796192 0 -16 -14 -1 -2 -2 -2 -1
1532259993856041 1 15 0 0 -2 8 -2 1
1532259993869995 -7 -16 -4 -1 -1 -7 2 2
1532259993915872 2 -17 -2 1 1 7 -3 -1
1532259993937814 4 6 5 -2 0 -1 2 -2
1532259993975712 5 42 4 -2 -2 -8 3 5
1532259993998651 0 -12 0 0 0 -2 -2 2
1532259994013611 -5 15 2 -5 -2 -1 -3 -3
1532259994073451 -3 -10 -4 1 -2 -5 -3 0
1532259994118331 -5 -21 0 0 0 11 -4 -5
1532259994147259 -6 0 4 1 0 4 1 -7
1532259994200118 -5 -4 0 -1 -4 22 2 -1
1532259994208096 4 -9 -5 -3 -1 -4 -1 -1
1532259994225052 1 -16 3 -1 -4 9 1 2
1532259994260961 -4 -14 -2 -3 -3 -3 -2 2
1532259994297863 4 -5 2 -2 -2 -4 0 7
1532259994342742 0 40 8 1 -1 -3 1 1
1532259994357703 0 -29 0 -1 -2 -21 -5 -2
1532259994395601 0 3 -4 0 -4 1 3 2
1532259994441479 -7 19 -8 -5 0 -5 0 3
1532259994501331 -10 -49 -8 3 6 9 6 13
1532259994554177 -2 0 -12 -4 -9 17 1 -1
1532259994598060 -5 6 -38 1 1 4 3 6
1532259994612023 -2 5 54 2 -2 -6 -1 -3
1532259994621018 2 -5 -8 9 3 3 -2 9
1532259994671863 -10 15 22 0 1 6 -1 -3
1532259994695799 3 28 18 0 -1 -3 -1 4
1532259994754657 -3 5 13 -1 -8 5 0 -4
1532259994770610 4 -2 -9 -12 -6 2 -1 -2
1532259994791543 -1 -1 -4 -4 2 4 -1 0
1532259994800519 1 19 -3 -9 -6 -3 -3 2
1532259994817473 -1 0 -1 -2 3 0 -3 0
1532259994851383 -3 2 -2 3 3 1 0 0
1532259994898257 -1 7 -2 -3 -3 1 -2 -1
1532259994912220 -1 5 9 -9 2 1 -1 -1
1532259994935159 -1 -34 -9 -7 -1 -2 -1 0
1532259994958097 -1 2 -6 -4 0 0 -1 -4
1532259994981036 5 20 9 15 6 2 2 3
1532259995008961 -7 -73 4 16 -8 0 2 1
1532259995040876 -7 -6 1 1 -3 -1 0 1
1532259995054839 0 -1 -3 -6 -7 0 1 -1
1532259995091740 3 14 9 8 -2 -1 0 0
1532259995138621 -2 -7 -1 -5 -3 1 -2 -2
1532259995189479 -2 -19 -6 -28 -7 -5 -2 -1
1532259995249319 -2 0 -26 -9 1 -4 -2 -1
1532259995320134 -2 -15 -19 -5 4 3 0 -1
1532259995341073 1 4 13 10 -7 -2 -2 0
1532259995384956 1 -20 -4 -3 3 -3 -2 0
1532259995437815 0 1 -1 -15 -6 -3 -1 1
1532259995460753 -2 3 -13 -6 1 -2 -1 -1
1532259995474716 1 1 3 10 5 -1 0 -2
1532259995536550 -1 -7 -10 -6 -12 -3 -1 -1
1532259995580433 1 3 -8 9 3 1 1 0
1532259995594396 -2 2 -6 -12 -7 -3 -1 -1
1532259995640273 0 -2 -2 11 5 2 1 1
1532259995663212 -3 -3 -7 1 11 -1 -2 0
1532259995686150 -2 -2 5 -10 -8 -3 -1 -2
1532259995714075 0 -2 0 -6 -9 -1 -2 0
1532259995731034 -4 -4 -10 0 15 2 -2 -6
1532259995773916 -4 -1 1 1 -3 0 -1 -2
1532259995799851 -1 7 -2 1 1 1 0 -2
1532259995834753 -1 -8 -6 -3 0 -5 -2 -2
1532259995888609 -10 2 1 2 -2 -2 -3 -5
1532259995949446 4 3 0 0 1 0 -4 -4
1532259996001308 -25 0 -1 -1 -1 -1 3 19
1532259996127969 -12 -5 -3 -13 -3 6 11 4
1532259996163874 -56 -1 -3 -1 -1 0 -3 -7
1532259996225708 3 -13 0 -3 -1 -2 -5 -14
1532259996241664 42 7 -1 -4 -3 -3 -5 16
1532259996278567 -15 7 0 -3 -1 0 -2 -10
1532259996292529 -12 2 0 0 1 -1 -2 -15
1532259996330428 -17 -2 -5 -6 -5 -5 -3 -9
1532259996353368 2 -6 0 4 2 1 2 -6
1532259996375307 19 2 0 -2 0 1 -2 -6
1532259996405228 2 -2 0 0 3 1 -2 4
1532259996443126 -3 7 -3 -2 -6 -3 1 2
1532259996481024 -2 -1 -2 -2 -3 0 -3 -3
1532259996539867 -4 -3 -11 -9 13 2 0 0
1532259996563803 -3 -2 -19 11 -7 -32 -24 -2
1532259996577766 0 -4 11 -15 -8 -5 -6 -1
1532259996599707 -1 1 9 19 6 4 3 -2
1532259996645590 -4 -7 9 3 7 2 11 -1
1532259996704427 3 3 -18 -14 -8 -5 -1 -1
1532259996757286 1 1 -2 -10 5 5 3 -2
1532259996826102 -1 -3 4 -12 8 0 -8 -1
1532259996863003 -2 -17 -5 -5 -9 -8 -2 -2
1532259996983680 5 -23 -7 -1 -3 -11 -1 -14
1532259997019585 -13 -6 17 0 -2 -5 -11 -8
1532259997072443 6 -19 21 11 -1 -33 -21 0
1532259997193121 0 -18 69 3 0 20 5 42
1532259997276897 7 37 -85 8 7 -31 -19 23
1532259997402560 -19 -8 12 3 1 -14 -12 -65
1532259997678822 -17 30 -10 -1 4 6 7 12
1532259997740656 -3 -55 -33 -7 -4 -1 -44 0
1532259997808474 7 1 -12 1 0 4 7 18
1532259997859338 -9 -31 -7 -1 -2 -2 3 -3
1532259997898235 9 50 18 2 2 1 6 2
1532259997981014 0 2 -4 1 -3 -1 -1 -1
1532259998009936 2 16 0 -13 -4 -1 -1 0
1532259998144577 -8 4 5 1 0 0 2 0
1532259998288192 3 -1 66 -1 -1 12 3 3
1532259998311131 2 -6 -2 2 -8 -36 -9 -1
1532259998363007 -8 17 9 -14 -4 -12 1 0
1532259998392912 2 20 3 4 1 1 0 0
1532259998421835 1 -5 14 -9 -3 0 -3 -3
1532259998481675 -28 -2 -127 1 -5 -4 -5 -7
1532259998505611 8 7 22 -5 2 7 3 5
1532259998543509 29 -22 -35 -5 -4 19 0 6
1532259998573430 -4 -18 53 -1 -2 -6 -2 0
1532259998662192 9 -29 -25 7 7 4 5 -1
1532259998714053 -9 1 -28 -3 0 2 2 55
1532259998744972 -21 -94 4 1 9 1 6 0
1532259998766912 -26 83 44 0 -3 -2 4 -7
1532259998792842 13 -68 19 -2 0 -1 -6 -21
1532259998827749 0 -8 -2 11 22 2 3 4
1532259998871632 -2 -8 4 5 4 0 1 -5
1532259998910528 -4 0 -11 -13 -8 -1 0 0
1532259998925488 -11 7 0 -13 -6 -4 -2 -2
1532259999054144 17 -5 33 -3 -9 -3 -3 -3
1532259999076085 9 -15 23 0 3 1 -2 5
1532259999187787 6 8 14 7 25 2 1 7
1532259999224688 -11 -110 7 6 3 2 3 -1
1532259999293504 7 -12 5 0 0 7 2 4
1532259999330405 -10 17 19 4 3 0 1 2
1532259999368304 -7 31 2 7 0 -5 -3 -2
1532259999473024 2 -33 3 -15 -11 -3 -2 0
1532259999547824 -7 0 -66 14 2 1 2 3
1532259999644565 25 10 9 14 4 2 2 1
1532259999698421 -21 17 -12 -2 4 0 -3 -3
1532260000128271 -9 -2 2 1 -6 -1 0 -2
1532260000237979 0 -6 -2 -6 -5 0 1 1
1532260000516234 3 -1 2 -6 -3 0 -1 -1
1532260000552138 0 -2 -11 -3 1 1 0 -1
1532260000582058 -3 11 11 1 -1 0 -1 0
1532260000635914 -5 -44 -5 -3 -2 0 -2 -4
1532260000709717 -19 23 -2 2 -1 -2 -2 -4
1532260000755594 -3 -10 -1 -2 0 1 -2 1
1532260000770554 4 21 3 1 -2 -2 1 -1
1532260000794490 8 -4 -3 -4 -2 -2 -2 1
1532260000806458 6 -20 0 7 1 -1 0 -1
1532260000853333 -2 -41 17 -2 0 0 1 2
1532260000883252 -6 -27 4 0 -4 -2 -6 -2
1532260000936111 -33 -61 -30 -12 -11 24 22 10
1532260000949086 17 94 -27 5 6 -91 -30 -14
1532260000973013 -23 -47 -13 0 2 24 -9 -43
1532260001002933 19 -7 -72 10 7 33 3 7
1532260001032852 9 -19 41 11 7 -13 -8 -3

1532260001062773 7 -16 -28 -5 -5 2 -2 0
1532260001069754 2 26 -3 -1 -4 2 -7 -7
1532260001114634 -1 5 1 2 1 -7 -2 0
1532260001138571 -4 12 17 -10 -2 2 3 2
1532260001175471 0 34 24 -7 -5 -8 -1 -3
1532260001212373 -3 -30 -1 -2 0 -9 -3 12
1532260001249274 -3 3 -6 -6 -2 1 1 1
1532260001309114 0 35 15 -1 0 0 1 -2
1532260001333050 0 1 -3 -3 -1 1 1 -5
1532260001368954 14 -8 -2 0 -2 4 1 26
1532260001407850 1 15 10 -1 -2 -4 -2 5
1532260001429792 -4 6 -10 -1 0 -2 0 -9
1532260001438768 3 25 3 2 -1 -2 2 10
1532260001475669 -5 -17 1 -2 0 -3 -4 -11
1532260001489631 3 35 5 2 1 0 1 1
1532260001534511 2 15 -3 -1 -5 -17 -5 -3
1532260001573407 -4 7 1 -3 0 0 1 -4
1532260001609311 3 16 4 3 4 35 3 -1
1532260001632249 7 46 10 0 2 0 -1 -1
1532260001669151 -4 -22 -3 -1 3 4 3 1
1532260001701066 -6 8 8 3 1 1 1 -2
1532260001722011 1 -13 17 -1 -1 -4 -1 -1
1532260001752928 8 11 -2 0 -2 22 0 1
1532260001775866 -8 12 1 -3 -1 1 -2 -3
1532260001797807 15 -30 -9 -2 -1 -11 0 0
1532260001812768 -12 20 0 -2 2 -3 -2 14
1532260001865626 23 48 -7 0 -13 -71 -2 -46
1532260001894549 6 27 5 1 -3 36 2 28
1532260001918484 -2 -10 15 -1 -3 9 4 -3
1532260001977327 0 -13 33 0 4 3 -2 -5
1532260002001263 1 -2 -7 -4 -4 -5 -4 3
1532260002054122 -1 0 -3 -5 0 -2 0 0
1532260002076063 2 12 5 1 1 1 -1 0
1532260002119946 -3 11 0 0 0 1 -3 0
1532260002135903 -2 13 2 8 10 9 1 -10
1532260002171807 -4 3 10 1 4 3 0 -5
1532260002196740 1 31 9 6 6 3 -1 -1
1532260002256580 1 36 7 5 2 1 -1 -1
1532260002291486 12 9 -12 1 11 3 0 -2
1532260002330383 0 -2 3 3 -3 -1 -1 0
1532260002352324 -4 1 -6 -2 1 1 0 0
1532260002383242 0 -8 -4 -3 -3 -2 0 0
1532260002421141 1 13 5 20 19 2 0 0
1532260002458042 -1 -1 -2 -1 2 -3 -1 1
1532260002608639 -1 -3 -23 8 5 -1 2 1
1532260002638559 -3 3 -9 -18 -11 -1 -1 -1
1532260002675460 -1 1 4 4 2 2 -2 -2
1532260002735301 -2 5 2 -8 5 -3 -2 0
1532260002818079 -2 8 26 -22 1 -1 -4 -2
1532260002877918 2 4 -4 -17 -7 -3 -2 0
1532260002900857 3 -1 -16 -11 -16 -5 -3 1
1532260002913823 2 -1 4 -4 0 0 -2 0
1532260002937777 -4 -4 -14 3 10 4 2 0
1532260002982639 2 2 -3 7 -1 1 0 2
1532260003005578 -4 4 -5 7 13 -2 0 -5
1532260003042478 -1 1 0 -10 2 -2 -2 -1
1532260003081375 3 0 -11 -1 -1 -7 -3 -2
1532260003104314 -1 1 -12 2 -2 -2 -1 -6
1532260003179113 -1 3 2 0 -8 -3 -2 -1
1532260003200058 -2 2 3 -2 -9 -4 -1 -2
1532260003267877 22 1 -3 2 4 0 1 7
1532260003305774 11 -11 -10 -4 -3 0 4 19
1532260003380574 29 2 22 22 10 1 7 24
1532260003420468 65 5 3 1 4 3 1 -7
1532260003441446 55 -21 -6 -2 -2 1 -19 45
1532260003523194 -22 -30 -7 -10 -1 -2 2 -25
1532260003537156 3 24 7 8 5 3 -6 -1
1532260003568097 -10 31 2 4 6 1 -1 -16
1532260003591013 -11 -14 -3 -6 2 -4 -3 -10
1532260003642874 4 -13 -5 1 3 2 3 11
1532260003657833 -30 6 -3 -3 -3 -4 2 3
1532260003679775 6 5 3 -6 -3 -1 0 -3
1532260003719668 -20 6 -8 -6 -2 -1 -1 -6
1532260003732633 -15 7 6 1 2 0 -2 0
1532260003770547 3 10 -4 -7 -3 -1 -2 -1
1532260003799454 0 -10 -2 -3 3 -1 0 3
1532260003847327 -5 -9 -2 1 2 -1 0 1
1532260003944068 -2 8 5 0 2 -1 -1 -3
1532260003957032 1 9 -1 -6 17 7 1 2
1532260004001913 0 -7 0 -12 -15 -2 12 1
1532260004017871 -5 15 9 -8 -20 0 -1 0
1532260004063748 1 -3 4 6 -12 -5 -3 0
1532260004086687 0 -11 -13 8 39 3 -1 2
1532260004123588 -3 18 16 1 -16 -2 0 -3
1532260004213347 -13 -3 -6 14 9 29 10 1
1532260004250254 -2 15 0 10 4 5 5 -10
1532260004276189 -24 -3 -5 4 -14 -12 94 -55
1532260004362947 -1 6 -15 2 -2 -6 -24 22
1532260004422788 -5 10 -1 15 6 12 -2 5
1532260004528505 6 4 -15 -3 -1 0 -4 2
1532260004603305 11 17 7 -3 -13 -24 -4 22
1532260004693064 16 -70 -13 3 5 -1 10 -35
1532260004745924 -14 15 16 2 0 -20 -1 76
1532260004947385 0 15 9 2 2 4 1 14
1532260004970323 2 -1 -10 -2 1 15 4 0
1532260005054101 9 11 28 2 0 -7 -17 2
1532260005128900 2 6 -10 2 0 1 -1 -3
1532260005196718 -2 30 10 1 0 -3 9 3
1532260005257556 0 1 -2 -15 -6 -4 1 -2
1532260005332356 -1 -24 -5 7 -3 -4 1 -1
1532260005384217 11 -1 -8 -4 -1 -3 0 3
1532260005585678 -2 -4 40 -5 -2 -2 -4 4
1532260005930755 -2 1 12 -3 -2 -3 -8 -29
1532260005945716 1 -11 5 4 -2 1 2 12
1532260005981619 9 58 12 9 7 4 -1 2
1532260005998574 -8 37 -1 -2 11 3 1 0
1532260006041459 -2 0 -1 6 -3 -5 -1 2
1532260006080355 1 4 -5 6 5 2 1 2
1532260006156153 6 13 13 -21 14 7 3 3
1532260006208014 2 -8 -6 -29 -12 -8 -3 3
1532260006230953 -9 2 13 -3 3 3 0 -3
1532260006328691 1 -18 -25 6 -3 -2 -3 -4
1532260006395513 -3 21 23 3 0 -2 -1 1
1532260006418450 3 6 7 -4 -4 -1 0 1
1532260006494249 2 -48 -10 -6 -3 -2 -1 4
1532260006568050 5 1 -4 14 3 0 1 2
1532260006703688 -8 -3 28 27 6 1 1 -3
1532260006831347 -5 11 -1 8 6 1 -1 -4
1532260006853288 -1 -6 -13 0 -4 -2 0 2
1532260006913128 -5 5 -6 0 2 1 -3 -4
1532260007130546 0 -11 32 19 1 -1 -1 1
1532260007573362 2 11 -10 -11 -13 -6 -5 -1
1532260007752883 -2 4 5 6 0 -2 -1 -3
1532260007880541 2 -23 19 1 2 -1 1 3
1532260007886526 -4 -11 -16 -2 1 1 -2 0
1532260007933400 12 12 1 -9 -1 2 0 1
1532260008007203 -20 10 3 -10 -4 0 0 -4
1532260008040121 -24 -16 -7 -4 1 2 -1 2
1532260008044105 -17 6 7 -5 -5 -3 -3 -2
1532260008097959 -16 -9 26 3 -1 2 0 -6
1532260008157800 -18 -74 -16 -1 -1 -23 -18 -54
1532260008172760 17 7 -6 -7 -19 127 -12 43
1532260008216642 24 -34 -2 -33 -3 -7 -9 -30
1532260008278477 -5 -73 -55 -5 -5 -3 -9 -31
1532260008293444 7 5 25 2 5 -4 3 -2

1532260008367239 -5 -9 12 -5 -2 0 -3 1
1532260008413143 3 10 5 34 10 2 -2 2
1532260008436085 -2 -5 -7 -11 -5 -7 0 1
1532260008450044 0 -28 1 -3 -2 -2 -2 44
1532260008495921 -23 -72 -11 -9 -5 -6 -5 -16
1532260008517862 8 73 7 -6 -2 -4 -7 -8
1532260008539804 -10 -3 -2 2 2 -2 -2 -13
1532260008637563 -3 6 -1 1 -3 2 0 -1
1532260008655495 -2 2 1 -3 -1 -3 -2 3
1532260008704391 1 -2 -1 1 0 2 1 -1
1532260008735309 -1 -7 -6 -2 1 -1 -1 -2
1532260008781186 -20 -15 -3 1 0 0 -1 -2
1532260008818088 4 -10 -17 -3 0 -1 -2 0
1532260008855986 -4 33 0 3 2 0 -4 -6
1532260008885906 -1 -11 37 0 0 0 -2 -2
1532260008915826 -3 -20 9 1 -3 -1 -1 -6
1532260008941773 8 -9 8 -1 -2 -6 -1 2
1532260008990626 -18 -5 25 4 4 4 1 -7
1532260009013565 0 25 0 -6 -1 -1 -2 9
1532260009064428 1 43 -5 -11 -26 -83 -12 0
1532260009109309 3 -40 -1 -19 -6 3 -7 -11
1532260009132248 0 12 61 -18 -12 -14 -4 -1
1532260009185106 -1 3 56 13 2 14 1 0
1532260009208044 2 -32 -26 9 -1 -15 -2 -3
1532260009231000 0 -17 4 -1 -1 -8 -2 -1
1532260009258937 2 34 -15 -3 -5 0 -4 -3
1532260009277887 -3 -33 -19 7 0 0 1 1
1532260009341716 -2 11 2 1 0 3 1 0
1532260009350692 5 34 -8 -1 7 2 -1 0
1532260009462393 5 23 -1 -3 -1 2 0 1
1532260009531208 -1 1 -11 -3 2 3 -4 -1
1532260009561129 0 -7 -5 -16 -5 -6 2 0
1532260009590051 2 2 -2 -9 -5 42 6 -1
1532260009620970 -1 2 -2 -1 -1 8 -2 -2
1532260009664851 -1 -1 -6 -2 4 -8 -1 -3
1532260009747630 -1 -28 -20 -1 -4 0 -1 0
1532260009816446 0 -1 3 14 -4 -2 -2 0
1532260009943107 -1 -4 15 22 3 -2 -1 0
1532260009957070 0 -10 -13 -32 -13 -5 -3 -3
1532260010016909 -3 0 5 9 -4 2 0 -1
1532260010039848 -1 1 8 6 52 4 0 1
1532260010145566 3 6 -9 -3 -20 -3 1 1
1532260010160529 2 3 13 -1 2 2 0 -1
1532260010250286 -9 0 2 23 21 5 3 12
1532260010288184 -5 -3 1 2 3 -1 -4 -9
1532260010364979 -1 -6 -4 -2 -3 -1 -1 -5
1532260010385923 26 -5 -2 0 -2 3 4 17
1532260010469699 -18 -3 -1 -5 -3 -1 0 -3
1532260010564446 2 0 0 0 1 1 0 -6
1532260010605336 -19 -3 2 0 4 2 34 14
1532260010610323 -7 16 0 1 -2 0 -18 -38
1532260010655203 22 -7 14 6 -1 -1 9 44
1532260010692104 -23 22 1 1 2 1 2 22
1532260010708061 -28 1 1 -1 3 -1 14 -8
1532260010744964 -2 -12 -5 -3 2 -1 -3 -15
1532260010783860 30 17 6 4 6 4 7 36
1532260010806798 -34 -5 0 0 0 2 1 -12
1532260010850681 25 6 -8 -5 3 1 8 41
1532260010880600 12 4 -3 -2 1 1 0 -3
1532260010957396 -13 -10 -1 -1 0 -3 0 -5
1532260011001278 -2 6 7 2 -7 0 -2 -2
1532260011032195 -5 6 23 -1 -11 -4 -3 -3
1532260011061118 -2 2 -13 -17 -2 3 1 0
1532260011091037 -6 -15 -7 -11 -2 -5 -1 -1
1532260011134921 2 -18 4 -4 3 -3 -10 -3
1532260011161848 -3 -2 -18 -37 -2 -8 -2 24
1532260011195758 -5 -19 15 12 11 4 13 23
1532260011209721 -15 -6 2 26 6 10 -5 -23
1532260011292499 0 -12 -12 -18 -12 -1 2 25
1532260011360317 -6 -25 -1 5 -3 -1 11 -20
1532260011480995 -7 -11 3 1 4 18 27 22
1532260011546819 -1 -18 4 2 0 -5 -67 -15
1532260011630595 -12 -4 29 -1 7 -17 -9 -39
1532260011720355 4 -13 -27 7 11 9 -14 33
1532260011766243 1 -40 16 2 -8 -24 -2 26
1532260011789170 -15 -15 5 1 -6 -8 0 -5
1532260011862973 -5 22 0 -5 -3 4 -2 2
1532260011907853 7 -20 2 1 0 4 13 8
1532260011985646 1 1 -83 -14 -8 -4 -31 3
1532260012163171 -8 43 -27 3 0 -5 -54 -28
1532260012336706 -4 6 -3 -3 -1 -2 4 -1
1532260012425469 1 -2 6 1 2 -1 0 -2
1532260012464365 0 25 -1 -3 -2 0 1 1
1532260012546147 0 -2 4 -2 2 0 -5 -6
1532260012568088 7 31 5 4 2 0 0 12
1532260012665826 -6 6 30 -1 -3 -1 -3 -6
1532260012679789 3 -6 -23 1 1 1 2 -2
1532260012739629 -8 -51 13 -1 0 -1 -1 4
1532260012763565 -6 -25 -18 -6 -4 -3 -5 -2
1532260012801465 1 -8 60 8 3 0 1 2
1532260012823405 3 13 -18 21 3 0 -2 -1
1532260012853325 -6 8 1 -16 -2 0 0 0
1532260012868285 4 5 19 -16 -3 0 0 0
1532260012892255 -11 -5 -10 -14 -2 1 0 -2
1532260012928153 6 2 4 -16 -2 0 -1 -4
1532260012966052 -12 30 -19 -7 -6 0 -2 -7
1532260012987996 -3 9 9 4 -3 -1 1 2
1532260013008937 5 14 5 -6 2 -1 -2 -2
1532260013039854 23 -17 -3 -20 -10 -5 -2 7
1532260013069775 -22 -31 4 -1 -2 -4 0 -5
1532260013094708 -5 24 24 4 -1 0 2 3
1532260013129615 5 -6 -27 -1 2 2 1 1
1532260013204416 -5 52 5 2 -2 -4 -7 -2
1532260013348031 3 -7 19 0 -6 -1 0 -2
1532260013430809 -19 -26 -103 -41 -14 -5 -3 -6
1532260013481673 6 1 -21 -18 -11 -2 0 5
1532260013625289 -8 -92 11 -3 -2 -2 -3 -4
1532260013662191 2 -9 18 5 0 0 0 10
1532260013722031 12 38 2 3 -1 -3 0 -5
1532260013768905 5 -12 -40 -6 -4 -3 3 8
1532260013835726 -2 -7 -48 -26 -5 -1 1 -2
1532260013850686 11 6 66 35 10 2 0 3
1532260013895566 17 6 12 -20 -1 4 1 4
1532260013918505 8 -11 -12 -12 -6 -3 0 1
1532260013948424 0 38 21 8 -7 -15 -11 -6
1532260013971364 -9 -7 2 0 6 4 1 -7
1532260014091044 -7 2 25 -1 -2 -2 -1 0
1532260014164847 1 63 29 7 0 1 -1 2
1532260014187785 -1 -15 -42 -7 3 0 3 1
1532260014255604 -3 -2 42 1 7 8 5 -1
1532260014593700 -7 -33 18 -3 -5 -3 -3 3
1532260015013577 -1 -13 9 32 12 0 1 1
1532260015087379 5 24 -5 -3 -2 0 -1 0
1532260015110318 -3 22 9 -17 -7 -2 -4 0
1532260015275890 2 4 5 -2 0 0 -2 -3
1532260015365635 3 4 -8 -3 -2 -1 0 -2
1532260015418494 -5 -27 1 15 6 -2 -2 -1
1532260015448414 11 39 10 -10 -5 -3 -3 0
1532260015456407 13 -24 4 7 2 1 1 1
1532260015493294 -9 5 2 -5 0 2 1 -3
1532260015515235 -4 -56 5 -1 -1 0 2 0
1532260015592029 -4 39 3 4 -5 12 -11 -80
1532260015612974 -2 -46 11 -3 -7 1 -17 -1
1532260015650872 23 36 -1 15 -2 2 7 20
1532260015694755 15 24 -6 -43 -18 -12 -7 -12

1532260015725673 18 32 -16 15 6 9 8 2
1532260015769555 1 -4 15 0 0 1 6 13
1532260015806457 -2 27 -9 26 13 6 0 -7
1532260015836376 -4 22 5 -2 -2 -2 1 3
1532260015890232 4 -20 -8 -4 -3 -4 0 -3
1532260015906189 -9 3 7 2 0 0 0 14
1532260015936110 -2 21 18 1 -1 0 0 0
1532260015957054 -1 5 -2 -1 1 0 2 -2
1532260015980990 -2 -15 3 0 1 0 -3 -5
1532260015996947 6 6 2 0 -3 1 2 6
1532260016016894 4 -3 -3 0 0 0 -1 -1
1532260016034846 -4 -54 -15 -5 -3 -2 0 3
1532260016057784 4 10 0 -2 -2 -3 1 2
1532260016076734 -2 -10 -6 -3 -2 -1 -2 0
1532260016094686 -8 -13 -6 -2 -1 0 -3 -4
1532260016124611 0 2 -2 0 -1 -1 0 0
1532260016136574 -8 14 2 0 -2 -1 2 2
1532260016175469 4 21 0 -3 -3 -1 -2 0
1532260016189438 -9 -9 -1 2 2 -2 3 -2
1532260016198408 1 27 11 0 -2 0 -1 -1
1532260016235310 2 -16 -9 -1 -3 -1 0 -1
1532260016273208 0 29 -13 -2 -1 -2 -5 -5
1532260016309113 0 -18 -34 -1 0 1 -1 -1
1532260016334045 -5 16 8 0 1 -1 0 1
1532260016368952 -3 -34 -2 0 1 5 -2 6
1532260016391891 -7 33 6 -2 -3 -11 -1 -2
1532260016452728 5 6 -5 -6 -10 -15 -19 26
1532260016483646 4 13 -8 -1 5 42 8 -12
1532260016543486 -7 3 -50 3 2 0 4 -5
1532260016574403 -1 1 112 0 -3 -3 2 -6
1532260016595347 3 -3 0 -3 -1 -4 -1 2
1532260016633245 1 24 80 -3 -2 0 -3 -5
1532260016642222 7 -29 -29 0 1 -4 -1 -1
1532260016679123 -3 10 14 -6 -10 1 -1 1
1532260016753923 0 -38 -11 10 2 -1 -1 1
1532260016805784 -2 0 -4 0 1 -3 -2 -2
1532260016834707 4 2 2 18 15 2 -1 1
1532260016903522 -6 -6 -5 -4 -8 -3 0 -1
1532260016917486 0 2 1 -8 1 3 1 -1
1532260017039160 1 -26 -18 31 36 5 0 1
1532260017098018 0 3 11 0 4 2 0 2
1532260017165821 -1 -1 8 4 -19 -5 0 -5
1532260017179784 1 -3 -29 -21 -34 -3 -1 1
1532260017232643 1 3 9 -10 26 8 2 -3
1532260017254584 2 2 -14 84 23 4 2 2
1532260017294477 -13 -13 -32 -89 -31 -38 -8 -4
1532260017316419 2 -5 0 -30 -18 -6 -5 -8
1532260017451058 -3 0 3 -9 34 -4 -2 -8
1532260017541815 2 -2 -2 4 20 6 1 -3
1532260017609634 30 2 2 2 5 0 -1 8
1532260017700392 -4 7 7 -3 -1 0 -1 1
1532260017734301 30 18 -4 -5 1 2 -1 -19
1532260017810098 -8 1 2 5 0 1 1 -4
1532260017894879 1 12 7 6 4 -2 -1 -1
1532260017931774 -1 -11 -9 -6 -1 -3 -2 -2
1532260017997597 -7 12 -3 -3 2 1 -1 0
1532260018023543 6 -1 0 -1 -3 0 0 -9
1532260018095336 -8 1 0 -1 3 0 0 12
1532260018118274 5 10 1 3 6 -1 0 0
1532260018147197 1 -1 0 6 12 1 0 -1
1532260018208034 1 -3 -2 3 11 1 7 -3
1532260018239948 0 -1 -3 -8 -18 -5 -4 3
1532260018276850 0 -8 -8 31 -10 0 -4 -1
1532260018297795 -1 2 2 -21 27 -4 -2 -1
1532260018327715 -3 2 -6 26 -25 -9 -1 -6
1532260018373592 1 -16 4 25 35 3 3 -3
1532260018417474 2 -3 9 -13 -28 2 -2 0
1532260018462354 -2 -55 -13 -4 2 -3 -7 28
1532260018478311 0 47 4 3 4 11 -2 60
1532260018627911 -6 -21 -12 10 11 -34 -2 -14
1532260018643869 0 4 2 3 -1 -2 7 44
1532260018754573 -1 25 -17 -14 -11 -24 -12 -40
1532260018823388 -2 -7 -10 -15 -15 -9 7 -2
1532260018897191 15 -19 -5 5 3 -19 29 30
1532260018972989 1 2 0 7 7 4 7 6
1532260019039811 -4 -7 2 0 0 -6 -2 17
1532260019070744 -13 8 4 6 3 1 0 -34
1532260019131565 -19 -13 -14 -2 -2 0 -3 -12
1532260019183427 -2 -7 32 0 -4 -3 -5 -8
1532260019274183 2 -12 -81 -8 2 -1 -5 -6
1532260019319064 0 26 -6 -3 -3 -9 -11 8
1532260019416801 16 28 1 1 -2 -8 -6 7
1532260019467666 0 -4 3 -4 -5 -3 -6 1
1532260019602307 8 -26 -3 0 1 -3 -6 -3
1532260019647188 4 -39 -9 2 1 0 1 0
1532260019689076 4 -28 7 3 -1 -2 -2 -2
1532260019708030 4 -15 -16 1 3 0 -1 -2
1532260019737943 4 8 -6 4 0 -2 -3 1
1532260019782825 -1 4 6 -1 -1 -1 -3 0
1532260019789805 -1 -14 27 -3 -3 -2 -2 -1
1532260019831693 -4 3 -4 1 -1 -1 -2 -3
1532260019849644 1 12 2 -3 -7 -1 3 1
1532260019897517 2 -11 32 27 2 1 1 2
1532260019916467 -2 -30 -31 4 -3 -4 0 -2
1532260019950375 -2 11 33 -1 2 3 0 0
1532260019999245 -12 -17 -1 -6 0 2 1 -1
1532260020037143 11 -6 -2 -2 -4 0 -2 -4
1532260020059084 -21 -52 -108 31 8 2 0 -7
1532260020082023 -9 42 105 -9 -5 -2 -2 -2
1532260020119922 -4 4 -16 4 -1 -1 0 2
1532260020165799 -11 5 -1 -15 -3 0 1 -3
1532260020308418 3 17 12 -9 -10 -4 -2 -2
1532260020368258 1 2 -21 -1 -5 -3 -3 -3
1532260020428098 10 -19 -34 -12 -6 -3 -2 -3
1532260020449042 -16 11 23 10 3 0 -1 -2
1532260020548783 6 8 8 4 -3 -3 1 3
1532260020585677 2 -4 -24 0 -3 1 -1 -1
1532260020622578 8 -11 -21 -1 -2 -1 7 9
1532260020645516 3 -18 -4 1 3 0 -3 -1
1532260020689399 -5 1 -30 -11 -3 -7 -5 -3
1532260020766200 41 2 -10 55 17 13 0 3
1532260020855954 -13 11 26 -14 5 1 2 -5
1532260020930770 4 -14 -18 -19 -5 -1 0 3
1532260021073372 29 -47 5 5 -1 -1 4 12
1532260021193052 -5 -16 -4 -14 -9 -3 -1 3
1532260021245910 0 16 1 5 0 2 0 1
1532260021290791 1 23 5 1 -9 -3 -2 1
1532260021357612 2 8 -19 -1 -11 -2 -1 -1
1532260021531149 -12 -1 -21 4 3 -1 2 -2
1532260021673767 -5 7 3 2 0 0 0 -5
1532260021807409 8 -18 -2 1 0 -1 -1 -2
1532260021890188 5 21 6 0 -1 0 0 -1
1532260021936065 -10 39 18 0 -2 -1 0 -3
1532260021958007 0 -11 13 3 1 0 1 0
1532260022032807 3 37 -2 4 3 1 4 1
1532260022084668 -26 -65 28 -1 -14 74 44 35
1532260022130545 25 19 -20 -14 1 -19 -12 -24
1532260022159468 7 -21 -76 2 -4 -1 -5 12
1532260022184402 0 -66 54 3 4 5 -1 -20

1532260022251236 8 -13 6 0 1 -1 -2 4
1532260022296103 4 45 28 38 11 -1 -2 -1
1532260022318044 -1 4 9 -12 -1 -2 -1 3
1532260022377884 2 34 13 0 -3 -12 -5 2
1532260022444705 5 13 5 -1 -2 -1 1 1
1532260022490583 -4 -3 -8 0 0 0 1 0
1532260022504546 -2 1 8 1 -1 -2 -2 -3
1532260022534039 0 27 10 0 0 -9 -5 -3
1532260022588889 3 1 -4 -1 0 0 0 1
1532260022610830 -4 -23 0 1 2 -3 -2 -2
1532260022640764 -10 -43 2 1 0 1 0 -2
1532260022657719 -1 42 10 1 0 1 -1 0
1532260022693623 1 29 1 -3 -1 0 2 0
1532260022715564 2 -19 -3 -3 -2 0 -3 -3
1532260022767441 -4 2 1 1 -2 -2 -2 2
1532260022774407 1 21 6 -2 -1 -1 -2 -1
1532260022827265 -6 -8 0 0 0 -2 -1 -3
1532260022834247 1 16 2 0 -3 2 -1 -1
1532260022866162 4 6 8 -1 -2 -2 0 3
1532260022887105 1 6 -8 -1 4 2 -2 2
1532260022917025 -1 -6 -4 1 -3 -6 -3 -1
1532260022946945 2 -1 0 -2 -2 -5 0 0
1532260022970881 1 -27 -3 -1 -2 13 -3 -1
1532260023016787 0 -15 4 1 2 0 -1 1
1532260023030749 -5 9 3 -3 -2 3 -2 -2
1532260023068650 -1 16 6 -1 -3 -8 -1 -3
1532260023083607 -4 -11 -14 -1 0 3 0 -1
1532260023120509 2 -16 -7 -1 -1 1 0 -1
1532260023150428 -3 13 22 5 3 -18 0 2
1532260023172370 3 -5 2 0 -5 -9 -5 -3
1532260023195309 -6 31 0 -5 -6 9 1 -3
1532260023232210 9 -9 26 -5 -2 -1 -27 -11
1532260023255151 23 14 -6 1 2 -17 7 1
1532260023270109 -15 2 1 -1 0 -12 8 0
1532260023314988 2 -23 0 2 1 15 4 4
1532260023336931 -9 -1 65 3 -2 -4 2 2
1532260023374829 -7 -38 52 -5 -3 0 2 0
1532260023397780 -1 -11 -27 0 -1 4 -1 -2
1532260023419709 -2 2 13 31 7 -4 1 1
1532260023437661 -1 1 -29 -9 -2 17 2 1
1532260023487528 -2 -13 13 45 9 0 3 -1
1532260023532407 -1 -14 -15 -6 -5 -6 -2 -2
1532260023570318 0 3 12 12 10 -7 0 1
1532260023615186 2 -2 6 2 -5 -6 -3 -2
1532260023652088 4 5 -1 10 7 5 2 -1
1532260023691981 -4 -33 -5 -14 -12 1 -3 -1
1532260023712925 -6 11 0 -5 0 2 -1 0
1532260023751821 -15 -5 3 -5 -5 3 3 -3
1532260023794706 -3 -15 -11 7 14 4 1 0
1532260023825624 -1 -14 0 -10 -3 -1 0 1
1532260023892445 2 24 18 8 21 3 -1 1
1532260023915384 1 -5 -17 10 8 4 1 3
1532260023945304 2 0 14 34 12 2 0 0
1532260023975223 5 26 -11 -3 21 2 1 0
1532260023990183 -4 -4 -2 0 0 1 3 -4
1532260024012125 -4 -6 -9 -12 -12 -5 -4 -2
1532260024043042 -2 -8 -1 6 3 0 0 -1
1532260024072962 -6 -7 0 -6 -11 -2 1 -5
1532260024110861 -2 -6 4 0 4 3 0 0
1532260024132802 -13 -28 -7 5 7 5 1 -5
1532260024178679 1 -1 -8 -6 0 -3 -2 0
1532260024193639 0 12 1 -11 -12 -5 -1 0
1532260024245501 1 -4 -4 -5 -5 -2 2 15
1532260024275421 2 5 -9 -4 -1 -5 -3 6
1532260024305353 35 -2 -6 4 -5 -1 0 -3
1532260024343240 -2 0 -2 0 -4 0 4 13
1532260024471895 39 -1 2 3 1 2 2 28
1532260024500818 30 -7 -4 -7 -4 -1 10 9
1532260024552679 -18 8 2 9 -1 4 1 -9
1532260024598557 -8 -19 -4 -5 1 -3 -5 -9
1532260024612519 -8 4 -6 -3 -5 -5 0 -1
1532260024635458 -5 -1 14 20 7 4 3 8
1532260024675369 8 17 -2 -11 -3 -2 -1 -3
1532260024680338 -4 -4 -3 -3 0 -3 -1 -4
1532260024725218 1 0 -6 -4 -5 -1 -1 4
1532260024755139 -7 5 -1 -1 4 0 0 -3
1532260024778076 1 2 0 -1 6 2 -3 3
1532260024800018 1 -7 0 -4 -5 -3 -1 -1
1532260024822957 -1 -14 -3 -2 -13 -5 -1 5
1532260024851879 -3 -1 8 7 -19 4 1 -45
1532260024874818 1 10 0 -1 5 -2 -1 12
1532260024897756 -5 -21 -8 -4 4 -3 1 5
1532260024912717 1 -3 -1 -18 8 -1 -3 0
1532260024950616 -1 -7 -74 -24 -3 -4 -1 7
1532260024995495 2 10 -6 54 19 7 2 2
1532260025018438 3 6 -86 -22 23 6 3 1
1532260025078274 -5 -13 34 -7 -1 -2 -5 -39
1532260025115188 16 6 33 -1 -8 -18 7 77
1532260025204935 -26 -12 3 -2 3 -10 4 -59
1532260025230866 -2 -36 -30 -7 6 -2 31 -6
1532260025287714 10 13 23 0 -4 -20 4 39
1532260025340573 -8 -8 -12 0 -6 -16 -4 -44
1532260025430332 6 -8 -13 -5 -3 0 -13 -17
1532260025617831 -9 41 -13 0 -1 -4 -16 30
1532260025731536 -14 -15 -24 -18 -14 -4 9 -16
1532260025790370 -17 -11 -64 1 -1 3 -3 -52
1532260025902071 -4 -5 -21 6 3 10 5 0
1532260025927004 4 -10 -23 -6 0 7 18 -12
1532260025992829 8 2 10 3 -1 -1 6 -7
1532260026076604 -12 -9 -30 -12 -5 -7 -9 -6
1532260026143426 -2 21 2 12 8 2 1 1
1532260026360844 0 32 12 -5 -5 -1 0 -3
1532260026398743 -1 0 -18 -5 -3 -2 -1 -12
1532260026443623 1 15 -25 -1 1 2 0 -2
1532260026465564 -4 -25 9 -9 -3 -2 3 -2
1532260026488503 -3 26 1 -17 -4 -1 -2 -3
1532260026517425 -15 -19 -22 -6 -5 -1 -3 -4
1532260026541361 5 -17 19 -14 -6 -1 -3 -1
1532260026563302 7 19 48 8 3 0 1 -1
1532260026577265 14 6 -28 5 3 2 0 2
1532260026608183 -2 2 12 17 -1 0 1 -2
1532260026623142 -18 -31 -76 -40 -11 -3 -2 -5
1532260026661042 -7 27 38 -19 -8 -3 -4 -5
1532260026690961 -7 -20 -9 -8 -3 -1 0 2
1532260026750802 14 -17 -21 -3 -1 -1 0 3
1532260026803660 -8 19 7 1 -1 0 -4 -6
1532260026825601 -21 26 19 -5 -2 -3 -4 -6
1532260026842556 -1 18 48 7 4 -1 0 -3
1532260026872476 8 -45 -14 -2 3 1 -3 12
1532260026902396 8 -44 13 -4 -1 0 12 31
1532260026907383 1 8 -9 -4 -2 -4 -4 -29
1532260026937302 -12 -37 -56 -6 -4 -3 4 -11
1532260026968219 13 61 16 4 -6 -2 2 35
1532260026997143 -2 3 26 4 2 0 0 -9
1532260027020082 23 -6 -27 -11 -4 -2 1 -2
1532260027043020 10 17 -33 20 5 1 1 0
1532260027080919 3 32 33 -6 0 -2 0 2
1532260027102860 -16 -17 19 -4 3 4 0 -3
1532260027139761 -24 -30 -1 8 6 2 0 -10
1532260027146743 13 -20 -18 -13 -2 -4 -2 3
1532260027199617 5 -5 -15 2 -2 -3 -2 1
1532260027223537 -18 -4 -9 3 1 -3 -2 -7
1532260027283376 -4 3 8 3 3 0 0 -1
1532260027296342 9 24 25 0 -2 -2 -1 1
1532260027320279 4 7 3 -1 -2 -2 0 -1
1532260027366156 -1 -9 4 3 -2 2 3 5
1532260027380119 -4 -7 -34 3 1 1 -3 -2
1532260027462897 2 -11 22 1 -9 -6 -1 -1
1532260027559638 -10 -19 -9 -10 -6 -1 -1 -3
1532260027605516 -8 9 43 -57 -14 -5 1 1
1532260027679319 40 -14 6 -4 0 0 -2 -2
1532260027710236 29 -11 12 5 4 0 -1 12
1532260027726193 -18 2 6 -12 -3 -3 -2 -2
1532260027764092 -9 2 -6 -4 -2 -2 0 -3
1532260027786032 -11 1 -1 -2 -2 0 -1 -3
1532260027798998 0 12 24 -1 2 -1 1 1
1532260027876790 -5 -31 -25 -10 1 2 2 1
1532260027892748 0 22 13 -11 34 6 5 4
1532260027935633 -10 -15 13 6 3 1 1 -4
1532260028062294 -2 13 30 12 2 -3 -3 0
1532260028116150 7 20 -12 -7 0 -4 4 3
1532260028212891 -1 11 -8 5 -2 0 0 -2
1532260028249793 13 15 -64 25 1 0 -1 0
1532260028288698 0 11 30 10 19 4 0 0
1532260028310630 -1 7 11 -16 -14 -2 -1 0
1532260028333569 7 25 17 -6 -1 1 1 1
1532260028385430 -7 -42 -13 3 11 -2 -1 -3
1532260028445270 5 11 4 -2 13 -1 0 2
1532260028468208 -5 0 -12 -2 26 6 1 0
1532260028661691 -7 -18 0 -3 -1 2 1 -4
1532260028693606 -10 15 1 6 4 1 0 2
1532260028769404 0 -43 -7 -2 2 0 0 -2
1532260028888086 2 -6 14 18 4 0 -1 -1
1532260028911025 -8 -61 -9 -9 -2 -3 -2 0
1532260028954908 -3 -56 4 2 0 3 -1 -3
1532260028986821 -13 35 25 -5 -3 -1 0 -4
1532260029021729 1 -84 -25 -1 1 -12 -5 37
1532260029081569 -8 19 15 11 6 108 14 -55
1532260029128445 -2 30 108 8 0 -49 -16 -16
1532260029167339 -1 1 -89 -1 -2 -20 -1 -16

1532260029189281 -15 -25 -5 8 2 -19 -7 -25
1532260029202246 -5 27 39 -3 -3 -14 -1 4
1532260029248123 -1 2 -17 -11 -1 -9 -3 2
1532260029285024 -2 -22 -8 4 -2 -13 -5 -2
1532260029307964 -7 5 21 -10 -3 -1 -3 -1
1532260029330902 6 5 -10 -4 0 -6 5 5
1532260029367803 7 -18 -3 4 -2 -1 -1 3
1532260029390742 -1 1 2 3 0 -48 -3 3
1532260029413681 -4 0 -3 0 1 -1 -1 0
1532260029451579 -6 0 2 -3 -1 4 0 -1
1532260029488489 -4 11 2 0 1 8 0 -2
1532260029510422 1 -19 4 -1 1 -3 -1 -1
1532260029548320 8 20 -9 4 2 1 0 0
1532260029601180 0 -19 -1 1 -1 -4 -1 -3
1532260029631099 -8 -9 -1 0 -1 -1 1 -1
1532260029675979 4 -11 -7 -1 -2 -1 0 -1
1532260029704902 2 12 6 -1 0 2 0 -1
1532260029750779 2 2 -4 -3 -4 -6 0 -1
1532260029764742 -1 -4 -1 1 -1 -1 -1 -2
1532260029810619 4 -1 0 -1 -1 -1 -1 -1
1532260029824582 -3 -4 1 -1 0 0 -1 -1
1532260029854501 -5 -10 -6 1 1 -2 -1 -4
1532260029887450 1 2 26 2 -1 -2 0 0
1532260029894395 0 20 5 0 1 0 -2 -2
1532260029938277 10 -12 4 1 2 2 -1 -2
1532260029961217 -2 18 2 0 4 -40 -3 3
1532260029983217 9 -29 -2 -2 11 50 6 37
1532260030012139 -11 84 34 5 -3 -53 -4 -38
1532260030042058 4 -6 -15 -3 -2 -4 -2 5
1532260030080954 3 -45 -22 0 -1 -3 6 8
1532260030102896 -14 -89 -70 -13 -11 -10 -2 1
1532260030148773 6 3 1 6 3 -20 2 1
1532260030169717 1 10 40 -4 0 -4 3 1
1532260030207616 -4 20 53 -1 -1 1 -3 -2
1532260030229557 -4 -13 -19 -4 -7 -16 -1 -1
1532260030291392 -2 1 -7 -6 0 -17 -1 -1
1532260030312336 -4 48 52 -3 -6 -7 -6 -4
1532260030410075 11 44 -8 4 4 2 2 -1
1532260030484874 -1 5 7 1 -6 -4 1 -2
1532260030569647 -3 -5 -7 6 -3 7 1 -2
1532260030689328 0 -6 0 -20 -4 3 -1 2
1532260030703291 -1 32 9 -9 -2 -1 -1 -1
1532260030755185 -6 -9 1 16 13 2 0 0
1532260030837936 -2 -13 39 50 37 7 0 0
1532260030928688 0 0 3 -4 -4 -3 -1 -2
1532260030949632 4 -2 -2 -1 -5 0 -1 0
1532260030986533 3 4 8 5 5 0 1 -2
1532260031064325 6 -4 -4 -4 -10 -3 1 7
1532260031182011 -29 -10 -6 1 -4 -1 -5 -15
1532260031257807 19 -3 -6 0 -2 -7 -1 -7
1532260031280746 62 23 3 1 2 1 2 23
1532260031312670 46 11 5 1 -4 -4 1 -8
1532260031356544 -30 -2 -4 -5 -9 -3 0 -25
1532260031409402 42 37 2 0 -2 3 -12 -8
1532260031460266 -17 -29 -2 -7 -1 1 -3 -15
1532260031535066 9 2 -2 -1 -1 1 7 -7
1532260031565984 20 1 0 -7 -4 1 -1 0
1532260031611861 8 3 0 -1 1 0 0 -3
1532260031639786 3 5 1 1 3 1 -2 15
1532260031688657 5 22 2 0 -10 1 -1 2
1532260031814319 -6 -13 -9 -6 -6 -1 2 -1
1532260031858204 -2 -2 -18 35 -2 -6 -1 -3
1532260031971897 3 10 8 5 -3 0 3 2
1532260032029743 -1 -9 1 3 -7 -10 -5 -2
1532260032242175 5 16 -40 -14 -8 -18 -12 -4
1532260032292042 -13 -31 -4 -14 -4 12 -1 -34
1532260032443636 -10 3 2 4 7 -13 5 -24
1532260032519434 6 -27 -44 -5 -4 -3 7 38
1532260032711919 -1 12 55 -2 0 1 6 0
1532260032803673 -7 6 -1 -1 2 -1 2 -13
1532260032983194 0 4 -6 -2 0 -2 3 -2
1532260033090922 1 -18 -6 -3 2 1 0 0
1532260033117833 1 0 -7 -2 -4 1 0 2
1532260033276410 6 26 -9 0 -1 -2 -2 0
1532260033319294 5 0 -9 1 1 -2 -3 1
1532260033388126 -4 -10 -1 -4 -5 -4 0 -2
1532260033425012 -2 -23 -16 -3 -5 2 -1 -2
1532260033469892 -2 19 24 -25 -7 1 -1 -3
1532260033538715 13 2 12 -14 2 1 1 1
1532260033635449 19 8 -22 26 2 1 1 6
1532260033718232 -3 8 -18 9 3 0 -1 -3
1532260033777071 -8 -14 -31 5 3 2 2 8
1532260033784052 3 82 -6 -7 -1 -1 0 -6
1532260033802003 -9 68 16 0 -6 -1 -2 -8
1532260033874810 6 32 9 0 2 0 -5 -9
1532260033905727 -3 -30 -22 2 -1 -3 1 -5
1532260033965567 -12 -38 11 -32 -13 -7 -4 -8
1532260034003465 -11 -25 -1 -27 -5 1 -2 -7
1532260034063305 -12 -38 -37 15 11 5 4 0
1532260034101203 9 13 -10 -42 -19 -7 -2 0
1532260034146084 -4 -5 -13 3 3 0 -2 -2
1532260034170019 12 -12 2 -21 -4 -2 0 2
1532260034190966 -5 -20 -20 -5 -4 -1 -1 -3
1532260034256788 -15 3 -8 -7 -5 1 -1 -1
1532260034303662 1 25 23 -8 -5 -3 -1 0
1532260034385443 17 -5 -14 32 23 3 1 6
1532260034580921 4 6 4 -15 -5 -3 -1 -4
1532260034738501 -4 10 -71 3 3 -1 0 0
1532260034962900 -14 -9 -9 8 -4 -6 -5 -8
1532260035014761 1 -27 -26 11 0 -1 0 0
1532260035286036 -3 -9 -20 -12 -7 -3 -1 -3
1532260035405716 -11 -9 3 -5 1 -1 -1 1
1532260035503454 3 11 -1 -2 -7 -4 -1 -2
1532260035690952 5 -44 -15 1 1 0 3 3
1532260035741817 -11 -4 -12 3 0 0 1 -11
1532260035779716 -27 -89 -14 -7 -5 -2 0 -29
1532260035833571 -15 -26 -12 -3 -1 -2 1 9
1532260035869475 5 14 -12 -1 -1 1 -1 1
1532260035916350 19 -8 -2 -2 -1 -3 3 8
1532260035975193 8 70 -6 -14 -33 -31 -26 92
1532260035982174 -8 6 -11 1 7 101 11 -15
1532260036036030 -6 -65 -65 6 12 -8 8 10
1532260036065950 9 34 65 -9 -1 -6 1 -10
