1532256320994102 3 2 1 0 -1 -4 -1 0
1532256321014047 3 5 -2 -12 -4 -3 -1 1
1532256321066907 -2 0 3 1 2 1 -2 0
1532256321088849 14 18 -20 -21 -7 -4 0 0
1532256321138714 -3 0 -2 1 0 0 -2 -1
1532256321158661 2 9 -3 -29 -9 -5 0 -1
1532256321164645 -8 -4 -8 48 20 5 1 -2
1532256321210523 6 -2 -12 -14 -4 -2 0 -1
1532256321228474 1 -6 2 -13 -11 -3 -2 -1
1532256321260389 6 36 -1 10 10 7 1 3
1532256321320229 -3 -4 -17 10 0 -2 -3 0
1532256321373088 -4 -10 23 2 -2 -3 -1 -4
1532256321439934 -4 -57 -15 -4 -3 -2 0 3
1532256321499789 0 1 -2 -3 0 -1 1 0
1532256321545666 2 -7 -5 -8 -15 -5 -1 2
1532256321596530 -2 -9 -7 3 8 3 -5 8
1532256321620466 0 0 -10 11 3 -11 -6 -16
1532256321656369 -4 10 -4 -12 -11 -9 -6 3
1532256321678311 -6 25 10 2 15 -7 -3 6
1532256321725186 1 28 33 -8 0 1 0 5
1532256321844866 -1 -4 0 -4 -5 0 0 0
1532256321859826 -2 -13 -22 -3 2 1 -1 -1
1532256321904706 3 -50 -10 -3 1 3 0 2
1532256321927659 -15 -8 -4 -3 1 0 1 3
1532256321978509 8 -6 8 1 0 0 2 3
1532256322010423 2 -35 11 -2 -4 4 1 0
1532256322039346 -3 0 -3 -2 -1 1 0 -3
1532256322062284 -15 -8 -4 -9 -3 1 0 -3
1532256322114167 3 -1 -17 -12 -1 -2 0 -10
1532256322205907 -12 -4 -16 -2 -2 0 3 21
1532256322287705 -22 -5 -4 2 2 0 24 -8
1532256322331588 -14 -17 7 0 0 -2 -8 -24
1532256322370483 -57 -1 -8 -3 3 6 -1 -19
1532256322511108 1 7 0 -1 7 2 -9 16
1532256322523076 24 7 5 5 4 2 3 3
1532256322604857 -1 12 7 1 0 -1 7 -1
1532256322611855 -4 -23 0 1 -1 0 -2 1
1532256322654724 -6 -20 -1 0 -2 -1 0 2
1532256322669683 4 -1 0 -3 -1 -1 -3 -3
1532256322714564 -10 11 1 -5 -3 -3 -3 -6
1532256322789363 5 27 3 4 2 1 1 4
1532256322812302 -2 22 4 -3 -3 -3 1 -9
1532256322844218 -1 -48 -12 3 0 -1 -1 2
1532256322857183 -1 -1 3 2 3 1 -1 0
1532256322880121 4 3 -13 4 6 4 -1 -3
1532256322889104 -5 -9 1 -3 -2 -1 1 0
1532256322912035 7 -21 -17 0 1 0 1 1
1532256322932980 4 12 4 2 -1 -1 -2 1
1532256322978862 0 6 4 1 -2 -1 0 0
1532256322999801 0 -11 -8 -3 -2 0 -2 -3
1532256323051676 4 41 13 5 3 -1 -1 5
1532256323089561 -5 -5 -2 -6 -1 -2 -3 -6
1532256323120478 9 5 12 3 1 2 -1 1
1532256323171342 29 20 -10 -1 -3 -3 -3 -2
1532256323209241 -8 -20 -6 10 2 -2 1 1
1532256323247139 19 54 0 -7 -6 3 0 -7
1532256323269081 -8 -15 -4 -1 -1 -4 6 12
1532256323306980 -14 -9 5 -5 -1 0 2 -6
1532256323366832 -7 12 -6 -4 0 3 0 4
1532256323388760 -3 4 7 13 2 2 -4 -3
1532256323426660 -9 -23 -8 -3 -2 1 6 4
1532256323449597 -13 0 -3 -4 -1 -2 -7 -7
1532256323509451 -6 24 9 5 7 8 -1 2
1532256323592217 -4 14 -9 -6 -3 -2 -17 -18
1532256323629117 -14 3 -5 -4 -2 -3 -3 -6
1532256323667017 -20 -71 -28 -15 -5 -1 -3 -17
1532256323688958 -28 -25 -16 -3 6 7 9 -16
1532256323711897 36 36 33 14 1 -5 10 26
1532256323771736 -35 -9 -6 -3 -2 0 1 7
1532256323817614 12 45 24 10 -2 -3 -4 -9
1532256323847534 -16 -36 9 5 7 5 5 0
1532256323869475 4 -4 -3 -7 -5 -2 -14 -18
1532256323891417 4 -47 -20 -7 0 1 -3 -5
1532256323929314 -4 17 -1 2 -3 -3 3 1
1532256323952254 -18 -7 -16 -8 -1 2 3 -16
1532256323989155 10 9 -5 -2 -4 -5 1 -4
1532256324027053 -2 5 -1 0 3 4 7 1
1532256324131774 11 21 22 10 4 2 0 2
1532256324145736 -1 -2 3 1 -5 -1 -1 -4
1532256324206574 -7 4 -9 -8 -2 -3 1 -1
1532256324251454 -1 -11 14 1 -2 -3 -2 -1
1532256324266413 -11 -65 -14 -4 -6 -5 -6 -4
1532256324289353 -3 -22 -4 -1 2 1 -2 -2
1532256324372131 -1 12 1 0 -2 -1 0 1
1532256324418009 -4 -3 -3 0 -1 -2 2 2
1532256324468872 10 26 5 -1 -1 1 2 13
1532256324574590 4 6 4 0 2 -5 -5 4
1532256324592541 -14 7 4 3 0 3 -4 -22
1532256324680307 11 -8 -6 2 1 0 -2 22
1532256324792009 -4 11 13 2 -4 -4 2 7
1532256324815944 -10 16 9 2 -2 -5 -2 -14
1532256324828910 -10 3 -4 -2 1 -4 -14 -2
1532256324851848 -9 -11 -7 -4 -1 16 3 -39
1532256324875784 -11 -14 3 1 -1 3 1 21
1532256324890759 2 15 12 1 1 -2 3 6
1532256324942605 -6 7 14 1 1 5 2 -3
1532256324972525 -6 -8 -1 1 1 3 1 -23
1532256325013416 4 2 4 -7 -1 -1 -1 30
1532256325034361 -4 18 4 -12 -4 -5 -1 1
1532256325040344 11 6 -2 -2 -2 -2 0 -7
1532256325077245 -2 -24 7 2 0 0 2 2
1532256325122125 5 7 21 -2 -7 -2 -1 3
1532256325144067 -10 22 -7 -4 -6 -3 -3 -3
1532256325174984 7 -36 -18 -8 0 1 -2 0
1532256325197923 16 -2 -1 -2 1 -2 0 3
1532256325221859 5 16 11 -8 -3 0 0 2
1532256325265741 -15 4 -19 -9 1 2 -2 -4
1532256325287692 4 -3 9 -6 0 0 2 1
1532256325317608 2 6 -1 -3 1 -2 -3 -4
1532256325331565 -8 -9 2 0 1 2 1 0
1532256325361486 -3 -20 -61 -10 -3 1 4 0
1532256325379437 3 -2 15 3 -1 -2 11 22
1532256325400381 -6 -10 -26 -1 0 -7 -9 -13
1532256325513079 11 23 -11 -2 0 -6 -9 -18
1532256325528040 -8 -28 -24 -3 2 2 2 0
1532256325594862 1 18 -9 1 2 -8 -4 -15
1532256325617800 5 -1 -24 -3 -1 -9 -1 1
1532256325639741 5 10 5 6 3 3 -1 -7
1532256325677640 9 -16 -10 3 1 6 -3 -1
1532256325707560 3 19 -64 1 2 -5 0 14
1532256325745459 1 -12 -8 -2 -2 3 -3 -28
1532256325760419 -1 -12 28 0 -2 4 -4 -3
1532256325782360 -7 -5 24 -1 -1 4 1 -1
1532256325805298 9 24 30 8 5 11 0 1
1532256325837213 -5 -1 -2 -2 0 -3 -4 -9
1532256325857160 -12 -20 -22 -8 -1 1 1 3
1532256325871122 -1 5 -1 5 0 -2 1 -4
1532256325917997 7 17 4 0 -1 1 -1 1
1532256325939939 -3 2 -2 -3 0 -5 -1 -2
1532256325954899 -5 7 -1 -2 -4 0 7 -9
1532256325960882 1 -5 5 1 2 -1 1 -1
1532256326007757 0 -1 1 1 1 2 1 0
1532256326052637 3 1 1 0 0 1 1 2
1532256326081559 0 13 0 3 3 2 0 1
1532256326120456 0 -5 1 -1 -4 -1 -1 0
1532256326157357 8 16 0 0 -1 2 -1 1
1532256326202246 2 -8 1 6 0 -2 -1 3
1532256326231160 0 -11 -2 1 4 2 0 -4
1532256326254098 3 -37 -8 -2 -3 -4 -2 1
1532256326305959 12 23 -5 4 -1 -2 -1 -4
1532256326337874 -1 -13 -10 2 4 1 2 0
1532256326359816 -1 17 5 -2 -4 -1 -4 1
1532256326374776 2 7 11 0 -2 -1 -1 -1
1532256326404696 0 -8 4 -3 -2 -3 -3 -1
1532256326442610 4 14 -11 0 -4 0 0 0
1532256326480493 -2 14 6 -4 -2 -3 1 -2
1532256326493458 3 -9 -13 -2 -2 -2 -2 -1
1532256326555292 -6 0 4 6 -1 1 1 -1
1532256326591197 6 -5 -38 1 1 -1 -1 0
1532256326660013 4 60 20 2 0 9 15 -10

1532256326742791 2 23 55 -5 -6 -5 -2 -4
1532256326758749 -1 -13 124 8 7 6 -11 -25
1532256326802657 -1 -3 9 -10 -6 -6 -2 10
1532256326817618 -16 15 23 18 9 2 -1 -3
1532256326839559 7 5 2 16 0 -5 -5 9
1532256326878455 -10 -14 -5 2 4 3 -3 -4
1532256326909372 -1 -20 16 14 1 2 0 -1
1532256326997137 2 -12 -7 1 -1 -6 -1 2
1532256327020076 3 -5 -2 8 -3 2 1 -1
1532256327056976 7 8 0 -4 -2 0 -2 -1
1532256327079916 -4 6 -6 5 1 1 2 -2
1532256327093879 1 0 8 -1 -2 -2 0 0
1532256327147734 0 4 16 -4 -2 0 0 0
1532256327179649 3 0 -6 -2 -1 -1 1 1
1532256327213559 -5 -12 -4 4 0 0 2 4
1532256327243478 0 -10 -17 2 -1 0 2 -6
1532256327261443 -1 34 47 3 -2 2 1 -2
1532256327320273 5 29 -16 -2 -3 22 10 24
1532256327342214 -4 -7 -20 2 10 47 -4 -33
1532256327424995 -2 -12 51 -11 -10 -17 -3 -22
1532256327439953 -3 -37 -42 -13 -10 -8 -2 -5
1532256327479847 0 11 4 -2 -1 4 3 -1
1532256327514753 1 3 -16 -3 8 -1 -1 -6
1532256327551655 0 1 -8 8 2 1 -2 -1
1532256327574593 7 -2 -25 -13 28 6 1 0
1532256327597535 14 2 -16 -9 -6 -3 -2 1
1532256327687292 -3 13 -9 5 18 8 1 1
1532256327698275 -1 -12 -10 -21 6 2 0 -2
1532256327732171 11 1 4 12 13 6 1 0
1532256327799990 -1 -14 0 3 4 2 -1 -1
1532256327814950 -2 -3 -1 3 0 -1 2 1
1532256327852849 -2 -10 38 -3 -5 1 -2 -11
1532256327897729 -3 11 -17 0 -1 -1 -2 1
1532256327934637 -10 1 -20 -15 -2 -4 -5 0
1532256328023393 -2 -6 -14 -2 -7 -1 3 4
1532256328152049 3 -4 6 1 8 2 2 3
1532256328218871 2 1 0 0 2 0 -2 -3
1532256328294668 -1 23 -1 -11 1 3 -1 -2
1532256328323590 -1 12 -25 -2 -2 1 1 0
1532256328422326 0 -55 -9 15 -11 -1 -3 0
1532256328481169 0 6 14 -5 32 6 3 2
1532256328578907 2 49 13 4 -1 -3 -1 6
1532256328609825 8 6 34 36 12 3 2 9
1532256328638747 9 -1 -1 3 2 0 1 -1
1532256328722523 -9 -1 6 5 4 0 1 -3
1532256328790342 -12 -11 -7 -7 -6 -2 -1 -2
1532256328882097 12 6 16 0 0 0 0 9
1532256328904038 5 -5 -7 -2 0 1 5 24
1532256328917004 -4 7 -10 -5 1 0 -3 -23
1532256328938944 10 -1 -4 0 -1 0 10 -28
1532256328969862 -23 6 5 -6 0 0 -2 -17
1532256329014742 -33 20 11 0 -1 -3 -9 5
1532256329029703 -17 41 2 3 1 -1 2 9
1532256329068598 -11 -22 -17 -2 3 3 10 13
1532256329075579 48 5 -6 -5 -3 -3 -2 -9
1532256329112481 -12 -5 -2 0 1 2 -1 -7
1532256329144395 -30 0 0 0 -1 -1 -1 -14
1532256329156363 -1 -21 -10 -8 -4 -1 1 2
1532256329166336 -21 -10 -1 -1 0 1 1 -12
1532256329202241 7 -7 -2 -3 -2 -4 -2 -10
1532256329247121 7 -7 -2 0 -1 0 -5 -7
1532256329270059 -9 -5 -6 0 -1 -2 -4 1
1532256329321921 7 35 3 2 0 1 -3 -2
1532256329344859 -14 2 -6 -2 -4 -1 0 -8
1532256329383755 -5 7 1 -1 -1 -2 -18 -8
1532256329403702 -1 -6 2 -1 -2 -1 1 1
1532256329443595 -3 9 0 -2 -1 -1 1 -1
1532256329449579 -5 -8 -4 -1 0 -1 0 -3
1532256329487478 3 22 0 0 -1 0 2 -1
1532256329547318 -4 20 -3 1 -1 -2 0 2
1532256329570263 1 -20 -1 1 2 1 -3 -5
1532256329654032 2 -1 0 2 0 -1 1 6
1532256329659019 1 -26 -6 -1 -1 0 1 -2
1532256329690934 3 12 15 3 2 0 0 2
1532256329726838 -5 11 -9 -2 -1 -1 -1 0
1532256329809617 8 -10 -8 3 3 1 -1 -2
1532256329846517 -13 -6 -34 -8 -4 -3 -3 -4
1532256329892411 2 13 -30 2 2 1 0 3
1532256329915334 -4 1 14 -2 -2 -2 1 -2
1532256329937275 -4 5 8 -2 -2 2 1 -1
1532256329966198 0 -34 -12 -1 -2 -2 0 -2
1532256330004096 14 34 -3 1 0 0 4 5
1532256330048976 12 -14 1 1 -1 0 0 3
1532256330063936 -1 -10 -8 -1 -1 -1 -2 -1
1532256330109813 -13 -18 -1 -2 -1 -2 -1 -1
1532256330123776 6 6 4 -1 -1 -1 -4 10
1532256330168656 -13 -7 1 3 0 0 0 -2
1532256330184613 3 -33 0 1 1 2 3 1
1532256330206555 6 35 9 0 0 0 3 5
1532256330229493 -1 6 -1 -4 -2 -1 -5 -9
1532256330266395 1 20 12 8 4 0 -2 2
1532256330290331 3 -27 -11 -5 -4 -4 -4 1
1532256330312272 1 -10 -9 -5 -4 -3 -9 -8
1532256330349174 4 33 3 -4 -4 1 -1 -25
1532256330387072 -7 36 9 2 -8 -14 5 11
1532256330423974 -7 -30 -10 -2 4 3 -1 -2
1532256330529691 -1 8 2 -4 -8 -2 4 8
1532256330552630 -27 -28 5 1 3 3 4 1
1532256330589531 -16 13 -5 -4 -1 -2 0 -23
1532256330626432 -4 18 2 3 1 -1 -8 6
1532256330687276 -29 -25 -28 -14 -1 2 3 9
1532256330709211 -2 -12 -15 -8 -4 -2 2 5
1532256330791989 -22 -89 -9 0 -2 1 9 -11
1532256330806949 24 25 7 0 -2 -3 -1 31
1532256330828891 7 26 3 3 2 1 2 0
1532256330866789 -4 -35 -16 -8 -2 -2 -19 -8
1532256330912667 -15 -24 -5 -5 -2 -1 1 -5
1532256330949567 -10 0 6 7 -2 -2 -2 -3
1532256330963531 8 9 -1 0 0 -1 0 -5
1532256331024368 -3 1 -5 -2 -1 -2 0 -2
1532256331041322 -19 -30 -14 -4 0 3 1 -4
1532256331069248 2 10 0 -1 -1 0 1 -1
1532256331107147 -3 -4 2 -1 -2 0 0 0
1532256331129087 3 5 1 1 1 -2 -4 -1
1532256331188927 5 11 2 2 -3 -4 0 1
1532256331256746 0 29 4 3 -1 -2 1 2
1532256331309605 -3 -21 2 1 -2 1 -1 1
1532256331400363 1 -18 -3 3 2 3 1 3
1532256331512064 -2 -4 7 11 4 -3 -3 12
1532256331593845 -11 -40 -45 1 2 8 -2 -12
1532256331648699 -2 13 45 1 0 3 0 0
1532256331692580 -1 -18 -13 -5 -1 0 2 11
1532256331706544 0 19 2 -3 -2 1 0 3
1532256331729482 2 2 4 0 -1 -1 -2 -2
1532256331752421 -3 -1 -12 0 -2 -1 1 -2
1532256331782340 -3 -10 12 -1 -3 6 0 0
1532256331814267 -2 9 3 -3 -2 -6 -2 -1
1532256331826224 0 -3 -8 6 5 -3 2 -1
1532256331865120 2 15 13 0 0 -2 0 1
1532256331872101 -5 -21 7 -2 -1 1 2 0
1532256331910997 2 7 1 -2 1 -3 -1 -1
1532256331934936 -2 -9 -16 5 1 -1 -2 0
1532256331945904 -1 -9 -10 0 0 -4 -1 0
1532256331992778 -5 6 1 2 0 1 -2 0
1532256332014720 2 -4 -10 16 9 0 0 0
1532256332028682 1 -3 1 -5 -3 -1 -1 -2
1532256332074560 1 8 -18 -16 -6 -3 1 -1
1532256332088522 2 14 5 -9 0 -1 0 0
1532256332148362 5 19 2 -2 0 0 0 0
1532256332196241 -22 -3 -11 0 -1 2 1 -3
1532256332212191 14 2 -3 0 -2 -1 -1 3
1532256332232138 -4 6 25 4 0 0 -2 -3
1532256332255077 -6 -8 -4 -15 -6 -3 -2 -4
1532256332269040 -1 -14 -9 3 2 1 4 10
1532256332292976 7 18 14 3 1 -1 -1 -1
1532256332328880 -6 -2 -11 -1 2 0 0 -1
1532256332382736 1 -2 1 -2 -2 0 -2 -3
1532256332444579 3 9 7 4 3 3 -1 0
1532256332466511 6 13 9 4 0 -11 5 5
1532256332504410 1 0 0 -3 -2 5 1 1
1532256332511392 2 18 -7 1 -2 2 1 -2
1532256332592180 2 -7 -5 0 3 26 1 1
1532256332615114 -1 9 -1 1 -1 -6 -3 -5
1532256332629077 -8 -15 -14 -2 0 2 -1 -1
1532256332638071 2 5 -14 -4 -2 -2 2 3
1532256332674954 -7 -1 -9 -3 -1 4 1 6
1532256332704874 -3 -11 -8 -4 -4 -23 -5 -5
1532256332734801 -2 -8 -9 1 2 5 3 -1
1532256332757733 2 -5 -7 0 -1 3 5 -1
1532256332795631 -6 -17 -19 -9 0 2 -1 -4
1532256332808597 -2 5 -5 -1 1 -4 4 5
1532256332855471 -5 4 -3 -3 -1 2 0 -1
1532256332868436 3 1 -2 -3 -3 -8 -4 -7
1532256332877413 -1 6 -2 -1 1 -3 -2 -3
1532256332898357 -5 6 7 1 -2 2 1 -5
1532256332916308 2 -13 0 -2 -1 -4 -4 -8
1532256332939250 0 -24 -5 -7 -1 -11 -2 0
1532256332959194 -1 6 0 4 5 16 4 11
1532256332984128 3 9 2 0 -2 -24 -7 -6
1532256333020032 -7 -4 -1 0 1 -4 -4 -28
1532256333070896 -1 -13 -2 -1 0 17 1 4
1532256333117770 1 4 -3 0 2 -13 -2 5
1532256333184591 -3 -14 -3 -4 -3 -1 -3 -3
1532256333191573 2 3 3 -1 1 5 1 -2
1532256333237450 11 -7 -2 -3 -3 -3 -1 2
1532256333251413 0 -3 8 2 3 6 2 -1
1532256333297290 -6 30 22 -5 -3 -4 -2 -2
1532256333335189 2 -4 0 2 2 -1 -1 -2
1532256333371093 -2 -28 3 -1 1 -2 0 2
1532256333395029 0 -1 12 1 -1 -1 -1 1
1532256333417968 -5 -1 -11 2 -1 -4 0 -1
1532256333430932 -3 2 -6 -1 3 5 2 -1
1532256333447887 3 -21 -6 2 1 -2 -2 1
1532256333456864 3 17 14 0 1 2 2 3
1532256333491770 -6 3 -4 -9 -3 -1 1 -2
1532256333514708 -6 4 -28 -7 -2 5 1 -3
1532256333537647 -14 7 10 3 1 -2 -1 2
1532256333559589 -3 -5 25 3 0 -2 -1 1
1532256333627407 6 38 11 11 3 -2 -1 1
1532256333635386 -48 -29 -23 3 0 0 -4 -10
1532256333694228 35 61 -7 16 13 32 37 -56
1532256333731130 -1 1 76 -32 -11 12 -14 1
1532256333807925 3 4 30 8 3 8 1 -8

1532256333823891 1 -8 39 -6 -2 1 -1 -2
1532256333859786 5 -2 9 -2 2 -9 -5 -4
1532256333874746 -3 -4 33 -1 -2 -7 2 -4
1532256333905663 -2 -8 -6 7 6 6 -2 8
1532256333934586 3 15 14 -4 -1 0 0 0
1532256333994426 4 9 0 -4 -1 -4 -4 0
1532256334025343 3 -4 0 1 -2 2 2 2
1532256334054265 3 -1 -1 1 0 -1 1 -1
1532256334115103 -2 0 -6 -1 1 0 1 2
1532256334139039 1 -12 -8 3 -1 0 0 -2
1532256334180927 11 -3 -1 0 0 1 0 1
1532256334219823 -6 -3 -4 1 3 -3 1 0
1532256334240767 1 1 6 -1 -3 0 -2 -1
1532256334279662 -2 -2 1 -1 3 1 0 -1
1532256334348479 -4 -3 11 1 -2 -3 -1 -1
1532256334372415 -1 1 6 3 2 1 0 0
1532256334407321 -1 -18 -19 0 0 5 5 5
1532256334474143 -6 1 6 2 0 0 -1 -4
1532256334528001 2 7 -5 -1 1 -1 -1 0
1532256334542959 -2 -7 -19 3 3 0 -1 0
1532256334593864 -2 -28 -16 4 -2 -4 -1 -3
1532256334624780 2 -9 -29 1 1 0 2 1
1532256334677638 3 0 21 7 3 -2 0 2
1532256334760417 0 24 11 -3 -3 -2 3 10
1532256334985815 7 15 -81 4 7 0 6 -5
1532256335120455 4 20 -11 0 -1 0 -1 -4
1532256335180295 0 -2 -34 1 6 2 1 2
1532256335225175 3 4 -11 8 0 -1 -1 0
1532256335262076 -2 -8 3 -14 -2 -1 -1 -1
1532256335285015 0 3 9 9 0 1 1 2
1532256335322914 -1 -27 -5 -28 -14 -5 -1 -1
1532256335335879 1 0 -17 -5 -3 -3 -3 2
1532256335381755 -3 0 4 -6 -17 -3 0 -2
1532256335389735 5 4 0 10 16 4 1 3
1532256335419655 3 2 5 1 5 4 1 0
1532256335456557 -3 -11 -4 -4 -6 -3 -1 -2
1532256335486476 -5 5 11 5 6 2 0 -3
1532256335525383 -2 -2 -22 -1 6 0 2 0
1532256335585212 -3 7 4 -7 -4 -8 -6 -7
1532256335622113 -8 -6 -5 -2 -4 -3 -5 -35
1532256335802630 -1 3 -7 -2 -27 -4 -2 -2
1532256335945254 2 26 -2 8 14 -1 -3 2
1532256336005094 -2 -17 0 -1 21 8 2 2
1532256336049968 -4 -28 18 2 7 4 0 0
1532256336094849 3 34 3 1 5 -1 -2 0
1532256336117791 2 -14 3 -4 0 0 0 0
1532256336132748 1 0 -1 -2 -4 -1 0 -2
1532256336138731 -4 4 1 -6 -2 -2 -1 -2
1532256336184609 -2 -35 -8 6 2 0 0 -2
1532256336222508 -7 -16 -2 -2 1 0 0 0
1532256336349169 3 -9 -4 3 -1 -2 -2 1
1532256336404022 0 6 -2 -1 -1 -1 -1 -3
1532256336423969 23 -2 -7 -3 -6 6 4 27
1532256336461868 -26 13 -9 0 -1 -2 -5 6
1532256336483809 -24 -25 13 22 7 -5 -4 8
1532256336513728 -51 -14 -4 -5 1 3 27 2
1532256336552625 -7 5 10 -3 1 -1 2 9
1532256336576571 7 14 1 -5 -3 0 -2 -3
1532256336651369 -19 -25 -4 -2 0 0 -3 1
1532256336657345 17 -2 -2 0 0 -1 -21 -10
1532256336724166 30 6 1 1 1 1 2 4
1532256336784007 7 -2 -1 -4 -6 -3 -24 -1
1532256336806944 17 -16 0 -5 -9 -1 42 21
1532256336843846 -1 -2 -10 0 0 1 14 -3
1532256336905681 3 27 14 -1 -2 0 7 -2
1532256336951568 1 0 2 -2 -1 0 -1 -3
1532256337024363 3 29 0 -3 -8 0 0 2
1532256337061265 -3 10 2 3 -2 -2 -1 -1
1532256337144043 0 8 9 0 -3 -1 -2 -1
1532256337166982 -9 -46 -21 -3 -6 -3 1 3
1532256337203883 3 17 -6 -3 -6 0 -4 -3
1532256337226822 -6 -21 6 8 8 2 3 3
1532256337264720 6 0 -4 -1 0 0 -2 -2
1532256337286662 1 -7 11 2 1 -1 2 -3
1532256337324560 7 48 -1 -3 -9 -3 -14 -10
1532256337346502 -6 -27 1 3 1 2 4 6
1532256337392379 4 8 -2 3 3 0 -3 4
1532256337421301 11 -6 -3 -2 -2 -2 1 0
1532256337460197 -6 30 0 -2 -3 0 -1 -1
1532256337504081 -4 2 0 0 -1 0 3 -9
1532256337549958 -2 -13 4 2 2 0 -4 -6
1532256337594838 -4 -8 3 0 -4 -4 3 7
1532256337632737 -8 -8 -22 -11 -3 -4 3 5
1532256337669638 4 -1 1 0 2 -3 -17 -27
1532256337692576 1 33 27 8 7 4 0 -9
1532256337790315 18 11 12 8 2 3 3 3
1532256337827216 -2 -26 -4 0 2 4 5 38
1532256337850164 2 17 -5 0 -2 -4 1 -2
1532256337887056 19 28 2 -2 -2 0 0 -9
1532256337923958 -14 -27 -8 -1 1 4 4 -3
1532256337969835 2 -62 -12 -1 0 1 6 13
1532256337992774 1 -12 -3 1 0 -3 -9 -15
1532256338022694 7 -5 5 0 -1 -1 9 27
1532256338066577 -32 -39 -16 -8 -4 1 -1 -19
1532256338090512 -1 33 2 0 -2 -1 5 -4
1532256338104475 -19 -33 -35 -14 -1 1 4 -5
1532256338126416 21 23 -10 -5 -1 1 -4 -3
1532256338150367 4 35 0 1 -3 -3 -2 -4
1532256338187254 4 4 1 0 -1 -2 -1 -11
1532256338210192 -11 -16 -1 -1 -1 -1 5 -7
1532256338247094 -8 4 1 -1 -3 -4 -3 -10
1532256338270032 -7 -22 -11 -4 -4 -2 -8 -1
1532256338343836 -15 -12 -7 -6 -2 1 -1 -3
1532256338456534 7 19 14 0 -1 -4 -2 0
1532256338523355 -7 12 4 -3 0 -2 -1 -1
1532256338532331 -21 -15 -29 -9 -4 1 0 -6
1532256338592171 3 12 4 1 -1 0 0 0
1532256338615109 -4 -2 -4 0 2 0 0 -1
1532256338630069 2 -1 2 1 1 -2 0 3
1532256338652011 -4 -9 4 4 1 1 1 0
1532256338674950 0 6 -1 -4 -1 -1 -1 -2
1532256338725813 5 22 15 1 2 0 0 1
1532256338764710 -2 -12 -5 3 -3 -1 0 1
1532256338846491 -7 -17 -5 -7 -1 -1 1 -2
1532256338966171 -1 2 2 -1 -5 -3 -1 0
1532256339085852 -6 0 1 -2 -2 -2 -3 -3
1532256339132725 5 13 5 8 4 3 1 1
1532256339177606 1 42 1 -6 -7 -3 0 0
1532256339206528 3 -18 -6 -6 -6 -1 -1 0
1532256339230464 6 -16 -29 -3 0 0 -1 0
1532256339252406 8 37 8 -1 17 12 1 0
1532256339275344 -1 53 43 -2 5 2 -3 -11
1532256339312245 -3 7 9 -1 -2 -2 -1 34
1532256339356127 -1 -13 -5 -3 -2 -3 0 2
1532256339395024 -15 10 -3 3 4 2 -1 -11
1532256339432923 2 -4 2 0 3 -7 -3 -3
1532256339454864 5 7 -7 -4 -2 10 1 11
1532256339469824 2 4 -6 3 0 -7 -1 10
1532256339506739 5 -2 -1 0 0 -1 2 10
1532256339514704 -1 1 4 -1 -1 0 2 6
1532256339552603 4 -2 -2 0 -2 -10 1 -2
1532256339575541 1 3 3 1 0 -5 0 -3
1532256339597483 0 -10 -9 0 -3 2 -2 -2
1532256339626405 1 -6 -3 -6 -1 -3 -4 -4
1532256339652335 0 -11 13 2 -1 -2 -1 -2
1532256339695221 1 7 8 -4 -2 3 -3 -3
1532256339711179 -8 16 1 0 -1 -1 -1 -2
1532256339755061 7 1 1 10 5 3 0 -3
1532256339778000 7 -3 -30 -5 -3 -1 -4 -4
1532256339814901 1 0 -4 2 -3 0 0 -1
1532256339874741 -1 1 4 13 1 -3 1 -2
1532256339919622 4 11 3 -2 3 1 0 -1
1532256339957520 1 3 9 -3 0 1 0 4
1532256339972480 1 -11 4 -13 -7 -4 -1 -1
1532256340008384 5 -12 -8 13 6 -1 1 1
1532256340062240 0 6 -7 -13 0 4 -1 0
1532256340068232 -8 -1 9 -13 -4 0 0 -3
1532256340092160 1 0 3 1 -3 -3 -1 -2
1532256340139035 -4 1 -2 -6 -3 -3 -1 0
1532256340206853 -2 7 16 4 0 -2 0 0
1532256340228794 4 4 -4 -3 -1 -2 -3 0
1532256340242757 5 38 29 5 2 0 1 4
1532256340294619 -5 -8 -12 -4 0 0 0 -6
1532256340338501 -2 -3 -9 -1 -1 5 2 3
1532256340392356 -6 -13 -13 1 -3 -6 -2 -2
1532256340429258 0 10 4 -4 -2 -12 -3 -2
1532256340453195 0 -4 -16 2 1 -7 6 16
1532256340478128 8 -11 -3 0 0 2 -6 4
1532256340505055 -11 -1 3 2 5 11 2 -17
1532256340534976 1 -20 1 4 1 -4 1 1
1532256340557927 0 4 -8 -2 -7 -22 -1 -1
1532256340571876 8 6 12 2 -2 -2 1 3
1532256340585840 1 13 6 1 -2 -6 2 -4
1532256340617754 -7 -3 11 -6 -4 -13 3 -3
1532256340662634 4 -8 -2 -2 3 2 -4 1
1532256340684576 -9 -10 -30 -11 -5 -3 -5 -14
1532256340691557 -6 -7 -13 -4 -2 1 -1 2
1532256340751398 1 -4 3 4 2 -2 0 3
1532256340760373 8 -11 -3 2 -2 1 -1 -2
1532256340806250 -3 13 1 0 -1 0 -1 0
1532256340857114 -6 -10 -9 -4 -3 -6 -2 -1
1532256340871077 0 2 5 2 0 -2 -4 -5
1532256340895013 -1 -6 -6 -1 2 -6 -5 0
1532256340930916 -2 2 3 -3 1 -2 0 1
1532256340984773 0 -2 0 -1 1 11 1 0
1532256340991754 -3 -2 -2 -2 -3 1 1 0
1532256341059572 -4 -9 -3 -4 -7 -4 -5 -2
1532256341069547 1 0 -1 1 -1 7 -1 -6
1532256341097472 -1 3 -3 -3 -3 -31 -5 -1
1532256341134373 1 -1 -5 -7 -2 -6 -2 -2
1532256341171274 0 -8 -21 33 10 0 0 0
1532256341195210 -1 -12 -18 -25 -9 9 2 0
1532256341217151 3 17 12 7 1 -10 -2 -1
1532256341261034 2 -14 7 8 3 3 2 0
1532256341305914 8 22 15 -8 -3 -5 -1 3
1532256341350794 6 13 -5 -1 -1 -2 -1 -2
1532256341374741 -1 26 14 0 -1 0 0 -1
1532256341397668 -2 -18 1 -2 -2 0 0 -3
1532256341480447 -2 0 -39 0 2 11 2 4
1532256341494410 3 -13 23 6 4 -1 -2 2
1532256341540287 0 21 -3 4 10 -49 44 -5
1532256341584170 -14 4 41 1 1 -28 -28 -3
1532256341622069 -4 0 44 -3 -3 -1 -9 -6
1532256341644010 -2 -36 -89 -16 3 6 10 18

1532256341719813 -3 -12 -13 0 -2 -5 -6 -7
1532256341795610 -4 -4 3 0 -4 -2 -1 -6
1532256341864434 0 9 11 -4 -1 -8 3 -3
1532256341899368 -5 0 15 -2 0 0 -4 -10
1532256341907347 0 0 -1 -1 0 -2 0 1
1532256341960205 5 -2 -7 -2 -4 -1 0 1
1532256341983144 -2 8 10 -5 -3 -1 -2 -4
1532256342057970 1 -8 -17 -2 -1 -4 -2 21
1532256342095873 3 -30 -20 -2 -2 1 -1 -3
1532256342123799 0 3 -2 0 -1 -1 -2 6
1532256342162711 0 6 6 3 1 0 1 -3
1532256342177655 5 22 3 2 1 0 -1 1
1532256342222534 5 -10 -8 -1 1 0 2 1
1532256342246489 6 1 13 0 -1 0 2 3
1532256342320303 5 -3 4 -7 -3 -1 0 1
1532256342358201 -4 -18 -4 -2 1 -2 -1 -3
1532256342409066 -4 14 25 -2 -3 -3 0 -1
1532256342536725 -8 14 29 2 -1 -9 -3 -38
1532256342620500 2 0 -11 4 7 30 5 26
1532256342741178 -2 13 -1 -3 -4 -2 -2 7
1532256342835925 1 1 25 0 -8 -5 -2 2
1532256342859860 -3 4 -3 -7 -11 -2 -1 3
1532256342895764 -2 -31 0 6 5 3 0 -1
1532256342972570 -3 5 1 4 0 2 0 -2
1532256343032399 6 -11 -12 23 3 -1 -3 -3
1532256343084261 0 1 -3 3 5 1 -3 -1
1532256343122159 5 -3 7 6 4 0 6 17
1532256343159060 -5 -4 -13 6 -2 -17 1 -1
1532256343249818 -11 -52 -39 1 -3 -8 -1 -38
1532256343384459 -9 -5 11 -1 -1 -3 3 -24
1532256343444297 -2 -59 -8 -6 -13 8 2 4
1532256343467236 -14 17 -1 -2 4 4 -5 -16
1532256343482196 1 -5 5 4 2 0 0 -2
1532256343542036 6 14 8 15 4 5 -2 -1
1532256343587913 4 12 -1 -1 -1 -2 0 -1
1532256343601876 -2 2 8 3 -26 -7 -3 0
1532256343624822 1 -7 0 -10 20 8 2 0
1532256343684655 1 -7 0 -8 -1 -1 -3 -1
1532256343699615 -2 -5 1 2 -4 -1 0 0
1532256343744495 4 1 0 2 -2 0 0 -2
1532256343759455 5 -6 -1 6 0 0 -1 1
1532256343781396 -1 2 0 5 2 -1 -2 -3
1532256343836249 -6 -3 -4 1 1 -1 0 0
1532256343875146 1 2 -2 1 1 2 0 1
1532256343946954 -4 1 -2 -3 1 -1 0 4
1532256343984853 -30 -10 -18 -5 -4 -6 -9 -21
1532256344009786 -15 23 22 2 -1 1 -4 3
1532256344036713 -105 -15 -15 2 1 -2 -3 -3
1532256344160383 43 28 27 15 5 3 -1 -21
1532256344182324 -9 -31 9 -7 -8 -3 0 10
1532256344202270 24 0 1 -3 -4 -2 6 16
1532256344226207 -35 3 1 0 -2 1 -4 -19
1532256344247151 -31 -14 -3 -5 -1 -1 0 -8
1532256344262110 -82 0 -2 -2 -1 -2 -13 -22
1532256344313972 -2 25 -6 -3 -4 -6 -4 1
1532256344325940 -3 9 -5 -2 0 -1 0 -1
1532256344383786 3 22 25 0 1 1 0 7
1532256344466564 -5 -5 0 -1 -2 1 0 -5
1532256344501470 -4 -24 -10 -2 -1 -2 1 -5
1532256344525406 10 4 5 3 -1 -1 1 16
1532256344615167 5 0 4 -3 -3 12 -1 -4
1532256344704926 5 10 1 -1 -1 17 20 13
1532256344738837 3 13 8 -1 -1 -8 -7 -1
1532256344764767 4 14 7 3 -1 1 -1 5
1532256344787705 -3 1 -6 -2 -2 -6 -2 -3
1532256344824609 0 7 6 7 5 2 -2 1
1532256344847545 1 -5 -7 -3 -4 -3 -1 -2
1532256344923343 -16 -15 -14 -7 -2 0 -1 -2
1532256344967229 -5 -5 -10 -5 -4 -3 0 2
1532256344989182 -6 -29 -7 1 3 3 1 0
1532256345041028 6 24 7 1 3 2 1 1
1532256345063967 -2 -4 -3 0 -1 -4 3 -1
1532256345087903 3 12 8 3 -1 5 2 -2
1532256345124804 -2 -11 0 -4 -3 -9 -7 -3
1532256345147742 12 20 9 -1 -2 -6 -5 0
1532256345183662 -8 -15 -21 -5 -1 4 4 -2
1532256345230534 -6 7 8 3 1 0 -2 2
1532256345243486 -1 -7 0 8 2 1 -1 1
1532256345289364 11 -2 4 -1 -3 -10 -7 -1
1532256345350201 -11 -6 50 -4 0 -6 -5 0
1532256345380121 -16 2 1 -3 -1 0 4 1
1532256345410042 -17 -24 -22 1 4 12 2 -1
1532256345424004 18 7 1 2 0 -7 7 13
1532256345469881 9 14 3 0 -2 -1 6 3
1532256345507780 0 13 6 5 2 -9 -10 1
1532256345560639 1 -34 -11 -7 -4 -8 -4 -2
1532256345612515 1 -15 0 -5 4 1 -1 13
1532256345650399 5 -8 -3 3 5 1 -2 1
1532256345784042 -2 -5 -8 -5 -2 -1 -1 39
1532256345829920 -28 -22 2 -5 -2 0 4 -18
1532256345867818 -24 -21 -16 -6 -4 -4 -2 2
1532256345949598 -10 -66 -23 -9 -3 -3 -5 7
1532256345989492 15 13 10 4 -1 -2 -2 2
1532256346049344 -5 -15 12 4 0 -1 -2 -4
1532256346092217 11 -20 -4 1 -1 0 5 4
1532256346212894 -3 -12 -1 1 2 1 4 2
1532256346309635 5 3 -2 0 7 2 1 -1
1532256346370473 3 -15 -1 -5 -8 -5 -1 -1
1532256346430313 -3 -4 -7 5 4 6 -3 -2
1532256346492153 -8 -3 16 -4 3 -1 -1 0
1532256346624798 -13 45 27 2 2 -2 -12 4
1532256346634772 -11 -7 -42 -3 -1 0 1 -8
1532256346645743 -10 4 5 0 -1 -14 2 -12
1532256346760436 -1 1 -1 -8 0 -1 -3 -14
1532256346835236 -7 -6 5 21 10 -2 5 -11
1532256346871140 6 -4 -2 -3 -3 -3 -3 15
1532256346924996 -1 -20 -11 -12 -5 1 -1 -5
1532256347005780 3 -20 -91 1 -2 8 11 22
1532256347054650 -16 22 29 -1 -4 11 -5 -10
1532256347066617 3 15 25 0 -3 -1 2 12
1532256347091564 1 0 0 -1 -2 -9 -2 -1
1532256347179316 1 -1 -1 -1 1 0 5 0
1532256347218212 -1 -15 -11 0 1 -1 -1 2
1532256347255114 -3 -20 -10 15 -1 1 -15 -3
1532256347292014 -4 -28 -40 0 3 2 2 -2
1532256347343876 -2 -8 -9 7 1 0 1 0
1532256347374792 -2 -7 -27 -1 -3 -1 -2 -2
1532256347388756 7 18 14 -6 -3 0 -2 2
1532256347422665 -1 6 -22 1 1 -1 -1 -2
1532256347442612 -3 8 6 -4 -1 -1 -1 2
1532256347496484 -21 -15 10 -15 -4 -2 -3 -9
1532256347502452 0 12 1 -1 -1 -2 -2 -1
1532256347653049 -6 5 29 -7 -4 2 -2 -4
1532256347682969 6 21 36 7 0 33 3 6
1532256347794670 2 14 7 3 0 7 2 5
1532256347825588 -2 -5 -3 -1 -1 6 2 0
1532256347855507 -5 -9 -8 -3 -4 1 -2 -6
1532256347877449 2 -8 23 1 -3 1 -2 -4
1532256347944270 -1 9 11 2 2 -1 -1 -1
1532256347966212 -4 -6 8 -2 -2 3 1 1
1532256347993139 1 7 9 1 0 3 0 0
1532256348043020 2 -9 -7 -3 0 2 1 1
1532256348059961 2 -2 5 3 0 -1 -1 -1
1532256348064948 0 -2 3 -2 -1 -1 -1 -2
1532256348094867 0 -3 0 1 0 -1 -1 -3
1532256348124787 1 -5 2 3 4 4 1 4
1532256348177646 -5 -3 -1 5 1 22 -2 -2
1532256348214555 4 1 6 4 2 9 9 3
1532256348267414 -2 -9 -5 -3 -3 -10 0 -1
1532256348320265 -3 -36 0 -1 -1 -1 0 1
1532256348335224 -2 -4 -10 -4 1 -13 -3 -1
1532256348357166 3 -7 9 -1 0 -2 3 0
1532256348371129 2 1 -5 0 -3 -10 2 1
1532256348403044 12 63 21 8 2 -10 0 3
1532256348430969 1 9 27 2 1 -12 -1 0
1532256348498787 11 -12 -29 -2 -2 -1 -1 -1
1532256348530719 5 29 6 -3 -2 -2 0 -2
1532256348574585 -6 -4 -25 -4 2 1 -1 -1
1532256348597523 -2 -3 1 6 2 -4 0 -1
1532256348627443 5 13 -17 4 6 3 0 2
1532256348657363 -3 2 12 -4 -4 -7 0 0
1532256348680302 1 -40 12 -10 -7 -3 -5 -5
1532256348755102 -27 82 -1 -1 -7 -36 -20 -38
1532256348791007 2 -30 32 5 3 -19 8 18
1532256348814941 2 -5 -75 -3 5 -12 5 9
1532256348837880 5 22 -104 -8 -3 5 3 10

1532256348904702 -7 18 3 -10 -7 0 4 3
1532256348920659 0 -30 -8 -5 -1 9 -4 4
1532256348971523 -5 15 4 37 11 2 -4 0
1532256349122363 -2 3 -3 -3 -3 -1 -1 -4
1532256349220103 6 -10 2 1 -1 -2 1 1
1532256349339782 -2 2 24 -1 -2 -5 -2 -3
1532256349401617 -6 6 2 -1 0 1 -2 0
1532256349460460 2 -4 -1 0 1 3 1 2
1532256349520300 -2 -3 -7 -5 -4 0 -2 -4
1532256349648973 4 -7 -12 -2 0 -3 0 2
1532256349796561 -5 8 -7 -2 2 1 0 -4
1532256349894299 -7 -13 -1 -5 -4 -1 -2 -4
1532256350008009 4 -20 -5 2 6 -2 12 20
1532256350119710 -6 5 20 15 3 -4 -2 -4
1532256350262329 5 -5 12 12 -4 -1 -1 0
1532256350441849 8 77 9 2 5 3 1 2
1532256350487726 2 -15 1 1 8 2 1 -1
1532256350516648 5 60 -38 0 -3 -5 -3 2
1532256350539586 -9 -90 -38 -4 -1 -5 -2 -4
1532256350621368 8 -17 16 3 1 -1 6 59
1532256350698163 -3 -4 -4 -1 1 -1 -3 -12
1532256350742046 2 22 3 -3 -7 -1 -3 1
1532256350815848 9 -35 0 -23 12 5 -1 0
1532256350861726 2 87 28 -26 41 21 3 0
1532256350921566 0 -17 -72 -2 -4 -11 -5 -1
1532256350959465 -1 1 7 -6 -5 0 1 0
1532256350981406 1 21 22 10 -6 -6 -2 -1
1532256351012324 0 7 -7 -9 -10 -1 -1 -1
1532256351019304 0 29 21 2 4 1 0 -1
1532256351042243 0 12 3 4 6 -2 0 -1
1532256351065181 -3 8 -10 0 -2 0 1 -1
1532256351079144 -2 2 0 0 -5 -2 -2 -4
1532256351110061 0 0 3 0 -1 -3 -1 0
1532256351184862 -7 -2 -1 0 -1 1 0 -2
1532256351207801 -5 -5 -4 -1 1 -1 -1 -4
1532256351229741 -2 -5 -11 -8 -4 -3 0 -2
1532256351252680 -4 3 -2 1 -1 -1 -1 -4
1532256351260660 -6 -15 0 0 0 -1 -1 -1
1532256351298573 -3 -6 -2 2 1 -3 0 1
1532256351365379 12 -71 -7 -7 -1 -1 -2 -1
1532256351402281 42 42 0 1 0 -2 1 19
1532256351425219 -32 28 1 5 0 2 2 -33
1532256351462120 -14 -4 1 1 0 0 -2 -13
1532256351485059 10 -10 -15 -7 -2 -2 -2 -9
1532256351507998 4 -9 -4 -1 -4 1 4 -14
1532256351528941 4 -15 0 -3 -1 -2 -4 -7
1532256351581800 4 -20 -74 -4 1 -3 0 8
1532256351608728 9 18 31 1 0 -3 2 16
1532256351653617 -6 -21 -20 1 0 -2 -5 -14
1532256351667571 20 11 14 -3 0 1 1 0
1532256351702493 -6 -9 -8 2 -1 -3 -2 -7
1532256351725416 6 8 10 1 0 1 -1 1
1532256351738381 -9 4 6 -2 -1 -1 0 -3
1532256351786254 5 16 2 1 1 3 0 -2
1532256351830136 0 1 2 1 -1 0 -1 0
1532256351845096 -10 -13 -4 -10 -4 -3 -1 -2
1532256351875016 13 19 1 -7 -6 -2 -2 -2
1532256351897955 0 -8 0 5 3 2 -1 -1
1532256351926877 -6 -49 5 -3 -2 -1 -2 0
1532256351949816 -7 -3 8 0 -1 -2 -1 -1
1532256351981731 6 44 2 1 -1 1 2 3
1532256351996691 -11 -15 -10 -4 -4 -2 -1 -3
1532256352024616 3 -3 -9 0 5 -1 0 1
1532256352047555 -1 5 18 -2 1 -1 -1 -1
1532256352061517 9 -12 -4 -3 -4 2 5 6
1532256352085454 -2 -38 -20 -2 -1 -3 -4 -2
1532256352106397 -10 4 1 -5 -4 -2 -1 -3
1532256352121357 -4 12 -7 0 8 3 -3 -3
1532256352167235 -1 0 -9 5 0 1 -4 -4
1532256352235053 -2 -5 -22 -7 -5 -3 -1 -1
1532256352250024 -7 -15 -14 -6 -3 0 -1 0
1532256352287912 2 47 5 3 4 0 3 3
1532256352324814 1 -15 0 -5 -3 -3 -5 0
1532256352347752 -1 2 0 2 2 0 2 0
1532256352407592 -8 -4 1 3 -3 -2 -6 -3
1532256352445491 -5 -7 0 6 4 4 2 0
1532256352467432 3 2 -17 -8 -1 -1 -1 -2
1532256352490370 -6 -26 10 0 2 3 1 -1
1532256352505331 9 1 0 -3 -2 -2 8 14
1532256352527271 -8 -4 7 -1 -2 0 -3 -3
1532256352550210 -6 -11 -2 -4 -4 -1 -7 -7
1532256352567165 -10 -18 -14 -8 5 2 -3 0
1532256352601075 3 -47 12 36 10 3 1 -20
1532256352624013 5 1 -7 2 -3 -1 -1 5
1532256352647949 7 -6 1 -10 -7 -2 1 5
1532256352684851 0 -5 2 -3 3 0 1 1
1532256352744691 -16 -10 -25 -10 2 1 -10 -9
1532256352781592 17 8 8 1 -4 -4 -3 9
1532256352790568 15 24 19 8 4 2 0 31
1532256352850408 -12 -28 -8 -5 -3 -2 -1 -1
1532256352864370 2 5 3 1 1 1 1 -2
1532256352910248 10 -9 1 -1 0 0 2 14
1532256352924210 -5 -14 3 -3 0 -1 0 9
1532256352970088 -2 -4 -9 1 -3 -2 -1 -3
1532256353015965 15 26 11 6 3 2 4 -2
1532256353089768 -12 -19 0 -1 1 0 0 -9
1532256353127666 5 35 16 3 0 -2 -4 -3
1532256353172546 10 15 8 4 0 0 -1 1
1532256353217427 -1 6 0 -3 -3 -3 -1 -1
1532256353232386 6 12 6 4 1 0 0 0
1532256353283251 5 8 -1 -1 1 -1 -2 -4
1532256353300205 2 5 6 6 4 1 1 1
1532256353330125 -5 -16 -4 -2 1 2 0 -4
1532256353344088 -6 -12 -3 -1 2 3 1 -2
1532256353367026 -4 -4 -6 -2 0 2 0 -3
1532256353389965 -3 -8 4 1 1 1 -3 -3
1532256353403928 -2 4 5 -2 -2 -4 0 -1
1532256353412903 1 7 -9 -4 -5 0 -2 -2
1532256353449805 -4 -12 -6 -7 -3 1 1 2
1532256353463768 2 6 4 3 -1 -3 -1 -3
1532256353494684 3 6 -4 3 1 -1 2 3
1532256353509645 -1 -11 -14 -2 2 1 2 -2
1532256353523608 -3 17 19 -5 -4 12 -1 3
1532256353570482 -1 -21 -3 3 5 7 -3 -5
1532256353592424 -2 -4 2 2 2 -4 -1 -3
1532256353630322 0 -19 4 -1 2 -4 -3 14
1532256353704125 6 4 0 0 0 1 -7 24
1532256353800867 4 -12 -8 -3 -2 -2 -2 -7
1532256353853725 1 -2 1 3 0 -1 0 1
1532256353892621 2 2 -16 -5 -2 -1 -1 3
1532256353932514 2 2 1 -2 -2 -2 -3 -10
1532256353952461 4 -5 0 3 -1 0 -4 5
1532256353975408 -1 20 0 -6 -2 9 0 6
1532256354012300 -6 15 13 5 1 3 1 3
1532256354059176 3 9 11 5 1 2 0 -1
1532256354095080 -6 -16 0 -1 1 -5 -5 -1
1532256354110039 -3 0 -7 -3 -4 -2 1 -28
1532256354132978 0 -3 13 2 -2 2 -10 -16
1532256354155917 6 36 -13 3 3 2 0 32
1532256354213763 2 -1 16 -16 -10 -2 -2 12
1532256354253655 4 11 4 0 -7 -4 -4 -1
1532256354312498 11 -2 10 12 -3 -2 -2 1
1532256354359373 6 -4 -6 25 3 1 -1 1
1532256354365357 -4 -8 25 13 4 1 0 0
1532256354411234 -6 -8 -22 -18 -6 -3 -3 0
1532256354478055 -5 -22 -9 -14 0 3 -5 -8
1532256354537895 2 8 18 3 1 0 -2 23
1532256354576791 2 11 -1 4 0 0 2 -4
1532256354612695 1 4 -18 -2 0 2 1 -6
1532256354688492 -19 -11 -19 -3 -1 3 -1 -5
1532256354695474 6 -22 -3 3 0 -2 1 3
1532256354762296 2 -35 -17 -6 -2 -30 2 15
1532256354799196 -1 19 -1 0 2 9 1 6
1532256354831111 5 2 -6 4 1 5 -1 9
1532256354845073 -10 -1 -12 -11 -4 1 5 11
1532256354898930 -5 -15 -19 -7 2 -6 -1 -12
1532256354996668 7 2 -17 -3 0 -2 -2 -4
1532256355008637 4 8 15 2 -1 -2 3 1
1532256355031575 -3 -3 -9 2 4 2 2 1
1532256355054514 1 -2 -2 0 -2 -4 -4 -3
1532256355093410 -1 -16 -10 -9 1 -11 -2 -1
1532256355100392 -22 -39 -12 -8 -5 -3 -4 -2
1532256355162225 -7 1 0 -2 3 -4 -1 -2
1532256355197132 -8 -24 -6 -4 0 -2 -7 -25
1532256355229047 -1 1 -6 -4 -4 -9 13 18
1532256355264951 4 27 -5 -2 0 2 7 14
1532256355294870 -12 -17 -11 -8 -5 -3 -4 12
1532256355362689 0 -5 -20 -11 -1 -1 -2 -2
1532256355414551 10 18 22 -4 -2 -3 1 1
1532256355466413 16 23 23 -4 -3 2 0 2
1532256355488354 -6 13 1 -11 -2 -2 -2 -3
1532256355542209 -3 32 4 -4 -1 2 1 -1
1532256355572130 4 9 31 -5 -3 1 2 -29
1532256355638951 -2 23 -20 -10 -3 -8 2 60

1532256355760626 1 -30 -56 -6 0 -1 0 1
1532256355797527 2 28 21 11 -3 -3 -2 -6
1532256355865346 1 6 -19 2 4 -7 -1 2
1532256355917210 8 -9 -6 -14 0 -4 0 4
1532256355939149 -5 -2 -41 2 1 -1 -1 1
1532256355999004 3 -2 6 4 3 9 0 -4
1532256356021945 0 0 8 -7 -4 0 -1 -3
1532256356217424 -1 3 -11 12 7 2 0 3
1532256356255321 -3 5 20 2 -1 -1 0 -1
1532256356277262 1 8 5 -2 0 0 0 -1
1532256356291225 -9 10 -23 -1 -2 1 2 1
1532256356315161 4 -1 -69 -9 3 1 2 -1
1532256356368020 5 1 61 2 0 2 1 1
1532256356396943 0 19 23 2 3 -5 1 1
1532256356494681 3 5 -39 1 0 -2 7 3
1532256356532579 -2 -72 -90 48 9 -7 1 -12
1532256356652260 -5 1 -9 -3 -3 3 7 -1
1532256356719081 0 -5 1 4 -2 1 -3 -1
1532256356756980 0 3 9 -6 11 7 0 -4
1532256356816844 -3 -2 3 2 -4 2 11 3
1532256356886633 -2 22 39 2 0 -3 -5 1
1532256356936500 1 -10 -27 -23 5 2 0 0
1532256356996340 1 -13 10 12 4 2 -1 0
1532256357200792 0 13 15 6 3 -2 -2 -2
1532256357439155 -3 -29 -16 -15 -4 -1 -3 -3
1532256357558835 0 3 9 0 0 -1 -2 0
1532256357641614 3 -1 -3 1 1 -1 -3 0
1532256357656574 -2 -1 8 -2 2 0 3 0
1532256357680527 -1 -2 -1 -8 0 0 -2 -3
1532256357718414 1 11 -26 -10 -4 1 -2 -1
1532256357725389 1 -23 -2 3 1 -2 -1 1
1532256357747331 2 5 -1 2 0 0 0 -1
1532256357785238 -10 -1 3 -2 0 -1 -2 -1
1532256357822131 8 29 6 2 -1 -1 -4 0
1532256357867011 4 6 8 4 2 1 -2 -14
1532256357896930 1 1 -53 -1 -2 -6 -15 -1
1532256357958765 32 -34 9 -8 -2 -5 -15 -8
1532256357987688 52 18 5 1 1 0 -1 -3
1532256358009630 36 -3 -5 -2 -3 -1 12 -3
1532256358028579 42 11 0 1 2 1 -40 -2
1532256358049523 -122 8 -6 0 1 6 -30 -17
1532256358062489 1 -27 -6 -5 -3 0 23 27
1532256358099390 -9 -4 -9 -4 0 -2 9 -5
1532256358124323 -34 5 -1 2 -3 0 15 -16
1532256358136291 6 -28 -3 0 0 -4 9 2
1532256358182168 8 -24 1 0 1 1 -2 1
1532256358227049 1 3 -5 -1 0 2 -1 12
1532256358248990 -11 -9 -4 -2 -2 -3 -54 -4
1532256358281902 9 19 1 2 3 2 -6 -1
1532256358302846 -13 -29 -6 -3 -3 0 9 -3
1532256358340744 4 1 0 -1 1 -2 -2 1
1532256358362685 1 4 -1 1 1 2 1 1
1532256358384627 5 -5 -5 1 0 0 -2 0
1532256358399587 2 9 -1 -2 -4 -1 1 0
1532256358423540 2 1 2 -2 -2 -2 -2 -1
1532256358445464 -2 1 -3 -4 1 -1 0 -2
1532256358474387 1 3 -2 -3 -2 -1 -13 -1
1532256358550197 4 27 9 0 -3 -2 2 0
1532256358568137 2 6 3 0 5 0 1 0
1532256358603043 -5 -24 -10 -5 -2 -3 2 -3
1532256358632963 -6 9 1 5 1 0 -1 -3
1532256358638947 1 -5 -1 -1 -2 -2 -1 -1
1532256358669864 -1 2 2 -1 2 -1 0 1
1532256358698787 6 -5 -2 -3 -6 -2 -3 -1
1532256358722723 3 8 9 1 -2 0 0 1
1532256358744664 -8 -9 -7 4 2 -2 -1 -2
1532256358758627 2 13 -18 1 4 1 -1 0
1532256358789545 1 30 17 2 0 -1 -1 -2
1532256358805501 -7 -10 -9 -3 -4 0 -1 -1
1532256358818473 1 -15 -5 -1 -1 -2 -2 0
1532256358842403 -1 -7 -2 -1 1 -1 0 -1
1532256358878307 -2 -13 -13 1 0 2 0 -1
1532256358893267 -5 4 0 -7 -2 -1 1 0
1532256358925182 4 6 0 -6 -3 -1 -1 0
1532256358962083 -7 -17 0 -2 -3 1 0 0
1532256358985022 4 7 1 -1 -3 -4 -2 0
1532256359007961 0 4 -1 1 -3 0 2 -1
1532256359082760 2 13 5 -2 -1 1 4 3
1532256359149581 -6 -22 -6 0 -5 -1 3 2
1532256359225379 1 31 3 0 -5 -3 -3 -1
1532256359238345 -4 -34 -2 -4 -4 -2 -3 -6
1532256359299187 4 14 3 -2 -1 -1 -4 -1
1532256359345059 6 24 -1 -1 3 -1 0 0
1532256359404899 6 -9 -1 2 8 0 10 6
1532256359448781 -5 15 1 0 2 1 5 2
1532256359525591 0 -2 -3 0 0 1 -3 0
1532256359592397 2 25 -2 -6 -2 -2 -2 1
1532256359621320 -6 27 3 3 -1 0 -1 0
1532256359741000 5 -6 -4 -1 -1 0 0 1
1532256359787875 7 -9 4 2 2 1 -5 -5
1532256359809816 -5 1 -1 -2 -3 -3 6 -5
1532256359860680 3 13 5 -2 -3 -3 -5 1
1532256359884616 0 8 0 -2 -3 -2 -2 -1
1532256359967395 -15 -29 -9 -4 -2 1 12 -10
1532256360005294 -5 -9 -18 -8 -2 0 1 5
1532256360087075 -5 -1 -6 -2 -3 -5 -3 -10
1532256360110014 8 15 14 7 -1 -3 -1 -1
1532256360146915 4 2 -1 -3 -4 -7 -1 -1
1532256360169853 4 2 -1 -1 -4 -1 -2 2
1532256360215731 -4 -2 -1 2 5 2 -1 1
1532256360223710 -1 -3 4 1 -1 -1 -2 2
1532256360244653 -2 1 -1 -2 0 1 2 -2
1532256360267592 0 2 0 -3 -2 -1 -1 -1
1532256360304493 2 2 0 2 3 -1 0 -2
1532256360327432 1 4 0 -3 -1 0 1 0
1532256360356354 0 5 6 5 4 3 0 0
1532256360389267 0 5 7 0 2 2 -1 1
1532256360410210 0 -2 -3 -5 -5 -3 -1 -1
1532256360432152 1 -6 -3 -9 -2 -2 -2 1
1532256360448109 0 -4 3 2 1 -1 0 -2
1532256360499970 1 -14 -1 -2 -1 -2 2 -1
1532256360589730 7 -31 -30 0 -3 -2 -10 26
1532256360710408 7 14 0 1 3 1 -1 42
1532256360792189 -4 -7 -4 2 0 7 2 -9
1532256360807148 -6 -32 -17 -2 -3 0 -4 -12
1532256360853027 0 -27 -3 0 0 -6 -1 2
1532256360889928 0 13 -1 4 5 1 1 -4
1532256360912866 -3 33 23 -4 -3 -2 2 -2
1532256360963731 0 -6 -7 2 -1 1 2 2
1532256360986669 -5 -12 -3 -3 -1 0 1 -4
1532256361009608 5 21 1 1 0 2 -1 -1
1532256361048504 -4 -21 -6 0 -3 -2 -5 -7
1532256361070445 -7 -9 -2 -5 -2 -2 -2 -1
1532256361083410 0 -10 0 7 7 3 3 -2
1532256361130285 0 -19 -15 5 2 -1 -2 -1
1532256361167195 -3 -9 -1 -16 -3 -1 1 1
1532256361198104 0 -8 -13 -10 -5 -3 -2 0
1532256361263927 5 -1 1 -3 -2 -2 -2 -1
1532256361286866 2 -6 -34 -9 -1 -1 1 0
1532256361323767 9 22 16 -5 -4 -2 6 9
1532256361430481 -3 -6 -12 1 0 0 0 -1
1532256361452424 -7 -22 -19 -10 -2 -1 -3 -3
1532256361497303 -2 6 1 -7 -5 4 -1 -1
1532256361520242 -3 -22 1 2 0 3 1 0
1532256361549165 -2 0 -17 -4 0 1 5 7
1532256361639922 2 -16 -81 -3 -3 -4 -1 0
1532256361669842 -1 11 8 -6 -5 21 0 4
1532256361752621 1 14 -2 -2 -4 -21 -5 -5
1532256361789522 -3 -7 -3 2 -3 -24 -1 -2
1532256361796503 -3 -10 -6 2 6 16 6 -1
1532256361865319 0 -4 -5 -3 -1 -1 0 -4
1532256361887261 1 3 -8 -5 -2 -7 -9 -4
1532256361946103 1 1 1 0 0 8 1 -1
1532256361970039 -1 17 3 -2 2 -5 -1 1
1532256361999959 -1 6 0 2 -2 4 -3 -8
1532256362028882 -1 6 -2 0 -1 6 -2 -2
1532256362052818 6 39 5 -3 -2 1 0 3
1532256362082738 -3 10 34 3 1 -6 -1 -1
1532256362119639 3 7 3 3 -1 1 5 3
1532256362149559 -4 -2 3 -1 -1 -4 0 0
1532256362186476 2 14 23 -2 -1 1 -2 0
1532256362209399 -2 -13 2 3 1 0 -2 -1
1532256362232338 -8 5 -5 3 2 -2 2 2
1532256362246300 0 3 36 4 3 5 -2 -4
1532256362269239 0 -20 -36 -7 -1 -1 0 0
1532256362292178 2 38 14 -1 -1 3 -1 5
1532256362315117 -30 -26 23 5 5 13 1 -5
1532256362329079 1 -43 10 5 11 36 19 51
1532256362336060 -19 -92 -15 -1 -4 -24 10 14
1532256362374957 4 -11 -4 1 4 12 -7 -21
1532256362419861 -2 62 12 -65 -36 -18 -9 -26
1532256362434829 1 -29 -128 -4 -11 -30 -7 -16

1532256362472719 3 -9 4 15 0 1 -2 -2
1532256362525578 -6 -9 7 1 1 -1 -3 -2
1532256362568489 10 28 16 4 -1 2 0 0
1532256362651249 -2 -20 -20 5 0 2 0 1
1532256362714096 -1 -4 -8 -1 -1 3 -1 -1
1532256362757962 -3 4 16 0 -1 -6 -3 -1
1532256362779904 -6 21 5 6 2 0 -1 -5
1532256362854704 -3 -4 -18 4 -1 1 -1 0
1532256362885622 -6 3 16 0 0 -1 -1 -4
1532256362915542 -1 36 42 3 1 -1 1 -2
1532256362938480 2 25 98 8 1 -3 0 0
1532256362988347 -2 -15 27 1 -1 0 0 10
1532256363013280 15 -2 1 -2 -1 4 2 2
1532256363094064 12 51 23 5 -2 3 26 4
1532256363184823 2 46 84 -3 3 11 0 6
1532256363222721 -2 -23 85 -2 -7 2 -1 9
1532256363253637 -3 -14 -15 -10 -2 -10 -4 -1
1532256363356363 -6 -2 -8 -5 -7 -3 1 -5
1532256363440139 -1 -5 18 -4 -3 1 -1 -2
1532256363491003 -1 -1 -48 1 7 2 0 1
1532256363574779 2 31 -7 -2 -4 2 -1 2
1532256363634626 2 -11 -4 3 13 1 0 1
1532256363754309 0 15 22 2 0 -1 -3 0
1532256363837088 4 30 1 0 5 6 0 2
1532256363896934 3 8 -65 2 1 -10 4 1
1532256363934826 3 -6 2 -15 34 15 0 1
1532256364017616 -4 -9 15 -14 -17 -6 -1 -2
1532256364092406 1 -1 9 4 -4 -1 -1 2
1532256364227045 -1 -7 2 -2 1 2 2 -1
1532256364295862 -18 -25 -9 -5 -6 -3 1 9
1532256364332763 29 -7 -9 -7 -6 -8 6 -29
1532256364376645 22 12 0 -3 -5 -5 -10 -5
1532256364436485 9 10 -2 6 2 -2 -9 -9
1532256364476378 12 -17 -2 -2 -2 0 -1 6
1532256364520261 55 0 -2 -2 -4 -2 -16 3
1532256364565141 19 11 0 1 -3 -1 2 10
1532256364676843 2 11 0 -3 -4 -1 -2 -3
1532256364738678 -3 9 11 3 1 -1 0 -2
1532256364773584 -2 7 11 5 2 2 0 1
1532256364827440 3 -10 -11 4 2 2 1 1
1532256364946122 2 -7 4 6 5 -2 0 0
1532256364999979 -1 -31 -1 0 0 0 0 -1
1532256365013941 -4 15 2 4 7 0 -1 0
1532256365059819 -5 -5 -17 -5 -1 0 -1 -2
1532256365082758 -2 -5 7 -1 2 -2 -1 -1
1532256365096720 -1 2 6 -4 -2 -2 -3 -2
1532256365142597 2 6 -8 1 3 1 1 -2
1532256365156560 -2 11 -1 -4 0 0 -3 -1
1532256365187477 8 -15 4 2 -1 -1 4 5
1532256365210416 -9 -17 -15 -6 -3 -2 -1 -3
1532256365225376 -3 7 4 1 0 1 -1 1
1532256365276240 -19 -28 -14 -6 0 -2 -8 -7
1532256365345069 -1 -7 -10 -8 -2 1 6 -13
1532256365442794 -20 -11 4 -3 -2 2 8 -2
1532256365455760 1 -6 -7 1 -1 0 0 -14
1532256365509616 15 30 0 0 -6 -1 -2 1
1532256365516598 9 -6 -29 -14 -9 -4 1 6
1532256365576436 -16 -14 -7 1 -1 2 5 -3
1532256365636277 -4 4 5 -1 0 -1 3 8
1532256365682154 21 24 1 -3 -3 -2 -1 8
1532256365720053 8 2 5 2 -4 -2 -2 2
1532256365755957 -8 6 -2 -2 -6 -6 2 7
1532256365779893 1 -1 6 3 0 1 -6 -3
1532256365802832 -3 6 -2 -4 -3 -5 -2 -3
1532256365839733 -11 0 -5 -2 -1 1 4 1
1532256365862671 -4 -11 -15 -5 0 1 2 1
1532256365885611 4 5 -4 -1 1 -2 -1 0
1532256365913536 -11 -12 -1 0 4 2 1 -5
1532256365936474 7 28 -9 -4 3 5 14 5
1532256365961408 23 58 34 14 -2 -3 -3 2
1532256365998309 -21 -32 0 -1 -2 -2 5 3
1532256366012271 -22 -31 -32 -11 1 4 0 -7
1532256366079093 2 -15 2 2 -2 -2 -1 14
1532256366184810 -2 -2 -8 -1 1 1 1 0
1532256366222709 2 6 3 4 5 1 1 0
1532256366275568 1 9 8 3 0 -1 -1 2
1532256366348373 -4 -23 3 1 1 -2 -1 0
1532256366470047 1 -13 -12 2 2 3 1 1
1532256366529887 1 -15 -8 -2 -2 -1 -2 -1
1532256366604687 -2 -23 10 -2 -3 -4 -4 -3
1532256366678490 0 -37 -15 -1 1 4 -2 -12
1532256366738330 3 14 8 1 0 6 2 -1
1532256366806149 5 -6 16 1 0 -2 -3 27
1532256366861002 -3 -1 2 1 1 -3 -4 -13
1532256366881946 -2 -23 -3 -3 -2 1 2 -8
1532256366927834 -11 -6 -11 -6 -1 -1 -1 -48
1532256366980682 3 -4 11 -10 -3 0 -2 -7
1532256366987664 -18 -4 -5 -4 -2 -1 0 2
1532256367047503 -4 -16 -34 4 0 -1 0 -2
1532256367061466 -12 -22 -22 0 1 2 3 -9
1532256367092383 7 23 33 3 -1 1 1 5
1532256367121306 0 -3 8 -1 0 2 0 -9
1532256367160210 4 12 9 0 -2 -3 0 8
1532256367212063 -5 -18 -14 -3 0 3 0 -10
1532256367265919 1 -43 -64 -3 -2 2 -1 -2
1532256367294842 5 6 -5 -16 0 1 1 1
1532256367370646 3 -10 1 6 1 0 3 4
1532256367453418 9 29 48 13 5 -1 1 5
1532256367527220 -1 -8 -7 -15 -1 8 1 -2
1532256367565119 5 20 -4 6 -1 1 -4 2
1532256367609999 -1 5 17 1 0 1 1 1
1532256367668842 1 4 14 2 3 -7 4 7
1532256367707738 3 -5 -3 -3 -2 -1 -2 8
1532256367730677 2 -43 -48 0 0 9 1 1
1532256367774559 6 -9 2 7 4 7 7 22
1532256367827417 -12 -3 5 0 -1 -1 1 2
1532256367850357 -9 -16 5 0 -1 8 -8 -11
1532256367887258 -1 -11 -1 -1 -1 8 -8 -18
1532256367964052 2 -8 10 0 2 1 -1 8
1532256367986991 0 -12 -5 -4 -1 0 2 10
1532256368029876 -11 -38 -29 -8 -1 2 4 6
1532256368052815 5 9 6 3 -1 -2 2 3
1532256368089716 -2 -3 -3 -1 1 -2 -2 -2
1532256368112655 -3 -8 -7 -4 -4 -8 -5 -2
1532256368180473 -2 5 1 -5 -3 29 0 -2
1532256368225353 0 7 1 3 0 -5 -3 -1
1532256368284204 0 -6 -4 -2 0 -1 2 -1
1532256368309129 -3 15 -2 0 1 1 2 4
1532256368330074 7 22 7 -2 -2 -5 1 0
1532256368344036 4 8 9 13 4 -4 1 1
1532256368389913 5 -16 -11 5 2 5 5 7
1532256368411872 -7 13 12 0 -9 -4 -7 -10
1532256368434794 3 -17 -22 -4 4 2 0 -2
1532256368480670 -3 -2 -36 -1 -1 1 0 -2
1532256368532543 -3 -2 26 25 8 -1 0 -1
1532256368547492 5 -55 -16 -13 -2 4 -1 -1
1532256368585391 -15 -16 12 -3 -2 -2 -3 -1
1532256368637252 10 -32 14 -1 1 1 -3 -24
1532256368652212 -8 17 25 1 12 92 -3 14
1532256368704074 5 10 95 -39 -9 -25 -6 -13
1532256368734991 0 16 -28 17 -6 -1 -1 -1

1532256368801812 8 38 25 8 4 -2 -2 5
1532256368841705 -3 25 -10 -11 -2 15 2 -7
1532256368892569 6 -3 -2 10 6 -12 -1 1
1532256368906532 -5 4 -39 -6 -3 -2 -2 -4
1532256368952409 -3 -3 2 -1 0 -1 -1 -1
1532256368967370 6 -11 -7 -6 -2 -4 0 3
1532256369035188 -3 -4 16 2 -2 -2 -2 -2
1532256369056132 10 -23 0 -7 -2 -2 -1 2
1532256369076095 -1 7 5 1 0 -3 -1 -1
1532256369117970 -2 14 18 1 -1 0 -1 2
1532256369153871 0 15 -1 8 0 1 -1 0
1532256369229667 3 -9 18 3 3 7 0 2
1532256369252623 1 -24 -13 1 -6 -5 -1 1
1532256369273551 4 -28 -29 -5 1 2 -4 -12
1532256369380182 22 33 -15 4 -1 -45 14 40
1532256369492881 -6 5 18 5 -9 -11 -8 -9
1532256369522803 0 6 74 0 2 3 5 3
1532256369575660 -3 5 -45 -6 -1 -1 -6 -6
1532256369612561 0 1 5 -32 -21 -8 -2 -2
1532256369649462 5 -12 -24 -7 -7 -3 -2 0
1532256369656443 12 0 -6 -6 -7 -1 -2 0
1532256369702321 3 34 70 -21 -14 -3 0 1
1532256369717294 8 22 6 3 6 0 -2 -1
1532256369754182 17 23 17 0 -6 -5 -4 4
1532256369792080 1 -34 -28 5 5 2 0 -1
1532256369822001 11 57 1 1 -2 2 2 -1
1532256369851921 -7 3 -15 4 -1 3 0 -1
1532256370008501 -7 -7 4 -4 -8 -5 -3 -6
1532256370234898 -1 -7 -6 -1 -2 0 -2 -3
1532256370437355 -1 -30 -15 -19 -17 -4 -3 0
1532256370474257 -1 0 46 33 5 6 0 -2
1532256370571995 7 -5 -10 -11 -6 -6 -3 -3
1532256370623856 1 -2 -3 -2 1 1 0 -1
1532256370684704 12 -4 -4 -3 -1 0 -1 -4
1532256370819334 33 -14 -3 -2 -1 0 4 36
1532256370872193 -32 -1 20 -3 -8 0 -3 -21
1532256370925051 21 18 -3 -1 -7 5 7 71
1532256370999850 -2 30 -2 0 7 3 1 -19
1532256371021792 -13 -10 -3 -1 -1 -5 4 -8
1532256371074651 -49 21 -3 -2 -1 -2 -11 -17
1532256371111552 -15 -30 -3 -1 0 -2 8 18
1532256371157432 13 -1 0 -5 1 2 0 19
1532256371247190 -10 1 -3 -1 1 -1 -1 0
1532256371270128 2 12 1 1 1 -1 2 -3
1532256371295064 9 0 1 0 2 3 3 -9
1532256371337947 2 13 -1 -2 -5 0 -3 1
1532256371398784 1 6 1 -3 -3 -3 4 -17
1532256371411750 -3 3 -15 0 3 3 4 0
1532256371464608 -2 -57 0 -1 0 -1 -2 0
1532256371471590 -4 48 22 -1 -1 -1 -1 -1
1532256371562346 -1 -19 -6 -9 -1 -3 2 3
1532256371591270 -14 -98 -5 -2 2 3 -1 0
1532256371614207 2 11 9 4 -2 -4 -1 0
1532256371674048 -2 -4 1 -4 -12 -2 0 1
1532256371697984 -15 -45 -24 -4 4 0 -2 -4
1532256371734905 5 7 -11 7 6 4 2 -2
1532256371794726 7 19 14 0 -1 -2 -5 -2
1532256371817664 -2 -2 8 -4 -1 -1 -3 -6
1532256371900443 4 -14 -24 3 0 0 8 18
1532256371960283 1 -8 17 -5 -2 -4 -6 0
1532256371983221 -9 1 -11 3 0 -2 0 2
1532256372020123 9 -10 -5 -3 3 2 1 18
1532256372058023 -2 28 -12 -3 -1 -2 -3 -15
1532256372102901 4 -24 3 -8 -2 2 3 4
1532256372147781 -6 -7 4 1 -10 -2 -3 -1
1532256372177701 -2 -29 -21 -7 -5 0 2 3
1532256372199643 -2 29 0 6 -2 -3 0 -4
1532256372213605 20 20 14 0 1 3 1 3
1532256372260482 5 -5 -6 -1 -1 1 -1 -4
1532256372273445 -6 10 -3 -5 -5 -2 9 12
1532256372320319 14 4 2 1 2 0 5 4
1532256372342261 5 -1 -3 -4 -2 -3 -3 0
1532256372394123 14 37 13 3 -1 -1 -2 4
1532256372453963 -13 -15 -4 -1 1 -3 1 1
1532256372536741 8 25 11 5 -1 -3 4 1
1532256372633521 -5 5 -2 2 1 2 2 1
1532256372680357 -2 -6 0 -2 1 0 -1 -3
1532256372725237 -2 -3 -1 -2 -1 0 0 0
1532256372740197 1 8 -1 -3 1 -1 -1 3
1532256372844921 -1 -19 -8 -3 1 1 -3 -4
1532256372934677 -2 0 6 -1 0 -1 0 0
1532256373062336 -3 8 -4 0 1 -7 1 -1
1532256373136138 4 -4 13 3 -1 4 -3 -31
1532256373189994 -1 15 -8 -3 -1 23 4 -10
1532256373219914 -6 6 17 -1 1 8 -7 -8
1532256373264795 -7 -4 22 36 6 -37 -9 -8
1532256373339594 5 -24 -12 -4 0 7 9 0
1532256373438330 -14 28 16 2 1 9 0 -4
1532256373460272 -5 8 -13 -5 -3 -5 -3 1
1532256373511136 -3 7 7 8 1 2 3 -4
1532256373542053 -9 -13 -53 -1 1 1 -1 -1
1532256373556015 1 3 15 0 -4 -3 0 2
1532256373578954 4 17 22 19 -1 -2 -1 -1
1532256373615855 -3 -26 4 -3 0 -1 -2 -4
1532256373639792 4 22 39 15 1 -1 1 1
1532256373707610 1 7 -77 3 -1 -2 -2 0
1532256373759471 0 0 -47 0 1 -1 -5 -7
1532256373812330 -2 -5 42 -8 -2 1 1 -1
1532256373879181 -5 -3 -20 -5 -1 -4 0 0
1532256374000854 7 -5 3 -4 -2 -8 -1 1
1532256374024792 -6 -2 6 -5 -1 -13 -6 -6
1532256374076651 -17 -15 -41 -6 0 51 2 -3
1532256374202315 3 1 20 6 1 -18 -3 0
1532256374239232 -5 -7 17 3 3 2 -2 0
1532256374255183 5 12 9 3 -5 3 6 2
1532256374299056 0 0 5 -3 0 -2 1 -3
1532256374337952 1 1 -7 -1 -1 -4 -6 -1
1532256374382832 0 -5 -1 -3 1 -9 -2 -4
1532256374418736 -3 -3 5 -3 -3 -1 2 3
1532256374441675 1 4 3 2 1 -4 0 1
1532256374465617 -6 -22 -3 -2 -2 -14 5 -1
1532256374487552 4 -10 -2 -3 0 2 -6 18
1532256374524453 -5 -1 -4 -1 -1 9 1 -8
1532256374555389 -2 31 2 -2 -1 -14 -12 -8
1532256374585291 -1 6 -1 -4 0 6 0 1
1532256374629183 -3 -6 1 -1 0 -7 -1 -1
1532256374646128 1 -9 -2 0 1 -3 -1 -2
1532256374655105 6 42 21 2 -1 -3 -1 -2
1532256374689013 -2 -3 9 -2 0 1 3 1
1532256374713948 0 -9 -11 0 -3 -5 -3 1
1532256374736886 -7 -29 -26 1 -3 1 -1 -3
1532256374764811 5 23 10 5 4 2 2 0
1532256374787750 0 -17 16 -1 -3 -7 0 2
1532256374801715 5 -13 -21 -1 -1 3 2 3
1532256374871544 12 15 7 22 12 10 2 3
1532256374878508 2 19 15 -7 -6 -2 0 -1
1532256374929371 7 24 65 0 1 -2 1 3
1532256374951322 1 2 7 1 0 -4 -1 2
1532256375041072 -22 40 -22 3 1 51 22 -70
1532256375086950 4 -13 -69 -46 -20 -18 -2 27
1532256375101909 13 -36 -55 -5 4 -5 -1 -1
1532256375140806 -1 -41 -76 -32 -6 -5 -4 -2

1532256375147787 2 30 53 24 5 3 -5 5
1532256375160752 4 13 37 18 5 -3 -2 6
1532256375207628 3 -17 28 -2 -3 -6 -2 2
1532256375221589 -5 -10 19 -31 -10 6 -5 0
1532256375230565 -2 0 6 0 1 -9 3 1
1532256375246523 -6 -5 -16 6 -4 -2 3 -4
1532256375281429 -7 2 5 13 3 2 2 -1
1532256375303371 0 2 11 8 3 -17 -3 0
1532256375340877 -1 12 22 8 3 -6 0 -2
1532256375364813 6 -8 -7 -4 -4 3 -1 1
1532256375394733 2 9 18 0 -1 -7 0 2
1532256375400726 -3 -6 -6 5 5 7 0 0
1532256375439613 2 3 -4 3 -1 2 0 -1
1532256375485491 3 -4 -6 1 1 -3 -1 1
1532256375508429 3 -7 -5 -2 0 -9 4 9
1532256375545331 0 3 -27 4 3 -3 -2 -2
1532256375567271 4 74 -19 6 2 4 1 -1
1532256375605170 -4 -53 -69 -4 -1 7 -3 15
1532256375627111 -2 2 59 -1 -6 -14 -8 -5
1532256375657031 -7 -4 5 -6 -4 -27 5 4
1532256375672989 16 21 13 0 1 -28 21 67
1532256375725848 -15 11 100 9 -5 6 -45 -57
1532256375756765 0 10 -69 -2 -1 -1 6 5
1532256375777709 -9 17 -65 -30 -14 -13 -8 -32
1532256375807632 2 -17 26 11 2 -6 -3 -7
1532256375843533 -1 21 64 16 16 -32 2 2
1532256375890408 -4 -15 46 1 11 -13 -5 -4
1532256375903373 0 -5 -12 -9 -9 7 0 -3
1532256375972189 5 -7 9 7 -4 -2 -1 1
1532256375995128 -26 6 -24 -37 -16 -2 -4 -8
1532256376033027 11 4 15 11 5 4 1 0
1532256376047987 -6 8 5 2 2 4 1 16
1532256376069928 -14 1 6 2 -2 1 -4 -9
1532256376107827 8 -4 -3 4 2 3 1 -2
1532256376129767 -4 11 4 1 -1 0 -5 -11
1532256376143730 1 -4 0 0 2 2 2 -8
1532256376152716 3 -31 -3 2 -7 -2 1 16
1532256376168664 -3 18 9 0 19 9 2 -10
1532256376203570 -4 -19 -27 -3 -5 -6 -4 26
1532256376250445 -6 -22 10 -4 -15 -4 -6 -20
1532256376287363 -2 23 0 1 1 -1 1 -14
1532256376310285 6 7 2 -1 -4 -6 4 29
1532256376370125 4 4 -1 1 1 -9 9 -1
1532256376451906 7 0 -4 1 0 2 0 -9
1532256376631426 -2 -11 -1 -2 2 -1 1 -1
1532256376655362 0 -2 0 0 -2 0 0 3
1532256376729165 0 8 11 15 -4 -1 0 0
1532256376886744 -2 0 1 18 36 5 -1 2
1532256376909682 -1 -2 1 -32 -11 1 -1 -3
1532256376969522 1 2 2 44 -11 -5 -1 0
1532256376991463 2 2 -2 -14 -5 0 -2 -1
1532256377015400 1 11 2 -3 12 2 -1 0
1532256377037341 -6 -21 -9 -4 -1 0 -1 -5
1532256377066264 1 6 -1 -5 -4 -3 -2 -1
1532256377089202 0 -13 -1 -2 2 1 -1 0
1532256377111143 -5 -32 -7 -3 0 1 -1 1
1532256377151053 -4 7 1 0 0 0 0 -2
1532256377202898 -2 0 -14 -6 0 -3 -3 0
1532256377209882 0 2 2 -1 -2 -2 1 1
1532256377248776 1 15 7 4 1 1 0 -3
1532256377301634 8 1 5 4 4 2 0 -6
1532256377307618 -16 -1 -6 -4 1 1 7 8
1532256377375437 -18 8 0 2 -3 -15 -13 0
1532256377495117 -20 -10 5 2 -2 0 1 -15
1532256377517058 7 2 -3 -1 -1 -1 -5 -17
1532256377532018 -11 -9 -4 -3 -1 -4 -3 6
1532256377568928 11 -8 4 -6 -2 0 1 3
1532256377599837 3 6 -3 0 -3 -1 0 -1
1532256377651698 -3 1 -2 -3 -1 0 0 -4
1532256377675634 2 -9 -2 -2 0 -1 -2 -7
1532256377766391 0 5 -2 1 0 0 0 -1
1532256377877095 1 28 5 2 3 -3 -1 -3
1532256377928957 3 -1 -2 -4 7 3 1 1
1532256377959873 -3 23 -5 2 -1 -1 2 1
1532256378011735 7 -2 10 0 -4 -1 -4 -2
1532256378034674 -15 -23 -2 -3 -4 -2 2 1
1532256378095526 0 24 4 1 -3 -2 7 11
1532256378140391 8 30 5 0 -1 -1 1 -1
1532256378229153 -3 -44 -5 -2 0 2 2 -2
1532256378356812 -11 -64 4 1 3 1 1 -2
1532256378807626 3 9 7 6 3 1 3 3
1532256378839545 3 10 1 -1 -1 -2 4 -11
1532256378875445 -5 7 1 0 0 1 -4 0
1532256378920335 -2 8 3 2 2 0 -15 -5
1532256378957226 10 25 6 1 -1 0 0 0
1532256378994128 -20 -45 -19 -4 -1 2 -6 4
1532256379107824 41 29 9 9 5 2 1 -3
1532256379197583 2 -2 -4 -2 -2 0 1 0
1532256379220522 -2 -15 -2 2 5 -8 -1 -3
1532256379234484 2 7 3 -3 -3 -1 0 -1
1532256379287343 -2 0 -2 -1 -2 0 1 -1
1532256379331226 -2 -46 -8 2 -1 2 1 0
1532256379342197 -3 1 -7 -1 -3 -1 -2 1
1532256379459882 2 17 4 -1 -1 -1 -4 21
1532256379497781 1 15 6 -1 -2 -3 -6 -13
1532256379533685 -3 -3 0 -2 -1 1 5 -9
1532256379557621 11 13 5 -1 -1 -1 1 13
1532256379593525 0 -6 -15 -1 -1 0 1 0
1532256379723178 12 -28 -8 -6 -2 0 6 0
1532256379774072 1 -8 8 0 0 2 -4 -4
1532256379797011 -11 -22 -26 -2 -2 -7 -4 -23
1532256379819950 0 -17 -1 -1 -1 8 3 4
1532256379842888 -4 -4 2 0 4 -2 2 -5
1532256379857848 -6 17 20 -5 -1 1 -3 -4
1532256379879790 -3 -21 -12 -5 0 1 -1 -4
1532256379934643 -5 1 23 -1 -1 5 0 0
1532256379977528 1 18 50 8 -4 -2 1 0
1532256380000479 -5 -2 -5 -7 -4 0 -3 -2
1532256380013432 2 13 4 -4 1 -1 -1 2
1532256380060307 0 -13 2 -23 -3 -1 -1 -1
1532256380105187 0 13 -9 6 2 -1 1 -1
1532256380143086 -9 -7 13 -1 -5 0 0 -5
1532256380157048 -4 -18 -4 12 5 -20 -5 -3
1532256380196951 -3 5 0 6 -2 -2 -2 0
1532256380241822 -3 -27 -23 -1 -3 4 -1 -1
1532256380262765 -12 4 -5 3 2 -4 0 -2
1532256380299667 12 28 39 1 1 6 1 1
1532256380336569 -3 -10 15 -5 -3 -16 -5 -1
1532256380359506 -5 -5 -16 -3 -2 6 -2 -1
1532256380389427 9 9 18 6 0 6 3 4
1532256380427326 2 -20 -39 -8 -7 -10 2 1
1532256380450264 0 13 30 3 0 -6 1 1
1532256380502126 4 3 11 -2 -16 -17 -5 -8
1532256380516088 -1 10 1 -5 -5 -9 -2 1
1532256380575928 7 -46 -10 4 4 -18 2 5
1532256380599864 -13 12 6 0 0 15 2 -6
1532256380682642 6 11 12 2 1 -3 -2 -3
1532256380719544 0 -14 0 -3 -6 -9 -2 -3
1532256380802323 -4 -2 3 1 1 -1 -4 -7
1532256380862162 -1 3 -4 -1 3 29 4 -1
1532256380885101 -1 6 -2 -1 1 7 3 26
1532256380923000 0 -10 -6 -3 -3 0 -7 7
1532256380952921 -2 3 -6 -1 2 50 -1 0
1532256381004781 5 -8 4 3 0 -24 1 12
1532256381027720 0 14 -1 -3 -1 -11 -1 0
1532256381049662 4 -12 -4 1 -2 -6 3 14
1532256381079581 2 40 -7 -2 2 -1 -4 -3
1532256381102520 1 -50 -24 0 -1 -8 2 2
1532256381139421 2 36 15 -4 -1 4 -1 3
1532256381162359 -5 19 -14 -2 -4 -4 -4 -7
1532256381207240 -1 -14 1 1 1 2 -1 -2
1532256381274062 -4 -2 7 1 -1 -1 0 1
1532256381327917 5 -7 -31 -10 -1 -2 0 -8
1532256381342877 14 6 28 -13 -5 2 -2 11
1532256381364818 6 -28 6 7 2 -2 -1 -1
1532256381402717 2 -11 9 -1 -5 -3 0 27
1532256381424659 2 73 15 8 5 4 11 77
1532256381438622 5 19 26 7 9 14 4 45
1532256381464553 9 -21 65 -5 -9 -10 25 21
1532256381484499 -11 34 25 2 5 -76 -22 -24
1532256381507438 -9 -1 -39 -23 -2 -2 -4 26
1532256381548328 -2 -77 -23 45 17 20 3 -5

1532256381605201 0 -10 9 -5 -3 1 -4 -7
1532256381619164 -8 -6 -15 1 -3 1 -1 -10
1532256381664044 6 9 6 5 -2 -6 -3 -4
1532256381673019 -7 -9 -5 -10 -3 2 0 10
1532256381693963 -2 -4 5 -3 -2 -1 1 1
1532256381732859 -9 -34 13 16 -2 -1 -1 -4
1532256381754801 -9 3 12 -2 -2 -1 0 0
1532256381783730 1 -13 -7 -1 2 1 1 11
1532256381807659 -1 -4 2 1 -2 -3 0 3
1532256381844561 -2 -54 -28 -1 0 6 2 -4
1532256381860518 0 1 10 0 0 -6 1 1
1532256381905398 2 25 -3 5 -1 3 -3 -4
1532256381942300 -2 -33 -13 -2 -3 -3 1 1
1532256381965238 -3 0 -12 -7 0 -1 2 -21
1532256381979202 3 -62 -4 -5 4 1 1 5
1532256382010118 6 24 0 2 -3 -3 -3 -7
1532256382039041 -9 0 -24 -1 5 13 16 98
1532256382084966 -8 0 -8 0 -2 -9 -2 -29
1532256382106907 -8 -8 -8 -1 -6 22 -4 -40
1532256382121867 1 -8 -11 -4 -7 -19 -2 -56
1532256382167744 -7 -9 54 3 2 0 10 -4
1532256382188688 2 17 36 30 12 -1 -6 1
1532256382227584 -2 14 55 -15 -10 -7 -1 -5
1532256382265483 -1 6 -40 7 2 -4 -1 11
1532256382287425 -2 3 17 2 5 2 -9 -1
1532256382317357 -1 2 -41 -11 -3 3 2 -9
1532256382331307 -4 7 13 1 5 2 4 -6
1532256382361227 0 -3 -5 1 6 6 5 -1
1532256382378181 4 1 -14 -18 -11 -3 -2 0
1532256382407104 -4 -1 -24 -1 -7 -8 -3 -3
1532256382430060 3 6 39 -8 -6 -3 -1 -1
1532256382446998 2 3 -15 -6 -2 2 0 -1
1532256382480906 -1 1 2 -3 -5 -2 -2 -2
1532256382489883 1 6 -9 -5 0 -1 1 0
1532256382527781 11 36 1 -7 -2 0 -2 2
1532256382541747 12 56 -4 -12 -10 -6 2 0
1532256382550739 1 -29 3 1 2 1 1 0
1532256382587622 6 -20 -38 1 -5 -5 -3 -9
1532256382647461 0 -24 13 2 -5 -1 -4 7
1532256382744203 4 -2 -1 3 4 2 -8 -21
1532256382827978 -5 -2 -4 -1 -3 -3 -5 -65
1532256382947658 -7 -43 -43 -9 -21 -9 -3 4
1532256382984560 0 16 4 -19 15 6 -8 6
1532256383043403 0 15 9 2 0 -1 1 3
1532256383120197 -3 -8 -4 29 10 1 -2 -1
1532256383135157 2 -1 4 -7 1 -4 0 6
1532256383187019 -5 -4 -7 21 3 -3 -3 -1
1532256383208960 3 1 6 -10 -2 -2 -3 1
1532256383232896 -2 -4 -10 -2 -3 -1 0 0
1532256383269798 -2 -6 6 7 -4 1 0 -2
1532256383292735 -1 -5 -4 3 -8 -3 -2 -3
1532256383314677 -6 -11 -13 -4 -2 -2 1 -1
1532256383329638 0 -4 1 0 0 -2 -1 0
1532256383366538 -1 6 -2 4 0 0 0 -1
1532256383389477 3 11 -5 7 7 -1 0 1
1532256383420394 4 8 11 -7 -4 -1 1 1
1532256383496192 4 -6 -3 5 3 -2 -2 -1
1532256383517136 -4 5 2 -1 2 1 2 0
1532256383585951 -16 8 12 -1 2 38 29 6
1532256383606896 -80 50 2 -4 -8 -13 -16 -64
1532256383668731 33 -42 -8 -9 1 -9 -5 -12
1532256383749514 -86 -37 -8 -2 -4 -6 3 -15
1532256383771456 -11 19 -14 -1 0 6 -6 -22
1532256383810352 -75 -25 -7 -1 0 -2 -4 -31
1532256383834304 14 4 -10 -2 1 4 18 8
1532256383847253 1 -8 52 3 2 18 5 -3
1532256383869194 36 1 23 2 -2 6 9 -4
1532256383907093 18 4 -59 -6 1 -2 -4 11
1532256383929034 6 -1 8 4 0 -3 -2 0
1532256383959952 11 14 3 0 6 -1 -7 6
1532256383989872 2 7 -37 -1 -11 -2 -3 -5
1532256384011813 7 27 28 2 -1 0 -1 1
1532256384038741 1 -32 -25 -2 -3 -1 6 8
1532256384057690 3 -7 24 -1 2 1 8 5
1532256384103568 2 -4 3 2 2 0 -6 -5
1532256384148448 -3 -2 -1 0 -1 0 6 -2
1532256384169392 -1 -42 -13 2 2 -3 2 2
1532256384214272 3 2 -2 -2 -3 -2 4 -1
1532256384252171 1 -25 -10 0 -2 -1 -1 -1
1532256384289072 4 -1 4 1 0 -1 -2 0
1532256384313008 -1 -1 0 13 17 1 0 1
1532256384334949 2 19 0 -12 -8 -2 -2 -4
1532256384357887 -1 33 26 6 0 -2 0 0
1532256384410746 -3 -19 7 -2 -5 0 4 9
1532256384469588 1 -35 -22 -8 -3 1 1 -1
1532256384506490 1 19 0 -1 2 1 4 8
1532256384620186 -7 7 2 -4 -1 1 0 0
1532256384732885 1 -5 -4 4 0 2 4 7
1532256384769795 3 -33 -6 -3 -1 -3 0 0
1532256384805690 -9 -31 -4 -8 -1 1 3 -4
1532256384829626 -7 -18 5 7 -2 -3 1 2
1532256384866527 13 46 18 9 2 1 4 0
1532256384972244 1 2 2 -1 -1 -3 -2 0
1532256385009146 -11 32 -3 -6 -5 -4 -6 3
1532256385055023 -12 -16 -9 -3 5 3 0 10
1532256385152762 -12 -21 -13 -4 0 1 -5 -14
1532256385429024 -3 -13 -1 -1 -1 0 0 -2
1532256385445990 -4 -13 0 -2 2 1 -1 0
1532256385534741 1 12 1 -1 -1 -3 -2 -2
1532256385579620 -3 -13 -2 -4 -1 -1 1 0
1532256385692319 -3 -8 3 -2 -1 1 -2 -6
1532256385752159 4 -7 -8 1 0 4 -2 4
1532256385811999 -4 22 0 1 -1 -7 0 -5
1532256385908741 -2 19 -1 -1 -1 -4 -5 -10
1532256385962598 -1 -21 -30 -4 -1 -1 -4 -12
1532256386075295 3 -1 -18 -4 -2 9 -1 6
1532256386120188 12 25 12 3 -1 3 7 23
1532256386171039 -3 -16 10 0 1 0 -6 -7
1532256386217914 17 3 2 -2 -2 0 -2 3
1532256386230879 2 2 15 0 1 5 0 3
1532256386277753 -2 -26 0 4 2 -1 1 -5
1532256386397434 0 -2 15 3 0 -1 0 0
1532256386411396 -2 -6 11 -1 -1 -2 -2 0
1532256386435333 -1 7 16 -1 -4 -3 1 -2
1532256386457274 -9 -19 -17 -2 -2 -1 -2 -3
1532256386511130 2 -12 -7 -9 -1 -1 1 1
1532256386517114 11 17 17 9 5 2 0 4
1532256386584934 1 -18 -92 -2 3 -1 0 -1
1532256386621834 -4 -6 -18 -11 -6 -3 -5 -1
1532256386636794 -15 2 -29 6 2 0 -1 -2
1532256386665716 2 -32 -18 -4 -4 -10 -1 -1
1532256386696634 14 -5 19 0 0 -1 0 0
1532256386734543 1 10 24 -4 -1 -1 -2 -3
1532256386771434 5 25 36 -1 -1 3 2 0
1532256386818308 -1 -15 -13 -3 -2 -2 -1 -2
1532256386855210 2 4 11 4 -3 -8 -3 -3
1532256386861194 8 -8 6 -1 -6 10 2 4
1532256386914052 -13 11 25 -8 6 -61 -6 -36
1532256387019770 3 -8 10 -1 -3 -7 3 8
1532256387088585 -7 3 -10 3 2 -15 -3 -3
1532256387153412 1 22 6 1 -3 -10 3 14
1532256387342905 0 -2 0 -3 0 0 -3 -3
1532256387439646 4 -4 -7 1 2 6 0 -4
1532256387522425 0 -33 -2 -1 -2 3 1 -5
1532256387560324 -2 3 -10 -2 1 -2 1 -5
1532256387582265 -6 -14 -14 -5 -5 0 1 -3
1532256387604206 5 -9 -20 -2 1 2 -2 -2
1532256387620164 -5 8 15 3 -1 -1 -1 -2
1532256387634129 -1 4 9 -1 -4 -8 -6 -3
1532256387681001 10 8 10 11 4 -1 0 0
1532256387709923 11 -13 5 2 3 1 0 3
1532256387732863 -1 3 16 6 2 5 -1 -1
1532256387776745 0 -2 0 -6 -1 -2 1 -3
1532256387813646 -23 -18 10 0 -32 -96 -33 -93
1532256387843567 -16 -62 -9 4 0 3 -2 -33
1532256387921359 4 56 -2 7 0 8 -5 -21
1532256387942303 -5 -24 17 -1 10 20 8 4

1532256388016105 -23 -5 5 -7 -4 -1 -3 -10
1532256388090905 -9 11 7 -4 -3 -1 -1 5
1532256388136783 10 -3 -2 -1 1 0 0 0
1532256388183659 2 -8 -2 -1 0 2 1 -1
1532256388197620 -2 6 12 5 1 -1 -1 3
1532256388205599 -2 -24 -7 1 1 0 -4 -6
1532256388242500 -7 -11 -22 0 0 3 0 0
1532256388256463 -1 10 6 1 -1 3 0 -1
1532256388302339 2 -14 -4 -2 -1 -2 -2 0
1532256388323284 3 16 12 -2 -2 -2 0 1
1532256388362180 1 -11 -4 2 2 -4 0 -1
1532256388376142 -10 4 4 -2 0 0 0 -11
1532256388399081 -2 6 -7 7 -3 -2 -4 -3
1532256388408067 -4 1 -3 -5 -3 -5 -4 -1
1532256388460915 -12 -56 -14 1 -1 2 1 -2
1532256388483888 -5 33 -28 -3 -11 7 -4 -15
1532256388496820 0 32 24 3 4 29 -7 14
1532256388565636 2 -11 51 -3 3 11 6 -4
1532256388616500 4 16 49 19 2 -1 -3 2
1532256388639444 -10 11 60 -11 -5 -7 -9 -15
1532256388662383 -2 -30 -80 -10 -4 -2 0 -1
1532256388685321 1 -3 25 9 1 6 -5 -1
1532256388707263 -2 -11 9 2 1 -1 -3 -2
1532256388746159 0 6 24 6 5 -13 3 0
1532256388759124 -5 -18 -7 1 -4 -4 0 -2
1532256388766105 0 1 1 -8 -9 0 0 -1
1532256388810985 -6 1 5 -25 -1 1 1 0
1532256388828937 15 3 -2 0 8 3 2 4
1532256388864841 16 6 3 -6 -4 -4 0 -1
1532256388885785 -3 5 -29 -11 -7 -2 2 0
1532256388939641 -1 -5 3 0 -1 3 2 1
1532256388962580 4 9 3 -4 -4 -5 1 0
1532256388985518 1 19 -7 -17 -22 -8 -2 0
1532256389021423 0 -10 0 -7 -7 -1 1 -1
1532256389045358 3 67 37 -1 1 0 -4 -4
1532256389105200 0 -6 6 -15 -9 -2 0 2
1532256389165039 3 -5 7 8 5 0 9 84
1532256389247817 6 11 16 3 1 1 6 20
1532256389525077 -2 4 15 -14 13 2 -2 -2
1532256389607855 0 5 14 -16 2 2 0 1
1532256389658718 2 2 19 -12 -3 1 1 0
1532256389681657 -1 14 28 7 3 -3 0 -2
1532256389726537 -1 8 -68 0 -1 -1 -1 0
1532256389750474 -2 0 -28 2 -4 -2 0 -1
1532256389795352 -1 -12 -30 1 6 2 1 0
1532256389826270 3 -13 -11 0 -3 -1 1 0
1532256389847214 -1 2 10 -3 -3 1 0 1
1532256389870153 -4 -29 -14 0 -4 -1 -3 -5
1532256389907054 2 12 7 -6 -2 0 -1 -2
1532256389923012 2 10 10 -3 -1 0 0 4
1532256390012772 -6 26 -12 -3 -1 -1 -3 -7
1532256390056654 -21 -10 18 2 -2 -2 -5 -15
1532256390094553 7 15 5 0 1 0 0 -8
1532256390124473 26 3 14 -1 -5 -1 15 64
1532256390146414 10 9 -5 -3 -5 -7 -18 -65
1532256390170350 3 13 12 4 0 0 10 -43
1532256390192292 13 1 -13 -1 3 2 -1 67
1532256390207252 -36 -27 -7 -5 -2 0 8 -14
1532256390244153 22 1 1 2 2 0 -5 -4
1532256390285058 -4 24 -25 -2 -1 -1 -6 0
1532256390298009 -30 -4 8 1 0 1 1 9
1532256390340894 10 -7 -7 -1 -2 -1 2 2
1532256390386777 -6 -3 1 2 0 1 14 -3
1532256390419684 -2 0 -16 -4 -3 -4 13 -19
1532256390448606 3 -9 -16 -1 1 0 0 4
1532256390461572 2 1 4 5 -1 2 6 7
1532256390506452 6 2 -10 -2 0 0 -2 34
1532256390530387 -6 -8 -6 -1 -1 -3 7 -1
1532256390544350 -3 0 -2 -3 -1 -1 -1 -9
1532256390567299 3 2 5 1 -1 -2 4 -3
1532256390581251 -7 2 -4 -2 -3 -2 -5 -1
1532256390627129 -5 -5 -1 -1 -2 0 -3 -5
1532256390643086 5 5 0 5 4 0 -2 -1
1532256390673006 -5 -11 7 -5 -5 -4 -3 -3
1532256390694947 -3 -16 2 0 2 0 -1 -12
1532256390728857 -2 3 -7 2 2 0 -2 0
1532256390749801 3 0 2 -2 0 0 -1 4
1532256390785717 1 17 6 6 3 2 2 2
1532256390844547 -1 -20 -7 -4 -4 1 1 1
1532256390866489 -1 -7 -2 -3 -1 0 -1 0
1532256390964227 -7 -37 -9 1 2 3 -2 -8
1532256390995145 -3 3 -3 -2 -1 -1 -4 1
1532256391024067 6 46 2 -1 0 -2 0 4
1532256391189625 -10 -9 1 -1 1 1 -3 2
1532256391226526 5 -9 -9 -5 -2 -3 2 -3
1532256391309305 -3 -17 -5 0 1 1 13 -7
1532256391384122 -6 -39 -7 -1 -3 -4 -5 -10
1532256391443944 15 3 5 0 -5 -3 5 2
1532256391549662 0 -17 -3 7 3 -3 -5 5
1532256391586564 -1 -20 -2 8 4 4 2 4
1532256391623464 11 20 6 5 0 0 -2 0
1532256391647404 -3 26 5 -5 0 0 3 3
1532256391692280 -10 -28 0 -5 -4 -2 0 6
1532256391849859 11 31 -1 0 -1 -1 4 -4
1532256391871801 -5 26 2 4 3 2 4 -8
1532256391885763 3 14 2 4 3 3 2 22
1532256391917678 9 18 -5 1 -4 -4 3 -2
1532256391946600 5 -38 5 -2 -1 -1 -2 -1
1532256391970539 -4 0 -2 -3 -2 -1 -3 -8
1532256392029379 -16 -31 -14 3 -2 -1 -5 -11
1532256392052318 6 18 -4 -8 -2 -3 -7 -6
1532256392104179 -3 18 3 2 0 0 -4 -3
1532256392143076 0 1 0 0 -4 -3 -5 -1
1532256392152052 -2 -7 -2 -5 -4 -3 -4 -1
1532256392185960 0 -2 -3 -1 -6 -4 0 -2
1532256392209896 -11 -15 -6 -5 -2 1 0 -1
1532256392269736 1 -6 1 3 2 -1 0 0
1532256392299656 1 1 1 -3 4 -1 1 0
1532256392352515 1 -23 -7 -2 0 -5 4 8
1532256392435294 4 53 11 -3 -2 -1 -9 -25
1532256392697592 -7 -13 3 -2 -1 -2 -1 6
1532256392748456 0 -5 -4 5 9 1 -2 2
1532256392817273 -8 -15 0 3 3 2 9 5
1532256392869133 -3 -25 0 15 4 -2 1 -3
1532256392915019 7 7 -31 -4 0 0 2 2
1532256392965875 0 11 18 -21 -9 -1 0 -3
1532256393012749 3 7 30 4 1 -2 2 5
1532256393034704 -5 -8 34 6 -1 0 -3 -8
1532256393057635 3 -1 -23 -10 -3 0 0 0
1532256393108493 5 12 16 12 2 -4 -1 -5
1532256393177309 -2 -16 7 -3 -1 -1 -3 -9
1532256393215208 -4 -12 18 -11 -6 -11 2 1
1532256393246125 -11 -7 -23 -8 -3 -6 0 -37
1532256393304969 4 12 9 2 6 2 5 8
1532256393385752 -10 -11 4 2 8 5 5 -3
1532256393491470 -16 -23 -16 -12 -11 1 -3 -5
1532256393619128 -4 -6 -1 -4 2 4 0 -2
1532256393670989 -9 -24 -13 -8 -5 -5 -1 -2
1532256393717865 3 4 6 2 -3 -1 4 -2
1532256393747784 3 -1 13 7 9 -1 2 0
1532256393807625 -2 0 -10 -4 -4 -2 -2 -2
1532256393911346 -1 -8 -1 -4 0 -2 0 3
1532256393935283 -4 20 -2 -4 0 -5 -3 -4
1532256393965202 6 27 4 0 -2 -8 -4 1
1532256394002104 -1 -5 4 -1 8 4 0 -1
1532256394017078 -10 -9 14 0 -2 -12 -1 -1
1532256394040002 -1 -2 6 3 2 1 -2 -1
1532256394056974 7 -5 -4 9 2 5 2 1
1532256394078898 -2 -2 -18 -5 -2 -1 -2 -5
1532256394099848 -2 -26 11 0 1 3 -1 -2
1532256394137741 1 4 -6 -1 1 0 1 2
1532256394151713 -20 -40 -24 -4 0 1 -3 -2
1532256394174642 4 -10 -1 -7 -3 1 1 0
1532256394197581 3 -6 -4 -5 1 1 1 2
1532256394211544 4 47 2 3 -1 -1 0 1
1532256394280360 11 30 -72 8 3 3 1 0
1532256394310297 -11 18 76 1 -3 4 -3 15
1532256394354162 -23 -6 -19 3 6 0 13 12
1532256394386077 -7 -13 -37 -5 -14 -37 -42 -54
1532256394437939 7 25 91 -3 -7 -23 0 16
1532256394450904 6 -8 -6 -44 -11 -20 4 -1
1532256394459879 1 -19 -9 7 4 19 -3 -7

1532256394519720 -5 -24 -16 10 3 3 4 -1
1532256394580563 -7 32 -9 3 1 8 3 6
1532256394624440 -4 -3 0 -4 -2 0 -1 0
1532256394700238 6 5 -5 0 -1 -1 2 7
1532256394760077 -6 6 5 1 -1 -3 0 1
1532256394872124 2 3 -5 2 4 -3 -1 -4
1532256394960886 9 4 -3 -2 -1 -2 1 4
1532256395013744 1 -18 -3 -5 -4 0 0 1
1532256395059622 0 -3 -6 -1 2 0 -3 -2
1532256395104502 1 4 2 -3 -3 2 2 5
1532256395142401 2 6 -3 2 2 -2 2 2
1532256395180300 -2 17 1 0 -1 -1 3 10
1532256395240140 2 7 -3 2 1 2 1 1
1532256395263079 -1 -14 -4 -2 -3 -9 0 0
1532256395359819 0 12 2 -2 -1 -4 3 10
1532256395373782 5 -17 -7 -4 -3 4 -1 -5
1532256395450588 -2 -11 2 -1 0 -1 -1 -3
1532256395540337 -4 -9 -2 -1 -1 -2 0 2
1532256395637078 -4 6 1 -1 -3 -1 -4 -3
1532256395703899 2 10 9 -1 -1 0 0 0
1532256395766738 -5 -11 -8 -4 1 -1 1 -1
1532256395876444 -2 36 23 2 0 -4 -3 -2
1532256395960220 2 13 -6 2 1 1 -2 1
1532256395998119 -2 24 -11 -5 -2 7 -4 -7
1532256396028038 -15 -5 3 -3 -3 5 -1 -12
1532256396102390 7 -2 -44 0 0 2 -1 4
1532256396116352 8 14 12 -3 -1 7 -1 2
1532256396125328 -1 -31 -11 2 2 -3 -2 -6
1532256396146272 -1 -8 -4 1 0 4 3 4
1532256396164224 -2 4 9 1 1 -6 2 0
1532256396215089 -3 -24 -1 0 -1 2 -3 -4
1532256396253985 -2 -5 3 -3 -2 -1 0 -1
1532256396288891 1 -8 -12 0 1 2 -2 -8
1532256396313824 1 4 -5 -1 0 -4 2 1
1532256396342747 -1 -4 4 -1 -4 1 2 6
1532256396365686 -10 7 -6 -4 -3 -8 -2 2
1532256396409569 1 -3 5 1 1 -3 -1 -2
1532256396440486 1 7 -2 -3 1 1 -6 -8
1532256396590086 3 -31 -1 1 2 0 3 6
1532256396761627 -2 1 -2 -1 0 0 0 0
1532256397317202 -10 7 -18 -1 -7 -12 -15 -7
1532256397362079 0 10 -36 -5 -1 3 -8 -11
1532256397586478 2 -14 -14 6 0 2 -2 1
1532256397601440 -10 -42 -22 -71 -44 -13 -6 -1
1532256397624377 13 -21 -4 33 -4 0 0 -2
1532256397803897 2 -1 21 3 11 9 1 0
1532256397827833 6 1 -42 -13 -13 -6 -3 12
1532256397924574 -15 -12 -5 -2 -5 -2 0 -75
1532256397955491 10 5 9 -2 1 10 11 127
1532256397961476 0 3 7 3 0 3 -5 7
1532256398081155 2 -20 5 4 12 4 -1 2
1532256398104094 -3 -10 -5 -5 -8 -6 -1 -8
1532256398128030 1 25 -1 2 -9 -2 -4 -1
1532256398172910 1 15 -1 7 26 2 0 -6
1532256398187871 -2 -79 -13 -11 -14 -2 -1 0
1532256398269651 1 2 -10 -6 -4 -2 -4 -3
1532256398307550 -4 -6 10 -3 -11 -1 -2 -2
1532256398330489 1 -2 7 -11 -16 -5 1 1
1532256398352435 7 10 -11 -12 -3 0 0 1
1532256398389333 -3 3 -4 -15 -2 0 -4 -5
1532256398403297 -7 -3 2 -2 3 2 0 -1
1532256398435210 10 2 -5 -10 -5 -3 0 3
1532256398441199 -9 2 9 -10 -3 -3 -2 -4
1532256398473108 -5 -2 17 -4 -2 0 0 -6
1532256398503028 2 -23 -4 2 1 0 -1 3
1532256398562867 -23 10 13 4 -1 0 -3 -9
1532256398613731 47 14 18 2 2 4 8 20
1532256398669582 4 3 -2 -3 -2 1 0 4
1532256398780286 0 12 -6 1 2 -3 -8 -26
1532256398819182 -14 -17 -1 3 2 3 -4 -10
1532256398842121 -6 -3 3 0 -3 -1 -1 8
1532256398878025 -18 -14 -1 2 0 2 -1 -10
1532256398884008 -1 4 1 4 1 0 -10 40
1532256398929885 0 3 1 -3 0 -1 3 1
1532256398943848 -27 -4 -1 -2 -1 -1 -2 -13
1532256398974766 8 1 -8 -4 -4 -2 -2 -3
1532256398989761 -9 6 0 0 -2 0 0 -9
1532256399041588 -5 -3 2 1 0 0 -2 -11
1532256399095446 9 -13 -1 -1 -2 -1 2 5
1532256399132345 0 2 -3 -4 0 -1 1 -2
1532256399164260 -2 -22 -1 1 -5 -1 0 4
1532256399253022 -3 8 -1 1 5 2 0 -4
1532256399276973 7 29 8 1 3 0 0 2
1532256399291919 1 11 1 -3 -6 -4 0 -2
1532256399378696 -1 5 -3 -3 -1 -1 0 -1
1532256399395641 -3 24 18 5 2 0 3 -9
1532256399432554 7 10 2 1 1 -1 -1 2
1532256399455492 4 2 0 0 11 2 0 0
1532256399492391 8 -4 1 0 7 0 0 6
1532256399515327 -5 -19 1 5 12 1 0 -3
1532256399552223 -2 12 -3 -3 -5 -3 -1 0
1532256399566185 -4 -31 4 2 1 1 8 -33
1532256399590121 -2 -1 4 2 1 0 -4 7
1532256399672900 5 36 2 -1 0 -1 -1 11
1532256399746706 9 3 11 1 0 1 -4 -7
1532256399852421 -2 1 -5 1 0 1 -1 -3
1532256399949161 -2 0 -5 -1 -1 1 2 4
1532256400092777 -10 -5 -11 -8 -6 -5 -1 -2
1532256400249359 -3 -11 -7 -2 -2 0 -3 -2
1532256400452814 8 5 0 1 0 1 1 8
1532256400480740 6 13 8 3 1 -1 0 -10
1532256400534595 14 2 3 0 0 -2 -1 5
1532256400647294 8 -22 5 3 -2 0 -4 -2
1532256400668237 7 21 7 2 3 4 -1 3
1532256400693170 -6 -5 -11 -3 -2 0 5 1
1532256400738052 0 2 -2 -4 -2 -4 -6 -3
1532256400797895 -1 38 5 2 0 2 -1 -3
1532256400834793 2 -50 -7 0 -2 8 3 2
1532256400872691 1 22 6 1 -1 2 -2 1
1532256400947491 -6 -26 -5 -4 0 -2 0 -1
1532256400977417 0 13 -4 -1 -1 16 -1 -21
1532256401037263 3 36 -3 -2 -1 1 4 3
1532256401134990 3 21 1 2 -2 -4 -2 4
1532256401179874 4 3 0 -4 -2 -2 -3 8
1532256401196825 -1 11 -7 -1 -2 -2 1 -9
1532256401231732 4 20 -1 0 -1 10 1 -2
1532256401253688 -5 -4 -5 1 -4 0 -1 -9
1532256401262649 7 11 -2 -3 1 0 0 -2
1532256401299555 4 5 30 -9 -1 -1 2 1
1532256401315507 3 9 33 3 0 -2 -2 -1
1532256401351411 6 16 17 -9 -3 -1 0 -1
1532256401397303 -1 -24 -15 3 2 -1 0 4
1532256401411251 -6 -21 -5 -3 1 -2 0 5
1532256401457128 7 13 -1 -1 0 -2 -1 2
1532256401481064 -7 4 -13 0 -1 1 0 3
1532256401503005 -3 -12 -6 9 3 3 -1 -4
1532256401517966 -2 -23 -9 -10 -3 -3 -1 5
1532256401563842 3 -10 -10 3 5 1 1 1
1532256401592765 -1 10 -14 -25 -8 -1 0 -2
1532256401614706 -3 -13 0 -9 -4 -4 -1 0
1532256401637645 1 -6 -11 -1 1 2 0 -1
1532256401675555 13 19 48 9 1 -4 -1 2
1532256401697496 -10 -19 -17 3 3 -3 -3 -4
1532256401734386 -6 -11 -23 -4 -2 1 -1 -5
1532256401757325 -8 -2 -34 4 2 -1 -3 -4
1532256401802205 7 10 10 5 2 1 -2 -1
1532256401840103 -3 -4 0 -2 1 0 -1 0
1532256401856066 -4 -2 6 -2 -3 0 0 -1
1532256401879000 3 -9 43 5 0 7 -1 1
1532256401891965 -15 -19 -61 2 -2 -4 -3 -3
1532256401937842 -3 -7 -36 -16 -6 -14 4 5
1532256401974744 1 -26 29 12 3 -5 -1 0
1532256401997682 19 42 23 8 4 5 0 4
1532256402011645 -29 3 6 -1 -3 1 -2 -7
1532256402057523 -7 11 -11 1 2 -5 -1 3
1532256402094424 3 49 -30 0 1 4 0 -1
1532256402140301 5 -6 39 11 3 9 15 4
1532256402259981 6 14 14 0 -5 -21 -7 6
1532256402333784 2 3 -1 -2 1 -6 -3 -43
1532256402513303 -4 -10 -2 2 1 3 7 -2
1532256402613037 -11 -15 -16 -2 2 -1 -4 -3
1532256402657917 -8 4 -5 -2 1 3 1 -2
1532256402739698 1 -8 5 2 -1 2 -2 -2
1532256402753661 -7 -45 -29 8 1 2 0 -2
1532256402800538 6 -9 8 -2 2 0 -1 -1
1532256402836440 0 -41 -32 -5 -6 -3 4 0
1532256402873341 3 2 -10 2 -2 -5 -2 1
1532256402920216 -3 -35 -2 4 8 13 2 15
1532256402957117 -11 61 15 4 7 53 1 60
1532256403061836 -5 -14 11 2 6 -1 -6 -19
1532256403075800 -5 -50 -49 -26 -3 6 4 12
1532256403099736 5 -15 55 -13 4 6 3 6
1532256403121677 0 -2 -7 17 4 -3 -2 3

1532256403144616 -3 -10 -2 -9 0 23 0 -5
1532256403212434 10 -2 -5 -1 -1 -3 0 4
1532256403226397 0 13 5 1 1 -2 -2 2
1532256403250333 -2 -25 22 9 1 2 2 -3
1532256403302209 0 1 -12 -1 -1 -2 -3 -8
1532256403339111 -4 -3 -1 -2 1 2 -7 -4
1532256403406929 -2 -1 2 2 0 6 -3 -7
1532256403438844 3 6 -2 0 1 0 3 10
1532256403458791 -2 -2 -4 -2 -3 0 1 -1
1532256403481729 -2 -7 -8 -2 -2 2 6 3
1532256403519628 0 0 5 1 -2 1 2 1
1532256403579467 -3 7 6 2 -1 -5 -3 -1
1532256403662246 0 -34 -18 -6 -3 -7 3 4
1532256403722087 0 11 4 1 1 4 1 4
1532256403767969 -1 -28 -15 -1 0 3 0 -1
1532256403781926 5 16 9 3 4 -2 4 0
1532256403834785 8 24 10 -2 -1 -1 2 3
1532256403855729 1 -1 5 0 -5 -3 -2 -2
1532256403992363 0 -11 -6 1 4 7 0 5
1532256404038240 -1 20 1 0 -1 0 -1 -2
1532256404164903 1 -3 -6 -4 -3 -14 -3 0
1532256404202801 1 -22 7 -1 -2 1 3 9
1532256404254662 -9 3 -27 -4 -5 -3 -5 -6
1532256404291564 -2 -8 -3 3 4 4 2 19
1532256404457121 -4 3 60 -1 -3 -3 -1 -19
1532256404488097 -4 -26 -32 14 7 -7 -3 1
1532256404660634 10 -7 11 32 8 -1 0 7
1532256404705514 -1 -27 2 9 9 3 1 -1
1532256404718480 2 13 9 -7 -3 -5 -1 -1
1532256404741422 -13 8 2 2 -1 0 -1 -2
1532256404778320 -5 -15 -8 -7 -1 -1 -1 0
1532256404802255 9 5 2 -4 0 0 1 4
1532256404825194 3 26 -1 -4 -4 -3 -1 -2
1532256404847135 -4 -26 -12 2 18 3 0 4
1532256404929914 -4 -25 -2 2 1 -2 -2 -16
1532256404967817 -2 -2 -14 2 0 -2 -1 -7
1532256405027652 7 -3 -9 -1 -1 0 2 62
1532256405065565 -2 -1 -1 1 2 0 -4 12
1532256405087493 2 1 0 -1 -1 1 2 -3
1532256405124394 1 0 -3 2 1 -1 -2 32
1532256405169274 2 0 -1 -1 -3 -1 -1 11
1532256405200191 1 -2 0 0 -2 0 0 14
1532256405268017 -1 16 4 4 15 2 2 -6
1532256405280975 -5 -2 23 -2 -6 -7 -5 -18
1532256405340816 5 12 1 10 -7 -5 -1 -2
1532256405364751 -4 -17 -12 -11 -22 -9 -1 -3
1532256405447529 2 -2 4 -4 2 3 1 -1
1532256405470468 -2 -18 -6 1 6 2 1 -2
1532256405485428 -11 -26 -5 5 3 1 -1 -4
1532256405507370 6 2 0 1 -1 1 -1 2
1532256405521333 0 4 -6 -2 -1 -3 -2 0
1532256405567210 -4 -4 -2 -3 0 0 1 1
1532256405590149 8 -6 1 -2 -2 -1 -1 -1
1532256405641013 8 5 1 -3 -2 -2 0 -1
1532256405693871 -7 1 4 -2 -2 -4 -4 -16
1532256405740746 -14 -1 13 -1 1 0 4 -12
1532256405777647 -6 -21 -4 -3 1 1 0 1
1532256405988099 -2 0 -10 -6 -6 -2 16 -22
1532256406010026 -16 1 17 5 1 -1 16 -93
1532256406023989 14 0 0 -1 -1 -1 -4 16
1532256406083828 -4 -5 -1 -3 0 -3 0 3
1532256406152655 4 12 0 2 4 0 -10 7
1532256406197539 1 -1 -6 -2 1 0 0 2
1532256406220464 3 43 10 8 8 0 -2 3
1532256406316206 -2 -46 -7 1 -1 1 0 -2
1532256406480767 2 3 -10 -2 -2 -3 5 5
1532256406503706 -1 -6 -6 -1 -14 -3 0 -2
1532256406520660 -2 -8 -15 0 7 0 -3 -3
1532256406557562 -2 -2 -34 2 8 -6 -5 1
1532256406589487 2 15 -1 0 1 0 -2 -4
1532256406610420 -3 1 12 1 2 0 -8 -15
1532256406653306 7 24 3 -2 -4 -2 15 -2
1532256406714143 0 -6 -9 0 0 0 -5 -6
1532256406835818 13 20 10 -1 2 -1 -2 -4
1532256406886681 -2 22 34 2 1 1 6 7
1532256406932559 7 2 -18 -6 -6 -3 -1 1
1532256406953503 -24 -37 13 -4 -6 2 11 -23
1532256407006361 -5 -10 7 -2 -6 -2 -3 0
1532256407090137 -11 -4 -2 1 -1 2 1 -7
1532256407179897 1 -27 9 1 0 0 -4 -8
1532256407308553 0 -3 13 0 3 3 1 -3
1532256407426239 5 0 3 0 -3 1 -1 1
1532256407450175 -11 -10 -1 -2 -3 -1 1 -5
1532256407495062 2 21 6 1 -4 -4 -11 -12
1532256407532953 -2 8 2 -2 -4 -4 -6 -1
1532256407575838 -2 2 -6 -3 -3 -2 0 2
1532256407622714 3 3 6 1 -2 5 4 2
1532256407636676 2 9 -1 4 1 -5 -3 1
1532256407675572 0 -5 -24 -5 -2 -1 -3 -3
1532256407703497 2 5 4 3 6 1 3 1
1532256407817193 -2 -4 -8 3 1 0 0 -1
1532256407877033 -1 -11 4 -2 -3 1 2 7
1532256407914931 -5 27 23 3 0 0 -2 -32
1532256407974772 5 11 14 2 -1 -2 -1 -8
1532256408012671 3 -12 5 -1 0 -3 -4 9
1532256408034612 -3 33 -10 -5 -3 0 -3 -3
1532256408095449 -3 -62 -58 -11 -6 11 -5 28
1532256408108414 -1 -10 0 -4 0 -19 0 1
1532256408162270 2 6 38 1 -1 0 -1 -10
1532256408215128 -2 2 34 -7 -5 -2 0 -1
1532256408229092 13 37 23 0 -2 4 3 10
1532256408297908 7 -14 1 -3 -3 5 1 8
1532256408372716 -4 -11 -49 -6 -8 -2 -4 -1
1532256408394649 0 -18 8 -11 -2 0 -1 -1
1532256408417587 -3 2 11 -4 -2 1 1 0
1532256408468452 -12 -21 1 13 9 2 -4 -3
1532256408507354 -17 -7 2 -3 -3 0 -1 -2
1532256408552228 -2 15 -14 2 -1 -2 0 0
1532256408598105 7 7 15 9 2 -2 -1 3
1532256408619048 -10 -11 -2 -3 1 -1 0 -7
1532256408637018 4 -6 -31 -5 -1 -5 0 5
1532256408663929 -6 -17 0 -6 -1 4 0 -4
1532256408695844 7 1 -30 -5 -2 -1 -1 0
1532256408708809 5 8 -21 -5 -4 -1 0 1
1532256408731747 -3 -5 -15 -4 0 -2 -3 -2
1532256408755684 -1 -18 -43 -10 -5 -20 -6 -3
1532256408784606 1 10 -13 -4 3 4 1 1
1532256408800580 -7 -28 -5 -5 -3 -6 -3 -3
1532256408822505 6 -4 1 -1 6 -23 -2 0
1532256408858409 3 12 1 0 -3 -7 -2 -2
1532256408898302 3 -12 40 0 0 8 1 4
1532256408911267 -7 -17 -72 -21 -23 -6 -6 -7
1532256408942184 -4 -32 59 -1 4 4 2 2
1532256408964126 -5 33 21 6 0 -7 0 -2
1532256409039924 -5 -22 -47 0 3 -14 0 0
1532256409077821 -2 -46 -57 -5 0 32 1 0
1532256409175561 0 1 17 -2 -2 -16 -1 -1
1532256409227422 2 -1 -5 1 0 5 2 -1
1532256409279284 2 -6 -2 -5 -1 2 0 1
1532256409324164 0 2 -6 0 2 14 1 1
1532256409399961 -1 0 0 1 8 -15 -4 -3
1532256409459801 3 2 -1 -1 1 17 -3 -1
1532256409497699 -4 -10 0 0 4 -6 -7 -3
1532256409527645 -6 -25 -10 0 -3 3 2 -1
1532256409557539 -3 -33 -11 16 3 -4 -2 -4
1532256409587461 4 22 2 2 4 0 -2 -1
1532256409617379 1 14 5 -8 -4 1 3 0
1532256409654281 2 23 11 -1 -3 -1 -4 -5
1532256409677219 -6 0 0 -3 0 10 -4 -1
1532256409700157 4 22 8 -4 -5 -9 2 0
1532256409714121 -2 -1 -4 -3 -1 -3 1 -1
1532256409738071 -4 3 -13 0 2 0 -7 -9
1532256409759001 0 -3 0 2 -2 -6 -2 -1
1532256409782957 2 -40 -7 2 1 3 3 2
1532256409796919 1 3 7 0 0 -1 0 1
1532256409858754 -3 31 31 -10 -3 -1 -1 0
1532256409901639 -1 -15 -4 4 3 3 2 2
1532256409916599 -12 9 23 44 8 1 -2 -5
1532256409977441 30 -24 1 -2 -1 -16 -6 28
1532256410015335 -4 34 30 -4 -9 4 -22 -27
1532256410037277 4 14 -2 4 7 -15 -4 16
1532256410112076 1 -9 -7 -12 -8 -8 1 3

1532256410173911 -6 -8 -28 11 6 -5 -4 2
1532256410193858 1 -6 13 4 -3 -23 -7 1
1532256410239735 -2 7 13 0 2 -10 1 -4
1532256410413283 6 -2 -2 -2 -3 0 -1 -2
1532256410539944 -1 24 11 -1 -3 -14 0 3
1532256410599786 -8 -35 -14 -6 -4 -2 -3 -1
1532256410644667 4 20 5 1 -1 -3 -2 6
1532256410674586 6 -12 -17 0 1 2 0 5
1532256410696528 7 22 -3 -1 -3 -1 1 2
1532256410720464 0 6 -9 4 2 1 1 5
1532256410749386 0 39 23 1 -9 -9 10 47
1532256410802245 3 30 4 4 3 10 16 -4
1532256410817205 7 16 -26 1 13 51 17 -8
1532256410839146 3 69 -29 -7 -4 -4 -6 -8
1532256410884694 -5 -42 55 -11 -7 10 -2 2
1532256410936556 4 -10 -30 -5 -4 -4 2 15
1532256410982432 3 1 22 -1 -6 8 -2 2
1532256410996394 0 6 -20 0 1 -4 2 19
1532256411027312 0 -28 2 -2 0 2 -2 -3
1532256411065211 7 6 16 5 -2 3 1 0
1532256411079173 -2 -6 9 3 -8 -3 -2 -5
1532256411102112 3 2 10 32 8 0 3 4
1532256411139014 6 17 5 -2 -4 -2 -3 0
1532256411162949 1 -9 6 -4 -1 -1 0 0
1532256411198854 1 3 -3 13 8 3 1 -2
1532256411229771 2 -38 -9 6 2 -1 -1 -1
1532256411259691 -3 17 1 -6 -13 0 -2 -8
1532256411282630 -3 -10 -58 1 2 -1 1 -4
1532256411304571 -13 -10 -36 27 2 1 1 0
1532256411476113 5 23 11 1 -2 -3 -3 -4
1532256411499051 -1 8 13 -1 -13 10 12 91
1532256411725445 -1 -23 16 -3 4 -3 -2 1
1532256411904965 -2 0 -1 0 4 -1 1 -2
1532256411941866 0 3 4 -4 0 0 1 1
1532256411948848 -2 0 -6 -2 -4 -3 -2 1
1532256411987743 2 5 18 0 1 -1 1 2
1532256412047584 1 -3 1 2 0 1 -1 -2
1532256412076514 -1 -7 -5 0 0 -2 -1 -2
1532256412116400 11 0 4 -1 -1 0 0 0
1532256412174245 -4 4 -2 0 -1 -2 -1 -1
1532256412196187 -7 3 -1 -2 -2 0 2 3
1532256412340800 9 24 2 2 -1 0 -2 8
1532256412361744 -24 13 -6 -3 -2 -3 -2 21
1532256412370720 7 -1 -3 0 -3 -1 -2 21
1532256412418592 -29 37 -3 -3 4 1 0 4
1532256412445520 -32 17 0 -3 -2 -4 -1 -13
1532256412469456 38 -10 -4 -1 -3 -4 -8 7
1532256412505359 6 6 5 -2 -5 -1 -3 -17
1532256412527309 4 -33 -12 -5 -1 -3 -4 -7
1532256412565201 11 -12 2 6 0 1 0 0
1532256412587141 15 1 7 29 7 4 8 7
1532256412625040 5 -3 1 1 -4 0 2 6
1532256412686874 -25 0 3 5 -5 -1 -2 -11
1532256412720783 5 16 -4 0 -1 -2 2 -3
1532256412767661 0 -19 -5 -3 -3 0 4 -2
1532256412827498 1 -18 -8 -1 -4 -2 2 -1
1532256412880357 -3 -15 2 -1 -2 0 -1 1
1532256412970117 -1 -8 -8 5 12 3 3 1
1532256413008016 0 -11 5 -1 1 -1 -3 -4
1532256413044917 1 -8 -6 -1 -1 -1 -2 -1
1532256413067855 0 -2 -13 1 1 1 -3 -2
1532256413104757 -1 20 3 -1 0 1 -5 1
1532256413261338 -12 6 -1 0 -1 0 1 0
1532256413381018 0 -1 -1 1 -12 -4 -1 1
1532256413472773 -8 -2 -5 -4 3 0 5 -4
1532256413690191 14 24 -2 -1 -4 -6 -3 6
1532256413789929 -23 -27 -2 -2 -1 2 2 -4
1532256413839791 -13 -20 -7 -2 0 -1 4 4
1532256413869711 -2 -24 -5 -3 -1 1 9 7
1532256413937529 8 15 1 -2 -2 2 6 11
1532256413966452 13 34 5 1 1 -1 -3 -3
1532256414020308 2 -24 -15 -7 -3 -1 4 0
1532256414087131 6 7 1 3 1 -2 -4 -1
1532256414147968 1 -10 1 -2 -3 -1 0 0
1532256414169909 0 3 7 2 1 0 -1 -2
1532256414192847 -6 0 -6 -2 3 2 1 -2
1532256414260666 0 23 8 -2 1 -2 -3 -1
1532256414326489 -6 -3 7 -3 -3 0 1 4
1532256414341453 -6 -9 -2 0 0 2 -1 -20
1532256414470105 -3 15 6 0 1 1 -7 -7
1532256414649625 -7 1 -2 2 -1 1 -1 -37
1532256414695503 0 -18 -5 -1 -1 -3 -2 4
1532256414755342 -5 -25 -12 -4 -3 0 -2 -10
1532256414800222 11 12 9 7 2 1 1 5
1532256414822176 -4 35 4 2 1 -4 -9 -4
1532256414860063 -3 2 3 -2 -1 -2 -1 1
1532256414875022 -1 -8 -15 1 -4 -2 0 -1
1532256414925887 4 14 2 1 2 0 2 2
1532256414972761 4 -1 1 2 4 2 2 2
1532256414995700 -3 -18 -22 -11 12 3 1 1
1532256415046564 3 8 24 36 7 1 4 2
1532256415055540 -5 -2 6 -8 1 2 1 0
1532256415115380 0 -16 8 -16 0 0 1 -1
1532256415168239 -6 3 -14 -4 -4 -3 -1 0
1532256415189183 0 7 9 9 5 1 1 -1
1532256415272959 6 5 10 4 6 13 0 2
1532256415294899 -5 -10 19 -12 -6 -5 -4 -3
1532256415332803 -7 5 3 -2 -1 -18 -3 -3
1532256415392638 8 18 35 6 1 15 4 2
1532256415438516 -4 3 -51 -3 -6 -12 -1 0
1532256415453476 -11 4 11 -2 4 14 -1 -7
1532256415482399 -1 -29 56 -4 -12 -45 -7 0
1532256415535258 -2 17 45 -3 -1 11 0 -2
1532256415558196 9 24 17 5 -5 -9 -1 1
1532256415699817 0 4 6 0 -1 8 1 -3
1532256415782596 4 -1 3 5 4 24 5 1
1532256415848436 1 5 -2 0 2 -1 -2 2
1532256415978073 -3 12 -3 -1 -1 -4 0 2
1532256416037913 2 8 15 -5 -2 1 -1 -3
1532256416059854 -1 2 -10 -5 -2 4 1 3
1532256416111716 -6 -8 2 5 1 -1 -1 -1
1532256416126676 0 17 7 5 4 5 -2 -1
1532256416148617 1 30 1 -6 2 3 2 1
1532256416171556 1 -34 -18 -5 -2 -1 0 0
1532256416208457 3 -60 -44 -2 -5 -2 -3 -4
1532256416240372 -9 -19 -31 -22 -2 -1 0 -5
1532256416352073 0 -6 -20 -2 -2 -18 -1 5
1532256416396953 1 25 66 -51 -20 3 -7 -7

1532256416464772 4 -13 -22 7 -5 0 -2 -1
1532256416478734 7 -12 23 11 1 -3 -3 -2
1532256416532591 1 4 -7 1 2 1 2 2
1532256416571486 -7 -9 -6 -6 -4 1 -2 0
1532256416594436 13 -15 -28 -3 1 1 3 2
1532256416601407 -2 4 -2 1 0 1 -1 1
1532256416697150 1 6 4 -1 0 0 2 3
1532256416803865 0 12 -4 -7 -3 2 0 -1
1532256416854730 5 19 -1 -1 -1 0 -1 1
1532256416876670 3 13 9 -1 3 -1 0 -1
1532256416914569 -2 6 4 0 -1 1 -3 -3
1532256416936510 0 -38 -28 -2 -2 0 0 3
1532256416951470 -2 2 -3 2 0 0 0 0
1532256416996350 0 14 22 -5 -6 -3 -2 -2
1532256417019289 -2 1 -13 -3 -3 -4 -3 0
1532256417065166 4 -2 -2 -3 0 1 0 3
1532256417071150 0 6 3 4 2 1 -1 -2
1532256417125007 -3 -19 -26 5 1 -2 -1 -1
1532256417147945 2 -1 4 6 2 0 -1 -1
1532256417176868 -7 1 2 -2 1 -2 0 0
1532256417244686 1 -14 -21 -3 -1 2 1 1
1532256417259646 -5 7 1 1 -2 0 1 1
1532256417296547 2 8 4 -2 -4 -1 -1 -1
1532256417411241 6 7 -17 -1 -1 1 -1 1
1532256417447145 -1 25 19 3 3 0 -1 -2
1532256417536905 2 10 -2 -2 1 -4 -1 0
1532256417574804 0 0 5 -1 -4 -2 0 -2
1532256417596745 -2 -12 -14 -2 -2 0 1 -1
1532256417679530 -2 -1 3 -4 0 -1 -4 0
1532256417754330 1 -10 -2 1 -3 -1 0 -1
1532256417800209 1 -8 -14 -2 -2 2 0 0
1532256417814169 12 7 -2 2 3 1 -2 1
1532256417853065 0 1 1 -4 -4 -4 -2 -2
1532256417883000 -3 -7 6 -2 0 -2 0 -1
1532256417919902 1 -3 -7 0 -1 1 0 2
1532256417933864 4 -17 -13 -3 -4 -3 -1 -2
1532256417964782 -3 0 -2 0 3 3 -1 -1
1532256417979742 -1 1 0 -1 0 -2 1 -1
1532256418001700 0 13 -5 -3 -2 -2 0 0
1532256418053544 -5 2 1 2 1 1 0 -3
1532256418076483 -5 -3 -4 2 2 0 1 -1
1532256418129341 -1 11 14 -9 -5 -4 -2 -3
1532256418154275 3 1 -6 -1 -3 1 0 -1
1532256418220099 -5 5 -14 -3 -3 -1 -2 -1
1532256418243050 0 2 -4 -1 -1 -4 -1 2
1532256418264980 -5 -1 -6 -6 -1 1 0 -1
1532256418279939 4 7 6 8 2 1 -1 0
1532256418302877 2 26 11 0 2 0 -1 -3
1532256418339778 1 6 1 18 7 1 -2 0
1532256418362717 4 -15 -11 -9 -3 0 2 1
1532256418376680 4 -25 -39 -2 -2 0 -1 0
1532256418422558 -2 13 -40 -8 -4 -2 -3 0
1532256418444498 -2 5 -40 -3 -2 -1 -1 0
1532256418491388 -2 16 42 1 0 -4 -2 -2
1532256418520311 -4 -20 0 -2 -5 16 9 8
1532256418557211 12 22 12 -2 -6 -67 -31 -9
1532256418580151 -6 -35 2 2 -13 -76 -47 23
1532256418616055 7 -30 47 3 3 3 4 3
1532256418633010 -9 -5 13 -11 -12 3 -12 -7
1532256418691852 -1 -3 19 4 4 18 8 -6
1532256418738726 -5 16 19 1 -3 0 -3 1
1532256418767670 0 14 1 2 4 7 4 -1
1532256418856412 2 16 4 -4 -1 5 4 3
1532256418902289 9 1 12 13 2 1 -2 -1
1532256418939200 -9 6 7 0 8 3 -2 -3
1532256418962129 10 -3 12 -5 7 1 2 3
1532256418985073 -18 2 -12 -3 1 -2 2 -2
1532256419006012 11 0 19 -5 2 2 1 1
1532256419035932 1 37 -4 -2 2 1 0 1
1532256419067846 -1 -19 -4 2 5 1 -3 -7
1532256419095772 -7 18 5 -11 -17 -3 -3 -21
1532256419126689 -2 -10 36 -9 -14 -12 -6 -4
1532256419179547 4 -21 -31 -19 -7 3 -1 -1
1532256419239387 -2 -14 -27 2 -6 -1 4 26
1532256419299227 -2 -5 -1 -1 0 -5 -1 -13
1532256419359068 -3 -4 -8 -3 -4 -1 0 -8
1532256419412924 0 -3 -4 -5 -2 -5 -1 3
1532256419561526 0 -20 7 49 6 4 1 -1
1532256419615382 -4 4 14 -24 -54 -9 -3 0
1532256419728092 -5 6 15 24 13 2 1 -1
1532256419743041 -7 -1 -2 -3 6 1 -1 -3
1532256419764983 4 -1 -4 -3 1 0 -1 0
1532256419778945 -7 0 4 1 -2 0 1 -4
1532256419832801 7 -1 -9 0 -1 -1 2 3
1532256419923558 11 1 -2 -3 -6 -6 -6 5
1532256419945500 30 28 15 -2 2 12 15 30
1532256419958480 24 -18 -19 1 8 3 0 -14
1532256420042241 127 54 0 -4 2 1 -21 71
1532256420066177 -19 -5 -4 6 -1 3 10 6
1532256420111057 -59 8 44 12 8 5 21 9
1532256420163915 16 -3 -28 -9 -5 -11 -18 46
1532256420207798 2 -1 30 3 0 -1 -16 60
1532256420220764 -52 -16 -9 -5 -5 -3 29 21
1532256420267638 -41 -10 -7 -6 -4 -4 20 16
1532256420327478 45 13 -8 2 0 -3 -19 -20
1532256420367375 29 5 21 3 4 1 5 -1
1532256420411255 -15 -11 -2 1 0 2 0 2
1532256420486055 -8 22 21 7 1 1 0 7
1532256420508993 1 8 -14 0 2 2 -2 -1
1532256420545894 8 23 10 3 -3 -4 -1 1
1532256420582795 3 6 24 0 -3 -1 4 0
1532256420687516 2 -12 12 1 -2 -2 1 2
1532256420734402 -2 -4 -2 4 -1 0 -2 -2
1532256420761318 -3 -6 -13 -2 -6 -3 -1 -6
1532256420807195 -1 8 2 -1 3 3 -4 -7
1532256420821158 -4 -11 -9 -6 -1 -5 -3 1
1532256420851078 -7 5 -3 -5 -3 -2 6 -21
1532256420880997 -12 -27 7 -5 -2 -1 -3 -4
1532256420904938 3 -18 -4 2 3 5 6 6
1532256420927872 10 24 -4 -5 -1 0 0 0
1532256420964774 3 13 1 0 0 -1 -5 -1
1532256421047552 -11 -6 -9 1 1 0 -3 -2
1532256421084461 3 -9 5 2 0 -4 -7 -5
1532256421190171 -4 2 5 1 -3 -6 -7 -4
1532256421251009 4 9 7 -3 -6 -2 4 10
1532256421332791 9 0 1 -2 -2 -2 0 0
1532256421369691 5 3 -3 -3 -3 -2 -2 1
1532256421407590 7 -11 -7 2 6 4 6 2
1532256421460449 0 -3 9 8 1 1 0 5
1532256421497350 3 14 1 3 5 4 4 2
1532256421669888 5 2 3 4 1 1 -3 6
1532256421692827 -4 13 -1 2 1 0 -3 -1
1532256421774608 2 11 3 -2 0 0 -2 3
1532256421859382 2 -4 0 2 1 3 1 -7
1532256421866363 2 3 4 2 3 1 1 1
1532256421887307 -2 5 4 -1 -5 -3 0 1
1532256421924209 -2 14 -3 1 3 1 -1 -1
1532256421947147 -3 0 7 -5 -6 -9 -2 -1
1532256421993024 -2 9 2 -1 -2 -3 0 0
1532256422037904 -6 -50 0 -2 2 7 3 4
1532256422059851 0 20 1 0 2 1 -2 1
1532256422111713 4 11 5 0 0 1 -2 -4
1532256422232390 3 15 10 3 -1 0 -1 18
1532256422330129 -5 10 -3 -3 -4 -2 0 0
1532256422425873 -5 -16 1 3 0 -2 1 8
1532256422479729 5 4 0 -3 -3 -2 -2 2
1532256422495686 -8 -12 22 -8 -4 -4 -1 -33
1532256422519622 10 26 -6 -1 4 3 4 7
1532256422549542 -18 0 -4 1 -1 26 -3 4
1532256422570486 -2 -14 11 2 1 0 3 3
1532256422592427 4 4 -12 10 9 -2 2 -1
1532256422606390 3 -8 10 8 -5 1 -4 -1
1532256422652268 7 26 7 -9 -2 -1 -2 3
1532256422689169 9 2 -4 1 5 1 -1 1
1532256422713105 -1 -15 -37 -9 -5 -1 -3 -2
1532256422749009 -3 -20 -55 -14 -4 -1 -1 -1
1532256422772944 -3 -21 37 6 0 1 8 2
1532256422823809 -2 -1 3 5 6 2 -2 -2
1532256422846748 -9 -27 56 5 6 5 1 3
1532256422901600 -4 -4 -8 1 0 7 -2 -6
1532256422938512 -6 -18 -23 0 -3 0 -2 1
1532256422974406 -8 -9 6 3 0 -6 -2 -12
1532256422982385 -12 -28 4 -4 -4 -4 4 8
1532256423020283 -3 7 11 6 2 -15 -4 -17
1532256423049215 4 16 14 2 1 7 -3 -2
1532256423072145 -2 15 31 5 2 13 3 -10
1532256423147942 3 37 13 7 4 12 -7 -9
1532256423162902 -4 18 -10 -8 -3 7 -2 -20
1532256423184850 7 32 7 5 -2 10 0 -39
1532256423215761 8 -19 4 1 -3 -24 2 21
1532256423320481 -13 -9 5 1 0 -18 -5 -28
1532256423417223 -1 1 3 0 1 -8 -2 -11
1532256423478059 0 8 5 5 0 5 4 -2
1532256423611702 -5 -17 -4 -6 -2 0 1 1
1532256423634641 9 -13 -6 7 2 -3 -3 -1
1532256423672550 2 -7 -1 -2 -1 2 -2 -1
1532256423702459 2 26 6 5 2 3 3 4
1532256423717420 -1 -2 4 -1 1 -2 -5 -2
1532256423754328 -3 5 1 8 4 0 0 1
1532256423792220 3 12 -1 -2 4 3 1 1
1532256423814160 3 7 3 1 -2 -2 1 2
1532256423852059 -1 2 -6 -5 0 0 0 1
1532256423897936 -12 -50 -28 0 1 0 -1 -5
1532256423934838 -2 -1 15 -4 -3 -3 1 0
1532256423994678 -5 -29 30 -1 3 5 12 19
1532256424047537 17 73 -16 0 1 -7 -16 41
1532256424070475 -8 -15 4 4 2 -10 -4 -18
1532256424137297 -13 -13 18 -5 -5 -15 -4 7
1532256424151274 -7 15 36 20 -7 -1 -5 8
1532256424174197 -4 8 -8 6 1 -4 -2 0
