1532262393399668 -4 20 -16 1 8 0 -1 -14
1532262393432570 -1 -19 12 12 16 -3 0 2
1532262393470469 -1 -4 1 -6 29 27 4 1
1532262393497397 2 -3 7 24 22 2 3 1
1532262393515349 -2 -4 -5 -5 18 1 -1 -1
1532262393553248 -2 -11 -17 -7 -14 -10 -3 -4
1532262393582170 -1 -31 13 -3 11 -1 1 1
1532262393616080 1 15 0 -12 -1 -7 -3 -4
1532262393628048 1 8 -2 -1 -3 5 1 -1
1532262393659963 -1 -8 10 -37 -11 -5 -2 -2
1532262393679909 -2 10 7 2 6 -3 -3 -2
1532262393694869 2 7 -11 -8 1 3 -1 0
1532262393718807 3 3 -1 -6 -9 -3 -3 -1
1532262393739768 -3 6 -1 12 1 1 -1 -3
1532262393762688 -1 -12 -4 -1 2 -1 -2 -1
1532262393785626 4 8 2 -12 6 7 0 -2
1532262393830506 -2 -12 0 -2 -1 1 0 0
1532262393845466 -11 -4 11 12 17 -2 0 -3
1532262393882368 -17 -4 9 -10 -1 2 -3 -6
1532262393905306 7 -2 0 -12 -13 -5 -1 -2
1532262393927248 -9 -4 -8 6 0 -4 -4 -3
1532262393957183 -3 -5 -7 -6 6 3 1 1
1532262394003052 -2 -2 -11 5 -11 -2 -1 4
1532262394039953 0 11 18 52 10 2 3 -3
1532262394054913 4 21 23 -7 -2 -3 -2 0
1532262394084833 1 0 14 -13 -9 2 5 2
1532262394114752 3 -2 -2 -6 -4 0 5 9
1532262394137691 -24 -9 -21 8 4 -1 -4 -9
1532262394175590 12 0 -7 -8 -2 2 1 6
1532262394190550 23 0 3 0 0 -1 0 6
1532262394235447 -5 4 0 -17 -6 -2 -8 -13
1532262394257388 -35 -23 18 1 -5 2 0 -8
1532262394340166 -13 -6 -3 7 -3 1 0 -3
1532262394362108 -1 8 -13 -22 -4 -1 5 3
1532262394414966 92 8 4 22 5 1 2 -10
1532262394459847 81 -3 7 0 -5 -2 7 48
1532262394483783 -10 -18 5 31 6 -6 -10 1
1532262394542625 -21 -17 -29 -6 2 -6 3 -19
1532262394610444 -59 12 -21 -23 -7 -1 -7 -19
1532262394655334 100 50 8 4 9 -2 17 65
1532262394692225 -22 8 5 11 -3 12 1 -14
1532262394716161 -3 -10 7 13 11 0 -6 -12
1532262394745084 -40 -6 -5 -2 0 -7 -7 -22
1532262394768022 -7 -9 -5 11 2 6 1 -2
1532262394827863 -25 6 9 8 -7 -17 2 -11
1532262394932582 -15 -2 -6 -8 -2 -8 -4 -9
1532262394947543 -14 -10 -3 -3 4 -4 4 -6
1532262395022342 -2 -7 55 3 6 88 7 -1
1532262395039297 0 5 -48 -1 -1 15 1 1
1532262395082182 -2 -15 -17 2 7 -2 0 -3
1532262395097143 -1 5 -89 0 -7 -6 -2 -3
1532262395136057 3 9 23 8 -4 4 -7 -1
1532262395157980 -2 1 -5 6 -1 -13 -3 -2
1532262395217820 1 2 11 0 -6 -16 -8 2
1532262395269681 -3 -22 18 2 3 49 2 -2
1532262395300598 0 -3 22 -16 1 2 5 2
1532262395360439 -4 -3 -12 -10 -6 -10 -8 -3
1532262395382379 -4 7 37 5 -1 -2 -5 -4
1532262395397340 1 -7 -24 -7 -3 6 0 -2
1532262395442219 -1 3 6 7 -1 -6 1 -1
1532262395495079 -3 -7 -1 1 3 12 0 1
1532262395539969 0 6 47 13 3 8 0 -2
1532262395584838 3 -5 59 10 1 28 0 -1
1532262395644678 -3 -8 -11 7 -1 0 -2 -7
1532262395659638 -2 3 20 1 2 10 2 1
1532262395772337 2 17 48 5 -2 -2 -3 0
1532262395787297 5 8 -31 -22 -2 -6 -1 2
1532262395825196 -1 13 81 -11 -2 13 -8 -3
1532262395914956 -1 -2 -11 2 1 33 0 -3
1532262395968814 -4 -7 5 -6 -7 -12 -2 -3
1532262395991751 -3 8 75 -4 -3 9 7 3
1532262396027654 5 -2 -33 -2 -2 5 -1 0
1532262396065553 0 -2 -18 -1 -1 1 -5 0
1532262396117415 -1 2 14 1 0 26 0 0
1532262396170273 -8 -10 -10 9 2 -1 -2 -2
1532262396253052 -1 -5 12 -2 -5 -3 0 -3
1532262396364754 -1 -2 -14 0 2 8 0 1
1532262396492412 3 -6 -1 -3 -3 0 1 -1
1532262396530310 2 6 23 2 0 0 -1 0
1532262396620070 -1 -4 -15 0 0 2 0 -1
1532262396687889 -2 0 -8 1 3 1 0 -1
1532262396762689 0 -1 -13 -7 0 -1 -1 1
1532262396822529 2 -4 -7 -1 0 -1 -1 0
1532262396890354 0 3 -11 4 0 1 1 0
1532262396957175 0 -2 -6 2 -2 -2 -1 0
1532262397032972 -4 -11 3 -15 4 3 41 7
1532262397107772 3 6 25 16 8 0 -14 17
1532262397175591 4 -3 64 7 -2 -6 -5 5
1532262397242413 0 5 22 22 2 4 -1 -5
1532262397385053 -5 -2 41 -14 -3 3 -1 -2
1532262397459852 53 2 -27 16 11 16 13 21
1532262397504733 -27 1 15 1 0 13 -1 -9
1532262397557592 2 1 12 1 -1 -7 -2 1
1532262397632392 7 -15 -21 -21 -6 -16 -3 -1
1532262397700211 3 -4 11 26 -3 -18 -7 -2
1532262397722152 -5 -10 -66 31 9 0 1 2
1532262397775010 -1 -4 34 1 2 55 -2 -3
1532262397812909 -4 0 28 1 5 -13 -5 -11
1532262397842829 -11 2 3 -2 3 32 6 -5
1532262397887709 9 1 2 13 -1 -12 -3 3
1532262397917629 2 2 -7 5 -5 6 -2 -2
1532262397955527 6 0 -3 -6 0 3 -2 0
1532262397985447 -1 -10 -1 3 6 0 2 2
1532262398037309 1 15 -8 -19 -2 2 -2 -1
1532262398135047 4 -2 -4 -5 2 53 3 4
1532262398157986 1 -4 -1 -3 0 40 16 -2
1532262398224807 -3 2 8 20 6 1 -4 -1
1532262398284648 -6 -22 -10 -10 -6 -38 -5 -3
1532262398322547 1 29 59 2 0 2 0 4
1532262398352466 4 -13 -27 -9 0 5 -2 2
1532262398442226 -3 8 3 1 -1 -1 -2 -2
1532262398547951 -10 -54 -15 -6 -5 -6 -52 -10
1532262398569893 -7 28 1 -5 -6 -4 13 -7
1532262398614773 -2 -120 -5 1 1 5 -13 -4
1532262398667631 3 65 -3 -4 1 4 -10 -23
1532262398682591 -9 -32 6 3 4 13 21 -2
1532262398735472 4 4 -11 -3 -3 -11 -13 32
1532262398757414 2 13 -8 -4 -2 7 2 -3
1532262398781350 -18 33 -15 -9 -6 8 -14 -7
1532262398795312 -8 -87 -11 -9 -3 -10 -14 4
1532262398817254 8 73 13 5 -1 -14 3 1
1532262398832214 -7 12 7 -2 -1 -1 -5 -14
1532262398870113 -7 -27 -22 -10 -4 -4 -13 -15
1532262398885072 8 -36 7 5 3 3 -1 1
1532262398922972 -14 -85 3 2 4 16 73 3
1532262398952891 -13 -57 -16 -2 -4 -2 -15 -7
1532262399036667 -5 30 3 1 0 -8 27 7
1532262399064592 7 24 1 -4 -6 -8 -36 -7
1532262399102491 10 45 18 3 0 -8 -25 7
1532262399207211 1 2 -9 3 0 -5 -34 33
1532262399245110 -11 -1 -2 -5 -4 -8 -6 -34
1532262399319910 10 64 26 1 0 -1 -2 -18
1532262399357808 -8 -49 -20 -10 -7 -2 -11 -10
1532262399379750 -1 11 -88 -7 -7 -3 -2 -9
1532262399402688 4 -12 14 -8 1 1 4 5
1532262399417648 -4 -29 -116 -1 3 2 6 2
1532262399462529 2 20 -35 -3 -3 -3 -2 6
1532262399560267 2 4 -7 -13 -1 1 1 7
1532262399605147 4 7 -34 -1 0 0 3 5
1532262399739787 16 -30 -34 -7 -5 -5 -5 -15
1532262399754746 -34 0 17 -2 2 1 2 -21
1532262399815595 6 -4 10 -3 -1 0 0 7
1532262399905344 1 -98 -14 -1 3 3 1 -2
1532262399988123 -11 9 49 4 6 -4 2 -2
1532262400033003 -12 23 -24 -12 -5 2 -5 19
1532262400129744 -14 -10 -53 -19 -7 -2 -2 -15
1532262400212522 30 -10 -13 -4 -5 -5 1 99
1532262400332203 -13 -16 -2 -5 -3 0 -3 -3
1532262400414982 -5 49 -34 2 2 1 -5 -20
1532262400482800 12 58 53 9 5 1 -3 -7
1532262400557600 40 16 91 13 3 9 10 61
1532262400632400 -6 6 19 4 -1 -3 -14 -55
1532262400760059 -26 -15 -17 -3 -4 0 -1 1
1532262400789979 -28 29 -9 0 -2 -4 -6 -35
1532262400864804 11 -11 17 2 -1 -1 3 -39
1532262400932622 6 30 9 -3 -2 -2 1 14
1532262401015400 1 14 1 -3 -1 -3 -3 8
1532262401039337 0 37 20 2 -1 -2 0 -1
1532262401060281 2 -17 -30 0 -4 0 -1 2
1532262401143059 4 13 6 -1 0 1 1 7
1532262401224840 -1 19 2 -3 -2 -3 -1 -4
1532262401345518 2 -2 0 -8 -3 -6 -4 2
1532262401367460 9 40 0 3 0 0 0 0
1532262401390407 -6 2 -6 -3 -4 -3 -1 -1
1532262401429301 -7 -25 -3 -4 -3 -1 -1 -1
1532262401465197 3 -10 -1 3 -1 0 2 2
1532262401495118 2 12 19 11 6 -1 -1 0
1532262401539998 1 17 4 2 -4 -3 -1 1
1532262401607817 -5 -85 -46 -15 -9 -5 -3 -1
1532262401795315 -8 -4 -21 -12 -2 -3 -3 -5
1532262401819251 4 -4 -8 -5 3 1 0 1
1532262401855154 -6 -10 -26 -2 2 -1 1 -1
1532262401885075 -7 -12 -9 -1 -2 3 1 -2
1532262401900035 -4 -5 1 -3 -2 2 2 0
1532262401953891 -6 -13 -7 -2 -1 3 2 -1
1532262401997774 -2 -5 -10 -4 -3 -2 -4 -7
1532262402141404 1 1 8 -4 -4 -17 -29 -10
1532262402170312 1 9 1 0 -3 -4 1 -16
1532262402200232 4 -6 -6 -5 -2 2 4 25
1532262402222174 -7 -23 -47 -15 -2 11 15 28
1532262402237134 -5 -7 -9 3 -3 -11 -6 -11
1532262402275032 -3 -4 -22 0 -2 0 -1 -8
1532262402305964 -7 -17 -23 -8 -2 2 0 -13
1532262402349832 7 13 15 0 1 4 0 -2
1532262402409672 0 4 10 1 0 3 -1 -2
1532262402440589 0 3 3 -2 -2 -2 -2 -7
1532262402462530 1 1 -2 3 1 1 2 4
1532262402485470 -9 -35 -16 -12 -5 1 -2 -7
1532262402515390 2 12 3 3 3 3 4 4
1532262402575230 -14 -25 -8 -9 -4 -1 0 0
1532262402607144 3 8 3 3 2 -12 -13 2
1532262402635070 -2 -4 -1 4 -1 -8 -10 -1
1532262402702889 5 11 8 4 -1 9 2 4
1532262402717848 2 0 11 0 0 4 0 -4
1532262402739790 -2 -1 6 3 1 -3 -2 -2
1532262402762729 -3 -1 -3 -3 2 -3 -9 -2
1532262402784670 2 3 3 0 1 2 -5 -14
1532262402814590 -2 -2 -6 -5 -11 -13 -26 3
1532262402837529 -4 -3 -6 -6 2 5 -3 -10
1532262402890387 1 2 0 2 -18 -26 -8 -3
1532262402935266 3 -1 0 0 -3 4 33 3
1532262402980148 -1 -4 -2 4 1 -35 0 -10
1532262402995107 2 2 -5 1 7 -4 -7 9
1532262403025027 -2 27 35 5 1 15 5 15
1532262403062926 3 20 -2 -1 0 -8 -5 -2
1532262403084867 -3 -47 -1 -3 -1 7 -1 0
1532262403123763 -1 -13 -22 -4 1 11 0 -2
1532262403146701 0 2 -22 8 3 -1 -1 -1
1532262403167646 0 14 -29 -2 0 -1 -2 -5
1532262403190584 0 -15 -3 1 -4 -1 -1 1
1532262403205554 -1 2 11 -2 -1 -1 -1 -3
1532262403227486 -2 -13 -52 -7 2 1 2 0
1532262403250424 0 7 39 -8 -1 1 0 -1
1532262403265384 6 0 14 -5 -4 0 -1 -2
1532262403280344 1 -9 -10 -9 0 1 -2 -2
1532262403317246 -2 0 -25 -1 1 1 -1 -2
1532262403347166 9 0 19 8 6 -3 6 44
1532262403379080 -35 -50 71 6 4 61 31 -34

1532262403408002 -4 -15 -1 1 -11 -55 -19 3
1532262403429944 -18 -74 -61 -16 -2 5 3 20
1532262403482803 -6 -10 -29 90 16 0 1 -2
1532262403504744 2 32 88 -32 -12 9 5 10
1532262403534664 2 4 46 9 -1 -8 -11 2
1532262403564583 -1 -6 4 -1 -1 1 -1 -2
1532262403595501 2 0 10 14 12 5 6 0
1532262403610461 -4 5 -7 -23 -9 -2 -2 -1
1532262403632402 3 -7 -12 -16 -5 3 5 1
1532262403655341 -6 16 0 -5 -3 -5 -5 -5
1532262403700221 -1 -10 -8 22 15 0 3 0
1532262403716179 0 -8 -22 -16 -9 0 -1 0
1532262403752083 -2 -2 -7 -21 -6 0 -2 -2
1532262403775021 -2 -2 5 3 -3 5 3 0
1532262403812920 1 7 9 64 12 2 -1 1
1532262403834861 2 -7 -16 -25 -9 -3 -2 -1
1532262403857800 1 -4 10 -3 -1 -6 1 1
1532262403887719 0 0 -12 -7 -5 -4 -3 0
1532262403909661 -1 -7 -21 -2 1 1 3 1
1532262403941592 1 -4 5 -2 1 -3 -4 -1
1532262403970515 1 1 -2 -8 -5 -1 -1 0
1532262404022377 -4 -4 -5 1 -2 -7 -4 -4
1532262404105155 -3 -8 -3 -5 -2 -5 2 0
1532262404172973 2 16 37 -15 -3 -8 -1 -1
1532262404194915 -8 1 -6 -37 -7 2 1 -1
1532262404239826 -5 1 -1 17 3 4 2 1
1532262404299665 -6 11 9 5 2 0 2 2
1532262404323601 3 -6 -5 7 0 0 -1 0
1532262404375463 2 -4 -3 17 1 -25 -1 -3
1532262404427339 2 -6 -13 4 2 9 2 2
1532262404495158 0 -13 -42 -9 -1 0 1 0
1532262404533064 -1 -9 -17 -9 -2 0 0 -1
1532262404563986 -1 5 -5 -2 -1 1 -3 -2
1532262404614837 1 -1 7 -4 -6 -13 -4 -2
1532262404652748 1 2 -10 -10 -4 -4 -2 0
1532262404674689 -3 -1 3 -6 -5 -10 -6 -1
1532262404720567 2 -8 -16 -6 0 5 2 0
1532262404750486 -3 -4 -4 4 1 6 3 -3
1532262404832267 0 3 1 -4 -2 -3 -3 0
1532262404982865 -1 -2 2 9 3 6 -3 -1
1532262405034726 -1 -14 -54 0 3 15 -1 -1
1532262405079607 1 -4 0 3 2 -7 3 0
1532262405155404 0 16 51 3 -4 -8 -2 -2
1532262405275095 -1 1 3 -2 -2 2 0 -1
1532262405313000 -3 -4 31 1 -2 0 0 -3
1532262405349884 -2 15 22 -3 0 -2 -1 -4
1532262405409724 -1 0 -14 -2 -1 -8 1 0
1532262405545361 -1 0 1 2 -3 -16 -5 -1
1532262405567302 0 -1 20 -3 0 4 2 2
1532262405614177 -2 0 10 3 1 6 1 -2
1532262405680000 -2 -3 -58 -2 1 0 2 1
1532262405732860 1 -1 15 3 2 1 -2 -1
1532262405830614 -1 -1 19 2 1 -3 1 -1
1532262405890445 -1 -9 -28 -1 1 -1 1 0
1532262405912380 1 -1 0 0 -1 -6 -1 0
1532262405957260 0 -2 -33 -5 -1 -3 -1 0
1532262405981195 -1 -12 0 1 5 0 -2 0
1532262406025095 -1 3 -23 3 1 -1 0 0
1532262406048051 -1 6 2 1 -2 -4 -1 -1
1532262406092897 -1 -5 8 -4 1 0 -3 -1
1532262406122817 0 2 14 13 4 -1 -1 -1
1532262406152760 2 -9 -18 13 5 2 2 1
1532262406174680 -2 5 37 15 2 -2 -3 -1
1532262406212577 1 -2 -7 5 1 5 0 -1
1532262406242496 -5 -7 -16 0 0 22 -4 6
1532262406266433 -3 -30 -25 4 17 71 8 48
1532262406295356 13 -6 2 0 -29 -114 -22 -19
1532262406310316 -7 18 13 -1 7 32 12 5
1532262406332291 1 14 63 4 -3 -16 -2 -1
1532262406393101 2 26 27 99 22 -8 -4 -14
1532262406408055 -4 -4 12 12 -18 -13 -10 -8
1532262406474876 -3 -24 1 -1 8 5 3 16
1532262406542694 -6 -1 29 4 -11 1 2 -9
1532262406602535 -5 -24 -21 2 9 -1 -1 -2
1532262406670353 0 19 10 3 1 -2 3 0
1532262406692295 -1 -7 32 7 16 7 1 2
1532262406715233 0 -1 -6 -3 -8 -8 -1 1
1532262406745154 -1 -13 30 19 -2 0 1 -2
1532262406775072 -1 -1 -45 9 1 0 0 1
1532262406827931 1 -6 10 7 18 7 14 5
1532262406842891 1 3 0 5 2 2 -1 1
1532262406864833 3 -6 3 -8 13 1 -3 -2
1532262406887771 -6 -10 -1 3 13 1 -1 -1
1532262406917691 -2 2 -3 -2 3 0 0 0
1532262406947611 -5 -10 -4 -14 -15 -1 -1 -1
1532262406992491 -13 -12 3 6 -12 -4 -3 -5
1532262407022411 4 2 -4 2 7 0 0 1
1532262407052331 7 9 4 0 -1 -2 0 1
1532262407143095 3 11 7 14 8 -1 2 4
1532262407165030 -8 -9 2 2 -1 2 2 -2
1532262407195948 -38 -3 9 -3 0 -2 -13 -14
1532262407429323 115 15 -11 -44 -11 -3 0 21
1532262407495147 -59 8 -2 9 -1 1 17 -17
1532262407584907 35 0 -2 -1 -4 -5 -40 -38
1532262407637766 -4 29 11 -4 3 1 16 4
1532262407683643 -78 -35 -32 -2 -11 -8 -27 -42
1532262407705586 -55 6 -2 -15 -7 -13 -22 7
1532262407735504 68 17 0 -11 0 17 0 31
1532262407757450 82 16 10 5 -1 0 59 -17
1532262407772406 -70 -30 -19 -10 -2 3 -9 -13
1532262407817286 -14 45 -2 9 3 5 -40 -11
1532262407832246 7 3 8 -20 -7 15 -15 -16
1532262407855184 42 25 -3 -12 0 -19 -16 34
1532262407870144 76 9 16 29 6 -52 -34 17
1532262407915024 71 42 9 -9 -1 -10 51 18
1532262407937963 46 0 -7 -6 2 23 -28 21
1532262407959905 2 -12 -6 -9 1 -10 -14 -10
1532262407989824 42 15 -3 -2 7 -4 -25 8
1532262408019744 23 18 3 3 1 17 13 -2
1532262408049664 -21 -25 5 0 1 5 12 -1
1532262408110502 12 -22 6 7 17 55 23 3
1532262408155382 3 0 45 -2 3 0 -1 -2
1532262408185301 -3 10 -83 -10 -12 -7 0 1
1532262408207259 3 14 -38 -4 2 11 0 1
1532262408253120 4 9 6 -5 -2 22 0 3
1532262408298000 1 -3 23 -4 0 44 5 1
1532262408319942 -2 -15 19 -4 -9 -7 -2 -2
1532262408342881 -5 -11 23 -5 -9 -1 0 -1
1532262408402719 2 -16 43 -4 -5 -19 -3 1
1532262408456576 2 -7 -34 -1 4 -3 0 0
1532262408492480 -4 -17 -31 -20 0 -1 4 -1
1532262408522399 -4 -13 37 12 1 -15 -3 1
1532262408537360 3 14 -13 -7 -3 -8 -1 -1
1532262408552320 -4 -28 -40 11 4 14 -3 -1
1532262408567279 -1 0 32 -10 -2 7 -4 2
1532262408590218 -3 -6 36 -11 -4 -15 -5 0
1532262408623141 -4 -6 -34 -1 1 13 1 -1
1532262408650059 -3 -8 35 22 -5 -19 2 -2
1532262408717877 1 2 26 -8 -1 35 3 -2
1532262408754778 -1 7 37 -2 0 -1 -4 -2
1532262408793674 0 4 11 -3 -1 -43 -4 -2
1532262408830586 -2 2 34 -2 -2 -4 1 9
1532262408882437 2 0 -7 10 4 -29 -6 2
1532262409025056 -6 -2 -28 -2 1 -5 -8 -2
1532262409092875 6 -7 18 -5 -4 1 0 2
1532262409107835 0 -4 -11 3 2 8 4 2
1532262409167674 1 2 -11 7 2 0 1 -2
1532262409257435 -2 -3 7 0 -1 6 -2 -5
1532262409400053 3 6 10 30 -2 -1 -2 0
1532262409512752 -11 -7 -21 -1 -6 -4 -4 -3
1532262409647392 9 -2 -5 -8 -2 12 0 -1
1532262409662352 7 -8 -2 0 5 6 3 1
1532262409692272 -3 -3 -11 -2 -2 2 -1 1
1532262409730170 3 -3 0 -3 -1 -1 -12 0
1532262409768069 -9 -3 -7 3 4 -14 -3 0
1532262409783029 19 -3 -10 -1 3 5 -2 2
1532262409797989 -2 -4 -1 1 -1 -15 -2 21
1532262409842869 -2 -2 2 -8 -4 -4 4 5
1532262409879769 17 11 -6 -23 -12 -9 0 9
1532262409917669 -4 -6 -32 2 2 5 0 -4
1532262409947588 -3 -1 5 -9 -4 -2 0 -2
1532262410022389 -14 1 0 -10 -5 -4 -3 -6
1532262410083226 15 34 27 69 23 6 4 7
1532262410105167 -6 -11 -2 -20 -7 -1 0 0
1532262410120128 1 4 4 14 2 -3 -2 0
1532262410150048 -6 -7 -7 -8 -11 -10 -34 -4
1532262410165008 -11 -2 1 -4 -4 2 18 -4
1532262410179968 14 1 -2 -11 -2 12 57 44
1532262410202906 -8 -2 -4 -2 -3 -20 -3 17
1532262410217866 -15 4 7 8 5 -2 -12 4
1532262410239808 -8 -1 -8 -3 -1 7 -1 -4
1532262410269728 7 2 -7 -12 -4 -7 -5 2
1532262410299647 1 -1 0 -2 0 2 1 -1
1532262410322590 2 2 6 -3 -4 -11 -4 -6
1532262410345524 3 -1 6 -6 -5 -6 -1 2
1532262410369461 1 -1 30 -1 -2 -1 -1 -4
1532262410397386 3 -2 2 -4 -5 -1 1 -1
1532262410420324 -7 -8 -28 3 1 2 -1 0
1532262410488143 0 2 -1 -9 -5 -3 -2 2
1532262410584885 0 5 -13 3 -1 -2 -2 -1
1532262410629765 -1 2 -72 0 3 2 0 -1
1532262410736484 2 14 -9 4 3 2 2 6
1532262410772384 0 -30 0 -5 0 1 3 6
1532262410802303 -5 2 3 -2 -3 -2 -2 -5
1532262410855162 2 7 11 1 -1 -3 0 -1
1532262410877103 -1 -5 7 3 5 4 2 -1
1532262411034682 -3 15 -6 -6 -3 1 16 -19
1532262411080559 -3 62 32 17 6 -10 -52 7
1532262411104495 17 1 -15 -5 -3 6 10 -2
1532262411132421 -17 -60 -20 -11 -14 -13 16 1
1532262411177301 -2 3 14 4 1 0 12 0
1532262411192261 -2 12 2 0 5 24 46 -1
1532262411237140 2 -8 -4 1 2 5 -7 -4
1532262411304959 2 20 -11 5 1 5 -4 2
1532262411342867 7 8 9 0 0 9 90 8
1532262411379760 -9 36 12 0 -2 -8 -8 -3
1532262411432618 14 -84 0 -2 -3 -2 -2 -1
1532262411449572 -7 -42 -12 -4 -4 -6 -25 -15
1532262411492458 -4 1 -8 3 1 -4 -26 -4
1532262411545316 3 53 10 1 0 -2 -8 56
1532262411664996 -13 -21 4 3 2 4 -19 -47
1532262411732815 -9 -20 -8 -4 -2 -1 2 -66
1532262411814596 2 4 -4 0 -1 -2 -10 36
1532262411860474 3 -27 3 0 4 3 11 -12
1532262411875433 -10 32 13 -3 -2 4 44 -1
1532262412099834 -2 -8 -49 -1 -3 -5 -3 10
1532262412212532 -4 6 16 5 1 -2 -2 -8
1532262412310271 -7 4 34 0 -1 0 0 -6
1532262412347172 0 -10 -7 -7 -2 -1 -1 -3
1532262412414991 4 14 12 0 0 -2 1 0
1532262412587529 5 24 43 -3 -4 -4 -4 -12
1532262412872768 -10 -24 -8 -2 -2 -1 -1 -23
1532262412917647 6 14 -6 8 47 -10 -2 17
1532262412932607 -5 11 108 20 6 11 6 -60
1532262412970505 4 5 -10 -11 -19 -7 1 15
1532262413015385 -7 19 71 9 -12 -3 -1 -13
1532262413045305 -6 16 -13 11 1 -1 -2 -27
1532262413202884 -6 11 -16 1 -1 -2 9 -9
1532262413299625 -11 -8 -3 3 -3 1 -8 -5
1532262413322564 4 2 19 -2 -2 -2 2 26
1532262413390383 8 -35 20 4 6 5 7 12
1532262413412324 19 67 3 -6 3 1 8 20
1532262413435268 -10 -19 3 -2 -2 0 2 3
1532262413457204 -4 -30 -9 -2 -2 3 -2 8
1532262413502084 0 -6 -4 2 0 -2 -1 1
1532262413518041 1 0 -9 2 0 1 0 1
1532262413554943 -2 -35 -17 1 1 2 0 0
1532262413599823 1 18 -19 -3 0 0 1 2
1532262413639730 -9 2 21 -3 -1 0 -4 -5
1532262413667641 -1 -9 -25 -2 -2 -1 0 -3
1532262413690580 -1 -1 -2 1 -2 -1 1 -4
1532262413735459 1 -5 -3 -1 1 0 0 -2
1532262413757412 5 8 4 0 -2 -1 2 1
1532262413810260 -2 4 3 0 -1 -1 1 2
1532262413847161 -1 -11 -38 3 1 0 0 4
1532262413877081 -6 -2 -40 -8 0 -1 -3 -4
1532262413953889 -7 18 -14 4 -5 -1 1 -2
1532262413989783 3 -9 -7 -2 1 -1 1 0
1532262414019700 -2 -1 32 33 7 1 0 0
1532262414050618 -1 -6 3 43 19 3 4 3
1532262414095497 -4 -8 -20 -38 3 1 -1 -3
1532262414170304 2 -6 8 -24 -7 -2 0 0
1532262414215184 6 7 9 11 5 1 -1 1
1532262414364784 1 11 10 -4 -1 1 -2 -2
1532262414449557 0 -5 -11 4 -2 -3 1 -2
1532262414470501 -25 -15 -13 -10 -2 0 -2 -73
1532262414515381 -7 -16 9 0 -5 -6 -2 12
1532262414560261 -1 -1 9 -7 -1 0 -2 7
1532262414597162 -11 -23 1 -9 -3 0 -1 -4
1532262414635061 8 4 -4 -2 0 -3 -1 3
1532262414658000 -1 -17 -36 -13 -4 -2 3 5
1532262414672960 6 16 36 9 2 0 -3 7
1532262414718837 9 14 15 5 2 1 -1 6
1532262414762720 3 27 23 4 3 1 2 1
1532262414792640 -2 0 2 -2 -1 0 0 -1
1532262414822559 -2 -17 -2 3 0 0 0 5
1532262414860458 -3 -1 -7 -2 -2 0 0 -4
1532262414898357 1 1 5 1 0 59 1 1
1532262414912319 -2 -6 0 -2 -2 -21 -1 -2
1532262414935258 -1 -6 -6 -7 -6 -31 1 1
1532262414957206 -4 1 1 3 -1 -4 -1 -2
1532262414987119 4 6 6 1 4 22 4 -1
1532262415039978 -8 -9 -18 -9 -2 4 -2 -2
1532262415071910 4 3 12 1 -4 -1 6 2
1532262415092837 -3 -39 -27 -6 0 -11 -5 -2
1532262415144698 0 23 -2 -7 -5 -9 -2 -7
1532262415228474 2 -37 22 0 -4 -2 -1 -2
1532262415272357 -2 -16 -14 3 2 2 0 -2
1532262415302277 3 -4 -17 -2 -3 -4 -1 0
1532262415317237 -3 10 3 3 0 0 -2 0
1532262415377077 2 4 -12 -5 -2 -3 0 0
1532262415415972 -3 11 -20 1 0 -2 -2 -1
1532262415474816 3 21 -15 -6 -3 -3 1 1
1532262415519694 -5 -5 7 -2 -2 3 -3 -3
1532262415549615 5 13 -11 0 1 2 3 0
1532262415670293 -6 37 -63 -9 -6 12 12 19

1532262415722154 0 10 65 95 28 -3 -13 -12
1532262415752884 -2 -8 34 20 2 -1 -1 18
1532262415774825 3 -7 -47 -9 -2 -3 -4 2
1532262415812764 1 1 -2 18 7 3 -1 2
1532262415881579 -2 -3 -35 -32 -6 -1 1 3
1532262415955381 -3 5 -1 10 5 -1 -2 -5
1532262415979317 0 6 21 -13 -5 -2 -2 -1
1532262416007246 0 1 6 7 3 0 -2 1
1532262416060101 -1 6 21 5 2 11 8 2
1532262416090021 1 0 -26 -1 1 -2 -2 1
1532262416119941 -1 -3 -6 0 0 0 0 0
1532262416134901 -1 5 6 0 -1 -3 -3 -2
1532262416149861 -1 3 12 13 6 1 1 -1
1532262416187760 0 5 4 -1 -2 -2 -5 -2
1532262416239625 -2 1 19 0 1 1 -1 -3
1532262416262559 -1 -4 -51 2 -1 -1 0 -2
1532262416307440 4 1 -52 -1 -7 -15 -3 11
1532262416337359 0 2 6 1 1 2 -1 -4
1532262416390219 0 -3 -3 2 -1 0 0 0
1532262416442111 -1 -1 5 5 2 2 1 -4
1532262416502947 -1 -4 -15 -1 1 -2 0 1
1532262416532867 2 6 23 -1 -2 2 0 -3
1532262416554808 0 -3 -29 -1 -2 -2 -1 0
1532262416599688 1 2 25 -2 1 2 0 1
1532262416622650 -2 -10 7 -3 -1 0 -4 -6
1532262416667530 0 0 9 -1 0 1 -2 0
1532262416705428 3 -2 1 0 0 0 0 1
1532262416750310 -4 -3 12 -3 -1 1 -1 -2
1532262416795188 2 3 -8 0 1 5 2 -1
1532262416817130 -1 -5 -15 -5 -5 -3 1 0
1532262416840070 1 4 -6 -2 -3 -1 -3 -1
1532262416869988 -1 -5 -22 -4 -1 0 1 -1
1532262416892927 -1 1 -16 1 -1 -4 0 -1
1532262416922851 3 12 4 0 0 2 1 1
1532262416937807 0 2 2 -1 0 -2 -1 -1
1532262416967727 0 0 42 2 -1 1 0 -1
1532262416990666 0 4 23 -2 2 -1 -2 0
1532262417051502 -3 -9 -10 0 -1 -6 -2 -1
1532262417065466 -2 -6 -19 -2 -3 -6 -1 0
1532262417080426 -2 -5 2 -2 -2 0 0 0
1532262417140282 1 5 12 -2 -2 -1 -1 0
1532262417185145 -2 -1 -9 0 -1 -1 0 0
1532262417238004 -1 -5 26 2 0 3 -2 1
1532262417289865 1 6 0 0 1 -2 2 10
1532262417364665 -1 -3 -3 -2 0 -4 -3 -1
1532262417425517 -1 -3 16 -3 1 0 -1 -3
1532262417507301 -2 -2 2 1 1 0 -2 -2
1532262417530236 2 0 -14 0 -3 0 1 1
1532262417560157 -1 -8 -20 -1 2 0 0 1
1532262417582098 -1 -9 8 -3 0 0 0 -2
1532262417619997 -6 -6 19 -4 -1 1 -1 -4
1532262417664877 2 4 21 -2 0 0 -1 2
1532262417717736 3 17 36 5 0 -1 2 0
1532262417762616 -2 5 -34 -6 -4 0 -3 -2
1532262417785554 -1 4 -11 -1 -3 0 0 0
1532262417822455 -2 -6 3 4 -1 -1 -1 -1
1532262417837416 -1 19 -45 -11 -4 -4 0 -1
1532262417920194 -3 8 33 -6 -2 0 -3 -4
1532262417958093 -18 -77 -12 -5 -1 2 -3 -7
1532262418039881 2 -21 2 -15 0 0 1 -2
1532262418069794 7 7 3 -28 -6 -3 -3 1
1532262418114674 0 62 -3 4 2 5 2 0
1532262418137613 1 39 52 7 5 3 0 0
1532262418184487 -4 -51 -97 -18 -5 -2 -1 -1
1532262418205431 3 -9 -22 -2 -2 0 0 2
1532262418265271 9 82 -19 -22 -9 -3 1 1
1532262418325119 -5 50 -4 -6 1 -2 -1 -2
1532262418708098 -10 -42 17 -14 -7 -3 -1 -3
1532262418759955 2 -9 -43 9 2 -2 -3 0
1532262418849716 -3 -43 11 10 0 -4 -2 1
1532262418902574 9 57 40 -2 -3 2 1 -1
1532262418932495 9 61 21 -1 7 6 4 2
1532262419000313 2 -4 -35 -18 -4 -3 -2 2
1532262419119993 -5 -16 3 8 1 1 -2 0
1532262419209753 -3 -5 -14 -33 -5 0 -1 -2
1532262419262619 -1 17 49 0 3 2 2 -1
1532262419382331 3 -16 -35 15 5 2 1 0
1532262419435190 1 -10 -18 1 -10 -7 -1 0
1532262419517969 2 4 4 10 -3 -1 -5 -1
1532262419554870 0 -26 -18 -11 -2 0 2 1
1532262419629669 13 -10 -19 -23 -10 -6 -2 3
1532262419652608 0 29 14 5 4 -3 -1 1
1532262419705467 -4 -25 -5 -2 -2 -2 -2 -4
1532262419720427 0 46 -7 -6 -5 -2 -3 0
1532262419750347 -3 -11 -26 -7 1 3 2 -1
1532262419780267 -18 -26 13 2 2 3 -1 -4
1532262419810187 -1 5 -54 -12 0 -1 1 -2
1532262419855067 -1 2 30 -4 2 -2 1 1
1532262419884986 12 0 -18 -6 -8 -4 -3 0
1532262419914906 1 12 43 24 14 5 2 1
1532262419959787 0 -39 -22 -2 -2 1 1 2
1532262420065504 -2 -2 -65 -4 -6 -1 -2 -2
1532262420087445 1 4 -14 13 6 1 2 3
1532262420147509 6 -6 1 -6 -6 -5 -3 1
1532262420185408 2 28 19 -1 5 -2 -2 -3
1532262420252618 -6 -4 19 10 -1 -1 -1 -2
1532262420342379 -5 -26 1 0 -3 -2 -1 0
1532262420365318 -1 -2 4 -7 -4 0 1 2
1532262420387273 -6 11 -36 -13 -7 -7 -3 -6
1532262420417178 -1 3 5 -22 -2 -1 -1 -1
1532262420462099 2 8 16 2 -2 -3 -2 1
1532262420478056 0 -27 -19 11 5 4 2 -3
1532262420500025 -6 24 -21 -2 -1 -1 1 -3
1532262420544905 -5 8 1 17 0 0 2 -2
1532262420612723 -4 8 24 8 1 -4 -5 -5
1532262420672569 0 6 26 22 4 -3 0 -2
1532262420695509 -2 8 -12 -20 0 5 -1 -2
1532262420740390 6 -5 2 -3 3 -1 -2 1
1532262420792250 -5 7 23 3 -8 -5 -2 0
1532262420815188 -4 -4 -15 -2 3 5 0 -2
1532262420830149 -1 33 5 0 -1 -4 -4 -2
1532262420875028 -4 -21 -15 4 3 0 -3 -2
1532262420927887 -7 -8 11 -6 2 -1 1 -1
1532262420949828 5 4 -13 6 3 -2 1 1
1532262421009669 1 0 -10 -3 -3 0 -1 1
1532262421032607 0 -3 11 -7 -7 -5 -2 -1
1532262421047567 -5 2 5 -4 -1 2 2 -1
1532262421092447 1 3 21 -7 -5 -4 -1 0
1532262421115385 -4 -18 -30 -5 -2 0 0 -2
1532262421175225 2 6 11 -1 -3 0 0 1
1532262421228084 -3 -2 1 -2 -1 -3 -1 -3
1532262421272964 0 -8 -1 -7 -2 0 -1 -2
1532262421302884 -6 -17 7 -16 -8 -2 0 -3
1532262421332804 -2 -8 -12 -1 -1 -3 1 -1
1532262421377685 3 0 12 5 3 0 0 0
1532262421399626 -3 -29 -19 -7 -2 1 -2 -2
1532262421431541 0 -7 -31 2 4 24 7 2
1532262421520303 -1 2 -8 3 3 0 -4 -2
1532262421573168 -3 -3 8 1 5 21 2 2
1532262421610063 -3 -3 41 0 0 2 1 -2
1532262421692842 1 1 33 -3 0 -10 -3 -1
1532262421731738 -2 -10 39 1 1 -13 0 -4
1532262421767642 -2 7 21 4 0 7 0 1
1532262421805540 -2 8 11 0 -1 -4 -1 -1
1532262421835460 -2 3 32 1 -2 -3 -3 -2
1532262421872361 -1 -2 3 -1 1 6 1 0
1532262421888350 0 -5 -9 -4 -2 -2 -2 -1
1532262421925247 2 9 11 3 0 0 3 1
1532262421962148 0 6 2 1 -1 -6 -1 1
1532262421977108 -2 -2 -36 -3 -1 15 4 2
1532262422008069 -1 -5 2 0 2 2 3 3
1532262422052936 -1 -17 -5 0 1 -4 -2 -1
1532262422104797 -2 3 18 2 1 4 -2 -1
1532262422157656 0 -1 12 2 1 8 0 0
1532262422195554 1 3 20 -2 -1 -1 -1 0
1532262422232455 1 5 15 -1 -2 -20 -5 -3
1532262422262375 -1 3 3 0 0 10 2 -2
1532262422292295 1 0 -8 -6 -4 -2 0 4
1532262422315240 -1 0 4 3 0 8 0 -2
1532262422352142 -1 -5 -19 -2 0 -8 -1 -1
1532262422404991 -2 -4 32 0 0 -1 0 2
1532262422419950 -1 -6 7 -3 -1 8 0 0
1532262422487769 0 -1 -1 -4 -1 5 2 0
1532262422509710 -1 -4 17 3 0 -1 0 -1
1532262422555588 -2 1 0 -2 -1 0 1 -2
1532262422585507 0 5 7 -1 -3 0 -1 0
1532262422630388 1 5 32 2 4 5 2 -2
1532262422652329 1 19 -13 -34 -8 -6 -2 1
1532262422682249 0 -5 -25 18 14 2 0 -2
1532262422712169 -12 0 -52 -16 -54 -1 -1 -3
1532262422809908 -40 10 27 7 18 -9 3 -3
1532262422832846 -91 -30 -23 -21 35 2 -5 -11
1532262422862766 21 -6 12 -6 -20 -18 0 -1
1532262422900669 -4 6 -5 5 12 3 5 4
1532262422922606 -6 4 -6 0 -3 1 10 0
1532262422960557 11 -6 -33 -10 -12 3 17 -5
1532262422975504 -7 3 41 2 -4 -6 -10 -2
1532262422990478 -9 9 -2 3 -3 -8 -16 1
1532262423027369 -1 -2 -14 -10 -10 -24 -8 2
1532262423057286 -8 -2 -1 -2 -1 10 2 -5
1532262423087205 13 -2 -12 -1 5 5 10 2
1532262423110144 -8 2 1 -13 -8 7 5 0
1532262423133082 -15 -13 16 -25 -11 -5 -3 -3
1532262423184944 3 -1 -49 4 2 5 -2 -2
1532262423222852 -7 0 41 12 5 -1 0 -1
1532262423259744 -1 3 12 3 6 2 2 -3
1532262423274704 3 -1 -4 2 -1 -50 1 -1
1532262423312603 -5 -2 0 -4 1 23 0 3
1532262423327563 1 0 3 1 1 0 -3 -2
1532262423365461 9 -3 -2 -5 -5 6 -4 -4
1532262423387434 6 2 -16 -15 -6 -3 -1 -6
1532262423425332 -2 1 -5 -5 -8 4 -2 2
1532262423456249 3 7 49 7 -1 4 0 -1
1532262423538046 -37 -32 -23 7 6 0 -4 -14
1532262423574932 -6 -6 -28 -3 0 2 -1 -2
1532262423664692 25 -6 -3 -8 -2 3 9 11
1532262423679652 7 -6 2 2 -1 -3 -9 -5
1532262423710570 14 -1 4 1 3 0 2 -3
1532262423747469 -8 1 23 -16 -14 -14 5 -1
1532262423762430 -63 -97 -31 -10 -6 -8 -2 -1
1532262423800329 17 11 10 -6 0 7 25 68
1532262423815288 25 33 2 -16 -11 -8 -36 -52
1532262423852190 10 6 4 21 8 7 0 -32
1532262423905049 -13 -9 0 5 -3 -11 -56 -30
1532262423942947 -37 -56 -18 -16 -14 3 10 1
1532262424024729 -35 3 22 -39 -6 -6 12 -12
1532262424100526 -35 8 11 1 -3 19 43 70
1532262424205246 5 -49 -1 -4 -9 -10 -21 -54
1532262424332905 37 23 11 15 9 4 2 44
1532262424384766 41 80 30 7 -21 -11 -8 -58
1532262424497465 -16 -28 -11 -50 0 1 -2 -5
1532262424527384 12 20 16 23 3 -10 2 2
1532262424557316 -8 -3 -8 -10 7 52 52 113
1532262424580243 66 6 -2 -3 -11 -76 -77 -64
1532262424610163 34 1 2 1 -2 10 28 41
1532262424648071 -34 -31 7 -29 -3 10 23 -42
1532262424737880 -28 -29 -52 -64 -26 -12 -2 -13
1532262424782756 14 29 10 -4 -1 -5 0 5
1532262424850574 -2 27 18 3 1 -1 -1 -1
1532262424911411 -3 -16 3 -5 -1 0 0 2
1532262424977236 -1 -7 3 -22 -4 1 1 -1
1532262425067992 2 -15 -8 13 3 1 0 1
1532262425104894 -29 -14 19 7 1 -1 1 -3
1532262425149774 -4 -30 -68 -17 -10 -1 -1 2
1532262425194654 -5 -3 -12 4 1 -1 -1 -2
1532262425232553 -5 -19 -8 -7 1 1 2 1
1532262425300371 -2 -3 -3 8 4 -3 -2 0
1532262425331288 0 -10 15 -3 -4 -1 0 -1
1532262425405092 -1 7 27 8 1 5 3 -5
1532262425429028 0 4 30 2 1 1 2 2
1532262425472921 5 -31 -14 -1 -3 -7 -2 -4
1532262425524775 -1 -3 1 -3 2 -1 -2 2
1532262425577629 0 -16 -43 -7 -3 -1 -1 -2
1532262425615529 -4 11 12 3 1 -3 -3 -3
1532262425667390 4 -14 -10 10 1 -4 -3 1
1532262425690328 1 -12 -23 -6 -5 -1 -1 1
1532262425742190 2 10 4 -4 -2 -4 -2 1
1532262425847907 -1 19 -9 0 1 1 -1 -2
1532262425900151 -5 2 -3 1 2 0 1 -2
1532262425923102 -4 9 61 3 -1 1 -1 -1
1532262425953010 1 -29 -32 -4 -4 -3 -2 -1
1532262426019831 -3 3 -4 0 0 3 -5 2
1532262426042770 -4 -6 -34 -1 2 2 -12 -1
1532262426094631 -5 3 15 -4 -3 -1 1 -3
1532262426125549 0 -6 11 1 2 2 3 2
1532262426177410 -3 9 -4 0 2 1 2 -2
1532262426216311 -2 1 4 3 1 1 1 4
1532262426239244 -3 -21 -57 6 0 0 1 -2
1532262426252239 1 7 31 12 2 -1 1 2
1532262426290139 1 -7 -67 -10 -2 -1 0 1
1532262426313088 0 3 -22 6 8 26 12 1
1532262426357957 2 26 79 3 -2 -7 -2 7
1532262426394858 11 2 1 1 5 18 20 6
1532262426469658 -12 -16 11 1 1 -35 -16 -16
1532262426515535 1 -10 49 3 2 -3 1 2
1532262426539471 1 -2 -11 6 4 1 0 5
1532262426560415 -1 1 14 10 3 1 0 -1
1532262426642196 -2 5 -24 -1 -2 -3 0 -4
1532262426673114 -1 -5 6 -4 -2 -1 0 0
1532262426718992 -1 -1 3 6 0 -2 0 2
1532262426739942 -9 -9 -9 -31 -6 -4 -2 -4
1532262426754896 9 1 -6 4 -2 -1 -1 -1
1532262426784816 6 1 -8 -27 -6 -2 0 0
1532262426807753 7 3 -1 -2 0 0 1 0
1532262426837674 3 0 1 18 4 2 2 5
1532262426852634 -7 -7 -24 -16 -9 -5 -4 -7
1532262426867594 13 10 15 18 4 2 0 -2
1532262426935413 -5 0 4 -6 -2 -2 -1 2
1532262426959349 6 1 23 -1 0 3 1 -2
1532262427055093 1 3 9 5 3 0 -3 -4
1532262427099973 -23 -5 -12 0 -2 -1 -6 -7
1532262427152832 -5 -6 -3 -6 0 1 5 1
1532262427189736 16 3 8 -14 3 1 -2 -3
1532262427204693 43 5 -4 -12 -7 -1 0 4
1532262427257551 -51 2 3 22 2 0 1 -4
1532262427287471 76 -2 2 0 -2 -2 -1 11
1532262427385217 -11 6 3 16 2 -2 2 7
1532262427438070 13 12 15 17 10 1 1 -2
1532262427474974 -6 -5 -5 -6 0 1 -4 -11
1532262427534810 0 -5 3 7 1 -1 -9 -21
1532262427557748 -10 7 -10 2 1 9 3 -1
1532262427618586 10 1 6 7 -3 -21 -4 -4
1532262427662468 -15 -4 -11 -21 -5 -3 -3 -2
1532262427685406 14 8 7 -3 -2 -5 3 12
1532262427752229 -11 -1 1 2 0 0 0 -7
1532262427767188 -6 1 0 1 1 2 0 3
1532262427829036 20 -3 -2 -1 -5 0 -2 -2
1532262427879887 1 2 3 0 0 -2 0 -1
1532262427894847 -8 2 0 0 -1 0 -2 2
1532262427962666 -2 5 108 5 4 0 2 0
1532262427977625 -2 -9 5 -2 0 -1 -1 -1
1532262428015524 -5 -41 16 0 0 7 0 -1
1532262428037465 -7 -18 115 18 7 -3 0 -2
1532262428090324 -1 -14 -83 -6 2 0 3 -1
1532262428181082 1 14 -32 6 7 17 5 2
1532262428232943 -3 -3 0 -6 -4 3 -3 2
1532262428254884 2 9 -27 -19 -7 -14 -1 0
1532262428307743 0 13 77 8 -2 -7 -2 -1
1532262428322703 1 4 -31 -1 -2 -3 -1 6
1532262428367583 -4 -4 15 -2 2 17 1 -1
1532262428420441 -1 5 -13 9 -1 0 -3 -1
1532262428442383 0 -3 -15 5 2 5 1 -2
1532262428465322 -2 1 22 -5 -1 9 3 5
1532262428487263 -2 -5 20 6 1 -9 4 0
1532262428532143 1 1 6 6 0 2 -1 1
1532262428592980 -3 -1 22 1 -2 -1 -1 -13
1532262428727620 -1 -5 -18 13 7 6 -1 -3
1532262428795439 0 -5 6 10 -4 -12 1 10
1532262428825358 -8 -7 -38 -1 0 6 1 0
1532262428870239 0 1 -8 -3 1 -4 1 -5
1532262428893180 -2 -5 -30 5 2 0 0 -3
1532262428930079 -9 -18 -9 -8 -4 -3 0 0
1532262428953018 2 2 29 6 -1 0 3 8
1532262428974959 2 0 -16 5 1 -2 -2 0
1532262429027818 1 1 4 -11 -2 -1 1 3
1532262429051753 -1 -1 -5 -7 -4 -2 0 -1
1532262429094639 0 -4 -1 1 0 -4 -1 -1
1532262429132537 -1 3 27 3 -1 -2 -1 -2
1532262429155477 0 5 22 -1 0 2 -1 -2
1532262429185396 -3 -6 -17 -2 0 -1 0 -1
1532262429207338 -1 -5 15 -18 -9 -3 -1 -1
1532262429252217 -4 34 -50 14 3 0 0 -1
1532262429275155 9 -17 -21 11 4 3 1 0
1532262429298102 -1 0 0 18 6 1 2 -1
1532262429349956 2 1 24 -4 -2 0 0 -2
1532262429402815 0 -8 7 1 -2 1 -1 1
1532262429439716 7 3 10 -6 -2 -3 -1 0
1532262429530474 -32 -10 1 6 5 7 1 -5
1532262429695033 -6 0 0 5 9 7 4 7
1532262429717972 -2 0 0 -2 0 -2 -2 2
1532262429769833 -19 -6 -15 0 0 6 1 -11
1532262429822692 -9 -5 -3 5 3 3 1 3
1532262429897492 -2 9 -10 -15 -9 -6 -2 -2
1532262429920430 5 29 -8 21 12 6 2 0
1532262429972292 -4 -21 -34 -7 0 5 4 -1
1532262429987252 -2 -5 -3 -6 0 -1 -1 0
1532262430025150 5 4 -19 5 -3 -15 -2 2
1532262430070031 3 4 -6 -2 -7 -22 -3 0
1532262430099950 -6 -6 4 -1 0 7 -2 12
1532262430137849 1 4 4 -1 -6 -22 9 -5
1532262430182729 -4 0 3 -1 1 -50 2 -5
1532262430197689 4 6 10 -4 -6 -31 -5 0
1532262430257542 0 1 -6 -7 -5 -20 -10 -1
1532262430287448 -6 2 35 -4 -5 12 -2 -1
1532262430325348 -1 2 -19 5 1 -5 0 0
1532262430377209 2 14 -34 0 -1 -3 -20 1
1532262430408142 9 6 -19 6 1 -2 1 2
1532262430459987 -2 -29 -6 -5 0 1 6 0
1532262430504867 0 1 7 1 2 1 3 0
1532262430534788 -1 -8 -8 -5 -4 2 -3 -3
1532262430587646 -3 3 3 6 8 6 2 -4
1532262430617566 8 22 -8 3 -5 -4 0 1
1532262430707327 -10 -2 -2 -20 -5 15 110 5
1532262430813044 -7 -89 -3 3 1 -7 -12 -3
1532262430866900 13 38 2 0 5 14 -56 -24
1532262430917764 -8 48 3 1 4 2 -11 -6
1532262430994558 1 33 -9 -6 -6 -18 -1 11
1532262431045422 11 43 17 10 4 5 20 -7
1532262431090302 1 -30 3 0 0 4 -4 -7
1532262431188040 -9 22 -9 -2 -2 2 13 -2
1532262431217961 -2 -52 -7 -9 -5 -1 15 13
1532262431239902 -6 13 -3 -4 -5 -10 -28 -10
1532262431284782 5 -21 12 6 4 -6 -24 -11
1532262431375539 5 -6 -2 -1 2 7 -8 54
1532262431397481 -2 27 9 3 2 6 43 -29
1532262431489235 -4 -20 4 -2 -1 -3 6 47
1532262431511177 11 25 14 3 2 -4 -13 -11
1532262431577998 -2 58 36 -2 -1 2 0 -5
1532262431622878 10 4 -61 -8 -8 -5 -9 17
1532262431644819 0 33 21 7 5 1 6 -1
1532262431727598 1 -3 -5 5 -1 -2 0 -4
1532262431765496 1 -16 1 -6 -1 -4 -3 1
1532262431796413 0 12 -43 -2 0 -2 -2 -7
1532262431847278 2 -7 -22 6 3 1 0 1
1532262431892158 7 11 5 -3 -2 -2 -1 -3
1532262431982915 -7 33 31 9 5 2 4 -8
1532262432140494 -6 0 1 -2 0 -1 3 -8
1532262432267155 -3 -3 -78 -8 -3 0 -2 0
1532262432335971 -9 26 6 3 -2 0 3 2
1532262432372873 1 -29 19 3 1 0 -1 7
1532262432409773 4 5 -21 0 6 2 -9 -87
1532262432554387 -2 -3 6 -1 2 -1 1 -1
1532262432680051 -45 -69 -99 -30 -10 -4 -12 -86
1532262432799731 5 -22 4 1 0 0 4 37
1532262432822669 4 -20 4 -2 -4 -2 7 87
1532262432882510 -3 56 -8 -2 0 0 -4 -25
1532262432905462 4 15 39 -1 -2 -3 -3 -7
1532262432927390 5 -29 -12 -1 0 1 0 5
1532262432980248 -4 -15 -22 -6 1 -2 -3 -17
1532262433010168 2 11 17 9 2 -1 3 27
1532262433048067 12 0 0 2 1 1 3 -11
1532262433114888 3 9 8 0 -2 0 0 -18
1532262433204653 -4 -19 -19 -4 -3 -1 -4 -11
1532262433250526 -8 -13 16 -1 -1 -1 -1 -8
1532262433332307 -2 1 -6 1 1 1 -1 -4
1532262433407107 -1 34 -28 7 1 5 -7 -21
1532262433467944 9 -9 -1 2 -2 0 -1 -2
1532262433504846 -30 -6 3 8 3 1 -3 -24
1532262433527784 4 -5 16 -3 -3 -1 -1 4
1532262433564685 -5 12 -25 0 0 1 -1 1
1532262433587623 12 8 6 5 2 2 2 5
1532262433610568 -3 -13 6 1 -3 -1 -1 6
1532262433692344 2 4 7 -17 -5 -1 -2 3
1532262433760162 1 1 43 -15 -9 -5 -3 -1
1532262433782104 -9 -16 -13 53 18 3 -1 -8
1532262433798061 -2 4 -22 -25 -8 -1 -2 -1
1532262433872871 6 7 7 -49 -29 -7 -1 0
1532262433932702 -14 23 4 28 13 6 1 1
1532262434075319 -3 -15 -41 -7 -3 -1 -2 -4
1532262434127180 -2 -5 -4 4 0 1 -2 3
1532262434174056 -5 3 23 -1 -1 -3 -2 -3
1532262434195000 4 9 11 6 1 2 -1 3
1532262434247858 -2 -15 5 1 0 -10 1 8
1532262434299720 5 5 8 -9 -1 -2 -2 -5
1532262434323656 0 -4 6 -5 -3 0 -2 1
1532262434352578 -2 2 27 2 -2 -2 1 0
1532262434367539 2 5 12 5 -1 -1 0 1
1532262434412418 0 -1 -7 -5 -1 -1 -2 -4
1532262434452311 2 1 5 -2 0 -1 0 0
1532262434525116 10 25 34 10 3 -1 -1 1
1532262434555037 -3 -8 -12 -2 0 2 -1 -4
1532262434569997 6 13 9 7 2 -1 2 -1
1532262434585955 0 3 3 3 1 -1 -1 0
1532262434600915 -2 -3 0 -2 -1 0 -1 -1
1532262434622856 -1 -5 -10 0 -2 -1 0 1
1532262434652775 -3 2 26 5 -1 0 3 0
1532262434682695 2 2 -4 -2 1 20 12 1
1532262434697656 2 4 7 -1 -2 -3 -6 -2
1532262434750514 -2 -2 3 6 2 11 -2 1
1532262434765476 3 -8 -33 -4 -4 2 3 4
1532262434825314 -2 -17 -20 0 -1 -22 -3 0
1532262434840275 0 -5 -15 -2 3 5 -3 0
1532262434862216 -2 3 -2 -4 0 1 1 -1
1532262434908093 3 8 19 1 0 -2 3 1
1532262434923073 3 -1 8 1 3 5 -6 -2
1532262434938013 -2 -11 -62 7 0 -3 -4 0
1532262434967932 2 11 6 6 0 -1 0 0
1532262434989874 -1 -5 -7 -16 -3 0 -1 -2
1532262435012813 -4 -7 22 -5 1 2 1 0
1532262435057693 -1 -11 -19 7 0 -2 -2 -1
1532262435072652 -3 -2 76 -17 -2 0 -1 1
1532262435110551 5 36 10 5 2 -1 0 2
1532262435141468 -26 -36 -95 -4 1 -7 -19 -15
1532262435162413 35 8 49 8 2 14 14 47
1532262435192332 -3 -1 40 -4 -2 33 15 72
1532262435222252 -15 0 21 -12 -6 -6 -12 -7
1532262435237213 -9 -4 54 30 1 -18 -9 -20
1532262435252173 -2 -5 98 22 -11 9 -2 -6

1532262435267133 -12 -14 20 -35 -3 7 0 -19
1532262435328967 4 1 -29 -7 -2 -8 -6 -2
1532262435373848 0 -1 -14 -23 0 0 -1 -2
1532262435387810 0 -2 -52 -3 0 1 0 -1
1532262435409755 2 0 -1 3 -1 -2 0 1
1532262435432690 -1 6 10 -1 -1 3 1 0
1532262435455638 -6 3 -9 -4 -1 -3 -1 -2
1532262435470590 -2 -13 -12 8 7 1 1 -1
1532262435515469 2 -10 -21 -13 -4 -1 -1 1
1532262435545388 -1 -6 4 3 1 -3 0 0
1532262435567330 -1 -1 47 -5 -4 1 -1 0
1532262435582290 -1 -6 -15 -7 2 1 0 1
1532262435605229 -1 10 25 -11 -5 0 0 -2
1532262435635149 -3 -2 -3 -4 1 0 0 1
1532262435688007 2 10 27 9 0 3 5 4
1532262435732887 3 4 -35 3 1 1 -1 -2
1532262435754829 2 21 5 -2 -2 -2 -1 0
1532262435830635 -3 -12 -3 -3 -1 -10 -3 -3
1532262435860546 -3 -9 -10 -7 -4 0 -2 -4
1532262435905426 2 -5 4 -2 -1 3 1 1
1532262435957287 3 -11 -68 0 2 5 4 0
1532262436033084 -6 6 -36 -3 -1 -2 1 0
1532262436099906 1 -8 8 -6 -2 -1 0 0
1532262436129826 1 -6 14 0 -2 -5 -4 -2
1532262436174706 -2 -8 4 2 0 2 1 4
1532262436205634 0 3 -1 -4 -5 -7 -2 0
1532262436250503 -3 -20 -35 0 -2 -2 0 -3
1532262436325302 -3 -30 -15 -7 2 1 1 -3
1532262436370183 0 8 9 3 0 -7 -1 1
1532262436423054 9 7 17 -4 3 -7 -3 1
1532262436467922 -45 -38 -30 -11 -9 5 -7 -35
1532262436482882 17 -7 55 5 2 21 9 7
1532262436497842 2 2 -120 -13 3 1 2 1
1532262436519783 -5 30 -68 47 14 13 2 -6
1532262436557682 3 -1 -1 18 10 -3 0 -3
1532262436572641 -6 -11 -22 14 0 3 -1 -5
1532262436617522 0 5 -5 22 3 -1 0 0
1532262436647442 -5 2 7 1 -2 -4 -2 0
1532262436677362 2 4 21 -3 0 1 0 0
1532262436715260 -4 -1 6 59 6 0 0 -2
1532262436745180 2 -3 -41 -22 -7 -2 -1 0
1532262436783078 0 2 -4 -3 -5 1 0 1
1532262436812999 -8 -5 -7 -14 -5 -3 0 1
1532262436849900 -1 -5 -7 2 -2 -2 0 -1
1532262436872842 -18 8 11 -2 -1 -1 0 -2
1532262436917719 -1 -8 -3 -1 -1 -1 0 0
1532262436939660 -6 0 9 4 2 -1 0 -2
1532262436962599 13 7 7 12 0 -1 -2 3
1532262436985537 9 1 2 2 4 1 1 2
1532262437000497 7 9 8 -2 2 2 0 5
1532262437037399 -8 -18 -20 -17 -6 -5 -3 -1
1532262437180018 15 -1 -5 -8 -1 0 1 3
1532262437194983 -15 -13 -6 3 -2 -3 -1 0
1532262437345575 2 2 -1 5 2 1 9 -5
1532262437427356 18 13 0 46 8 3 -2 10
1532262437472236 2 -4 8 -19 -3 0 0 10
1532262437495174 -4 3 -7 -34 -5 -3 -8 -14
1532262437644775 24 13 4 11 7 4 2 14
1532262437705623 -22 8 6 -18 -1 -2 0 -16
1532262437742514 -9 2 -6 -1 1 -8 -11 -19
1532262437757473 -1 -23 -47 -31 -7 0 -2 -3
1532262437780412 -5 5 11 3 -2 -1 -3 3
1532262437832273 -10 -2 0 5 2 4 -2 4
1532262437870172 -5 13 77 4 0 4 1 -1
1532262437915052 -9 -62 19 -15 -7 12 -3 -3
1532262437974892 1 -40 -80 7 6 44 8 1
1532262438027750 1 34 0 6 -2 1 -2 -1
1532262438051687 4 20 70 0 -2 9 5 0
1532262438095569 3 26 -17 0 -2 -9 -3 0
1532262438140449 -1 -6 3 -18 -8 2 -1 -3
1532262438246179 1 3 -26 7 -1 1 -1 1
1532262438260130 3 5 20 13 -1 2 -2 1
1532262438283068 -1 12 15 10 1 7 3 0
1532262438305009 -1 -2 -64 2 -2 -5 -2 0
1532262438319969 -2 -8 33 0 -4 3 1 -4
1532262438357868 1 6 44 -1 1 -11 -1 1
1532262438441644 0 1 -2 5 2 13 1 -1
1532262438507468 -1 -3 6 5 -4 -5 -1 -1
1532262438560327 0 -2 -26 1 -1 3 2 -2
1532262438642108 2 -2 -5 -3 1 1 0 2
1532262438687985 0 -5 11 1 0 -3 -1 0
1532262438792705 -1 4 -1 -1 -1 1 0 -2
1532262438831601 3 -5 -2 2 -1 -2 -1 0
1532262439002145 0 0 -1 2 0 0 -3 0
1532262439107862 0 6 35 -11 -3 -2 -3 -1
1532262439212582 -2 1 -23 7 0 1 -2 -2
1532262439280401 -1 -5 -3 -3 1 1 -2 -3
1532262439319297 -1 0 -28 16 1 -1 -2 -1
1532262439340241 -3 -4 8 3 1 0 0 0
1532262439385121 0 4 -7 3 0 0 -1 -1
1532262439459921 -3 -4 10 -5 -1 -3 -1 -1
1532262439489856 4 2 3 -2 0 -1 2 1
1532262439564640 10 3 -3 0 -2 3 0 2
1532262439587580 0 0 3 -13 -1 -6 -2 2
1532262439617500 -3 -9 -9 2 1 1 -1 1
1532262439640438 -14 -12 -19 1 2 -3 -6 -13
1532262439685318 -24 11 22 6 0 2 -2 -16
1532262439700278 -18 -10 15 4 -3 -3 -1 1
1532262439775078 14 2 -10 1 2 -3 -1 -2
1532262439843894 9 6 5 5 1 -1 2 4
1532262439902737 10 -2 6 0 -5 -10 1 8
1532262439962577 8 -13 8 -9 12 10 -1 -8
1532262439977536 7 7 5 18 5 -4 2 4
1532262440022416 5 10 12 13 1 -2 -1 0
1532262440052337 2 12 24 6 -1 2 -2 -4
1532262440105195 3 0 -13 1 3 -13 11 16
1532262440127137 17 2 -25 -1 5 64 15 21
1532262440194956 14 2 -1 2 17 12 8 6
1532262440247814 -12 -4 54 40 18 14 5 -1
1532262440269755 -2 7 -12 13 4 1 -3 0
1532262440292694 -2 0 -25 14 1 -27 -2 0
1532262440314635 1 10 30 -4 -2 -50 7 1
1532262440352533 0 2 4 -1 -6 -37 -8 9
1532262440375473 -5 5 11 4 1 -14 -2 3
1532262440397413 0 1 9 3 -3 -18 -4 -5
1532262440472213 5 8 -30 -37 -8 2 -2 -7
1532262440518091 -3 1 -6 0 -5 -8 -2 -1
1532262440533051 -1 -1 13 0 2 -1 -2 0
1532262440569952 -1 -6 -12 -10 -11 -34 -12 0
1532262440599872 0 1 3 4 4 -28 -13 -2
1532262440614832 0 0 -5 -7 -8 -24 -14 -11
1532262440659713 -4 6 6 0 -7 -32 -3 3
1532262440674673 -2 -8 -2 -5 1 49 18 4
1532262440720550 1 -1 7 8 -1 -2 -4 -5
1532262440742491 3 -3 -3 1 1 6 2 4
1532262440795350 -1 -21 37 -11 0 2 2 -2
1532262440827265 4 11 -5 9 -4 -8 -5 12
1532262440885109 -10 10 -5 -4 -5 -4 -12 -15
1532262440959909 -8 -51 -16 -8 -1 -9 -9 -5
1532262440997808 -4 -123 -10 1 8 20 -9 40
1532262441049669 4 -6 1 -1 -7 -17 -66 27
1532262441064630 -1 18 -19 -5 -1 8 -7 11
1532262441080587 3 18 -2 -2 0 -1 -4 35
1532262441102528 -1 -7 -2 -2 -5 -10 -54 -13
1532262441125467 3 -68 16 -1 0 7 55 -40
1532262441222209 -7 -17 -15 -9 -6 0 52 -27
1532262441253126 21 13 7 1 0 5 42 17
1532262441275067 1 15 3 3 3 25 49 -3
1532262441298006 -5 -21 3 1 1 -5 -27 -7
1532262441312966 -17 50 -10 -4 -2 0 18 -3
1532262441342885 -3 -76 11 6 1 -4 29 5
1532262441364827 25 63 14 3 3 2 -25 32
1532262441387765 5 18 11 2 2 -3 -7 -22
1532262441492485 -16 -23 2 0 0 0 17 0
1532262441560304 -6 48 -5 -1 -3 4 -12 7
1532262441635104 7 20 16 -2 -3 -4 -24 -5
1532262441703920 -8 -27 -11 -7 -2 3 -11 -10
1532262441762763 -2 -2 -9 -4 -3 -3 -6 -15
1532262441801659 -1 -13 4 3 0 -1 0 10
1532262441845541 5 41 -33 -1 0 1 0 9
1532262441860502 0 -12 -23 1 0 -1 1 27
1532262441907377 -1 11 -31 0 1 -2 -3 -14
1532262442062960 -3 28 50 5 -1 -2 -3 -11
1532262442114822 -18 -9 17 1 -3 -3 2 -40
1532262442182640 2 8 4 2 3 2 3 -73
1532262442235499 -8 65 26 -1 0 1 -2 29
1532262442295339 9 3 -107 -9 -3 1 1 -8
1532262442355178 14 -2 -54 -1 3 5 1 2
1532262442408038 47 28 78 30 9 2 8 122
1532262442459899 -29 60 -27 -12 -6 -2 -17 -107
1532262442534699 -8 -57 6 -8 -4 -2 3 1
1532262442617477 -8 -13 13 0 1 2 3 -52
1532262442692278 1 15 -2 9 3 1 2 14
1532262442745148 -4 -77 -76 -21 -5 3 -2 -68
1532262442798001 -4 16 8 1 -3 -3 -8 -22
1532262442955573 8 0 -1 -2 -1 -1 -6 70
1532262443007435 -22 -36 -32 4 2 1 0 -23
1532262443022394 4 17 -16 0 0 0 -7 -15
1532262443052315 -2 -9 10 2 3 3 2 0
1532262443105186 0 -10 -32 -3 -1 -1 2 -7
1532262443150053 -16 -6 -16 -7 1 -3 -8 -85
1532262443165013 3 13 -1 1 -3 -1 3 -2
1532262443202912 4 18 3 0 -2 3 3 13
1532262443224853 -2 0 1 -4 -1 1 8 17
1532262443243802 0 5 17 -4 -1 1 0 0
1532262443300650 -5 -23 -10 1 0 1 0 9
1532262443322592 -11 4 3 5 1 0 8 -11
1532262443405370 5 -18 -26 -3 -3 -1 0 -1
1532262443442272 -1 8 8 -9 -3 -2 -1 -2
1532262443457258 5 2 33 3 2 1 2 0
1532262443480175 9 10 -1 2 4 -1 3 1
1532262443554970 0 1 -6 0 -1 1 -2 -2
1532262443584890 -1 4 25 -1 -2 -1 1 4
1532262443652708 11 -13 -5 -1 -3 0 0 6
1532262443832229 -1 28 9 1 -2 -1 0 -3
1532262443915008 -4 -12 -7 22 6 2 1 -1
1532262443997787 0 -7 -30 2 2 -3 -1 1
1532262444034688 0 0 6 9 2 -1 -1 -1
1532262444066603 9 14 27 8 1 -2 -3 3
1532262444110485 -5 -8 -29 -5 -2 -2 0 -2
1532262444132425 -5 -5 -11 -1 -1 -1 -1 -1
1532262444313941 -8 -18 -9 -11 -7 -20 -3 0
1532262444357824 4 17 5 0 -2 -12 0 0
1532262444424646 5 7 4 0 -2 -2 -1 -7
1532262444486479 -4 -22 -28 -2 -1 1 1 5
1532262444507435 -3 -9 -7 -6 -3 -1 -2 -16
1532262444537343 3 17 30 8 1 -3 2 8
1532262444582224 2 2 -4 3 -1 3 1 -6
1532262444605161 -1 -6 0 -2 -2 -18 -5 -1
1532262444628101 -9 -13 -8 -7 -3 -15 -4 -3
1532262444658020 0 -1 2 0 -2 1 -2 -5
1532262444687940 -1 2 3 -2 -2 3 0 0
1532262444724842 1 8 2 0 -1 -1 0 -2
1532262444754762 1 4 2 2 -1 1 -3 -4
1532262444786678 -2 -7 3 1 1 2 0 -2
1532262444831557 0 -3 -12 1 -2 -1 -5 -4
1532262444852501 -5 -27 -5 1 -1 9 2 1
1532262444890419 4 10 0 -2 -3 17 -7 -1
1532262444905359 -1 -9 -11 2 3 6 3 1
1532262444942260 1 8 32 -1 -2 -10 -2 0
1532262444980159 2 21 -1 0 0 -1 2 -1
1532262444995118 -2 18 65 -3 -6 1 -4 -2
1532262445063945 -1 -16 -78 2 4 2 2 -1
1532262445099840 -5 -8 28 -1 1 0 1 0
1532262445122778 -1 -10 -7 2 2 -1 2 2
1532262445189600 -1 -6 -68 -4 -1 0 -3 -2
1532262445212538 1 5 1 1 -1 -1 1 2
1532262445242458 1 -2 -4 -5 -3 -1 0 -1
1532262445310277 3 5 -25 -10 -2 -3 -1 0

1532262445602495 0 5 -9 4 2 2 -1 -2
1532262445677294 0 2 -34 -6 -4 1 -4 -6
1532262445864794 -2 0 -5 -2 0 5 1 0
1532262446030351 -5 7 0 0 -1 -2 -1 1
1532262446172986 -3 -2 -15 -1 -1 0 -1 -1
1532262446277690 0 5 25 4 1 9 1 -2
1532262446292650 -1 5 10 -1 -2 2 1 1
1532262446314591 2 0 9 -1 -3 -4 0 1
1532262446337529 -2 3 -5 0 0 -3 -2 -2
1532262446352489 0 -12 -26 2 3 3 2 2
1532262446382409 -2 10 16 -1 -2 7 0 0
1532262446427289 0 -1 -4 -3 -4 1 2 2
1532262446502089 2 -6 -10 -3 -3 -5 -1 1
1532262446547967 0 4 13 1 -2 1 -1 -1
1532262446562927 -1 1 15 -1 -2 -5 -1 0
1532262446584868 0 -3 5 4 2 1 -1 -1
1532262446614788 -4 0 -13 0 0 3 -1 -2
1532262446659668 -2 0 -1 -2 0 0 0 -1
1532262446675638 1 1 11 1 2 4 0 0
1532262446721502 -5 -24 -32 -7 0 -1 2 -2
1532262446765385 -2 -7 -14 3 1 1 1 0
1532262446780345 -3 5 37 -3 1 -2 -1 -2
1532262446802287 1 4 -6 0 0 0 0 -1
1532262446825243 0 -3 -17 5 2 -8 2 0
1532262446840204 1 3 -12 1 -1 -2 0 1
1532262446862144 -2 -2 -2 2 1 -2 -2 -1
1532262446908053 -4 -6 -10 -2 -2 -7 0 -2
1532262446952932 2 -4 3 2 1 -2 -2 0
1532262446989839 0 14 -40 34 10 2 2 2
1532262447012776 1 13 58 10 0 -6 -6 4
1532262447034714 5 -1 -41 -8 2 26 1 0
1532262447079594 -5 -22 -35 -7 -3 -20 -2 -5
1532262447132453 11 -34 -23 -11 -14 -49 -18 70
1532262447147413 -6 10 -3 -3 -11 -23 -10 5
1532262447200271 6 18 -66 -45 -2 7 3 4
1532262447245151 -3 10 -52 5 -7 -3 0 9
1532262447327929 -5 19 92 40 16 5 2 0
1532262447387769 2 -1 -1 -4 -1 -1 0 1
1532262447409711 -1 12 -14 -1 -3 -3 0 1
1532262447455602 2 1 3 16 4 1 1 0
1532262447477530 -3 -8 5 3 3 3 1 -1
1532262447522410 -1 -4 -6 1 0 1 0 -2
1532262447545349 -6 -11 -19 -10 -3 -2 -3 -5
1532262447567290 1 6 1 1 -3 -3 -1 0
1532262447605189 6 5 13 6 -1 0 1 1
1532262447643087 -2 0 5 4 -1 -1 -2 0
1532262447658047 1 -4 -14 -1 -3 -1 0 -2
1532262447679988 0 0 5 -7 -5 0 -2 -1
1532262447694948 4 -3 -4 -1 2 1 -1 1
1532262447732847 0 15 20 7 1 -1 1 0
1532262447762767 -3 -4 0 3 2 0 -1 0
1532262447777727 0 -53 21 -7 -2 -1 -1 -1
1532262447807647 -4 -12 -2 -4 0 1 1 -1
1532262447822620 1 0 -8 1 -1 -2 -1 0
1532262447860506 6 10 24 11 -1 -1 1 4
1532262447897407 -12 5 -19 11 6 3 0 -3
1532262447942287 6 26 6 8 3 0 0 1
1532262448054985 4 19 21 23 6 2 2 3
1532262448092884 11 24 27 -8 -4 -2 14 -2
1532262448122805 -10 6 -6 -38 -8 0 6 -6
1532262448152724 2 0 -6 -3 -7 -4 -1 -4
1532262448167684 -4 -17 -22 7 2 2 12 1
1532262448205583 0 -21 -24 4 4 -1 -24 -27
1532262448235502 16 -2 -10 -4 -8 -4 14 -2
1532262448280383 -20 4 48 6 -5 -26 -19 -11
1532262448295343 47 19 23 6 -4 -4 -1 18
1532262448363161 -70 4 8 -18 -1 2 10 9
1532262448482842 81 5 -5 -45 -12 -2 -4 2
1532262448519743 8 -7 6 -13 -6 -2 -3 -5
1532262448566618 -21 -3 14 -19 -4 -4 2 -9
1532262448625460 -25 13 4 43 11 3 38 12
1532262448655380 -21 -1 -29 -20 -5 -4 -9 -2
1532262448692281 24 -11 4 -1 3 1 -18 3
1532262448707241 2 20 6 -17 -5 -4 2 -1
1532262448738168 14 15 0 -7 2 8 3 -10
1532262448775060 16 -20 -5 -24 -9 -2 -62 1
1532262448827918 -15 -10 -12 -10 -1 -3 -9 -3
1532262448872799 22 -18 -4 9 4 2 -18 1
1532262448894751 -5 0 -1 2 4 -5 4 0
1532262448932638 -37 -7 -6 3 -2 -8 3 -4
1532262449000457 5 6 9 4 0 -4 -2 2
1532262449135098 -1 7 25 7 -1 -5 0 -2
1532262449187956 -1 12 -32 3 3 4 0 -1
1532262449203913 1 9 -15 2 1 31 2 1
1532262449217876 3 20 -20 3 10 0 0 3
1532262449324591 -2 3 74 -4 -5 -3 -2 -3
1532262449352515 1 8 -38 6 2 4 -1 -1
1532262449375454 2 10 -2 10 4 -18 -5 0
1532262449397396 -2 2 -44 -18 -1 -3 -3 -2
1532262449427316 1 -3 -54 -6 -2 12 -1 1
1532262449465215 2 6 -44 5 -1 -1 -1 1
1532262449480175 -3 -6 31 -5 -2 -17 1 1
1532262449525055 -1 -11 -32 0 0 4 7 0
1532262449547993 1 -5 -9 -1 -1 0 -4 0
1532262449562953 0 5 44 -6 -1 -7 0 -1
1532262449607834 1 -2 -7 7 -2 -10 0 0
1532262449637753 -1 -3 -36 11 1 -25 -2 -1
1532262449689614 -1 4 3 -4 -2 -6 -2 -2
1532262449735492 2 5 28 4 -2 -3 -3 0
1532262449787353 -4 -1 15 14 0 3 0 -1
1532262449952910 -3 4 32 7 4 -1 -1 -3
1532262450019731 -1 3 1 -5 -4 -6 -2 0
1532262450117470 -1 -2 -1 -2 1 -3 -1 1
1532262450162350 1 4 6 -3 -5 -1 -1 0
1532262450230168 1 2 21 4 1 -2 -1 3
1532262450260089 -3 5 -6 10 -1 -2 -1 -6
1532262450312948 -1 2 12 -28 -7 -3 0 -1
1532262450364809 -1 -3 -2 1 -1 -1 -1 -1
1532262450440606 0 2 9 3 1 -1 -1 -1
1532262450500446 0 2 -5 -1 -1 -1 0 -2
1532262450530366 1 6 6 -5 -3 -2 -1 -1
1532262450575246 -2 20 -15 -37 -2 1 2 -1
1532262450635086 3 -27 21 43 9 0 0 0
1532262450665006 6 -4 -17 -35 -5 -3 0 2
1532262450784685 -2 -3 1 12 1 0 -4 -17
1532262450815603 6 -5 6 5 -2 -4 -4 2
1532262450912345 3 1 -5 -4 -2 -1 2 0
1532262451003102 10 -6 3 0 0 7 9 0
1532262451048980 -10 -45 -9 -9 -7 -3 0 7
1532262451114804 2 20 -43 8 1 0 0 4
1532262451152702 2 9 21 -4 -5 -5 0 1
1532262451205561 4 3 3 0 2 -36 -17 -43
1532262451272399 -7 0 4 -5 -7 -25 -2 4
1532262451295321 10 -2 -2 -16 -2 -7 -7 7
1532262451377102 7 14 -4 0 0 5 0 8
1532262451415000 -3 0 32 11 9 2 2 2
1532262451452899 2 3 -2 -1 -4 -7 -2 17
1532262451474851 0 -4 3 4 8 43 3 1
1532262451497779 -9 -3 -4 0 -6 -99 -13 -3
1532262451572579 -5 6 -1 -5 1 -23 0 -9
1532262451632420 -9 -10 -28 0 0 -4 2 -4
1532262451670318 -2 -35 -37 -19 -2 3 0 2
1532262451692259 1 33 72 10 1 4 -1 10
1532262451760078 3 -54 -1 -3 -5 -1 -4 -23
1532262451864798 -5 84 22 -7 -8 -7 -7 -8
1532262451955555 -12 -48 -4 -2 -6 -17 -51 -8
1532262452000435 -3 -31 6 11 5 -20 -34 -10
1532262452052297 14 -18 8 4 4 -4 12 12
1532262452069251 13 -40 9 -1 1 6 -11 -1
1532262452097176 14 25 14 12 9 3 -16 2
1532262452128094 -14 31 -14 -7 -5 -2 -27 -17
1532262452217854 11 31 8 5 0 -1 5 0
1532262452308611 6 -1 1 1 2 7 3 -13
1532262452382413 -6 -58 6 9 7 5 -20 13
1532262452450232 10 29 7 6 3 6 17 0
1532262452554952 -2 -81 -17 -5 -3 -4 -8 -6
1532262452614792 -3 -32 2 4 0 -1 31 15
1532262452697571 6 16 -8 -2 -2 3 10 13
1532262452787331 13 63 42 4 1 1 -1 6
1532262452878088 -1 -43 -2 -1 2 0 0 -3
1532262453072568 -1 26 14 4 1 1 7 32
1532262453095507 7 -16 -37 0 1 1 -2 34
1532262453185267 3 -60 -29 0 -4 -1 -1 -22
1532262453207209 -1 -1 7 1 0 1 -2 -19
1532262453268045 3 0 -31 -9 -7 -5 -3 -6
1532262453312926 3 20 40 8 1 -1 -3 -24
1532262453327885 -6 0 -88 -6 -1 1 1 12
1532262453367779 7 -4 -65 -5 2 2 2 -5
1532262453387725 -5 -50 -5 0 -1 -1 2 -2
1532262453417645 30 39 -46 -10 2 2 4 -8
1532262453440584 30 16 2 6 4 0 -9 -6
1532262453470504 -70 -47 -60 -25 -12 -9 6 -71
1532262453515384 -13 -9 10 2 -4 -5 -3 -37
1532262453545304 10 32 11 1 -1 1 0 35
1532262453614120 5 28 22 2 1 -1 -2 73
1532262453635064 4 -7 32 3 -1 1 -4 38
1532262453739784 18 96 -5 6 -6 0 4 19
1532262453837523 8 29 -5 1 -1 2 24 106
1532262453912323 0 -2 11 2 1 -3 -2 2
1532262453927282 -15 -3 -1 -6 -3 -3 -4 19
1532262454003080 -3 8 15 -2 -2 -1 -1 14
1532262454047959 -1 -24 -4 -1 -2 -2 -1 -13
1532262454069901 12 -5 6 0 -2 -2 -3 13
1532262454092840 -7 3 -7 -3 -1 -1 -2 -10
1532262454129741 6 9 5 -2 -2 -2 0 9
1532262454167639 -2 7 9 5 1 -2 2 -8
1532262454197559 14 33 17 2 0 0 7 36
1532262454220498 -6 -24 -3 1 0 2 1 -5
1532262454272360 -4 25 13 1 -1 -2 -1 -11
1532262454332199 -4 -4 5 -4 -2 -2 -3 -5
1532262454355138 -2 11 4 -5 -2 0 -1 -2
1532262454400018 0 1 -1 2 -1 -2 0 0
1532262454467837 -13 -6 18 -2 -1 0 -1 -15
1532262454519698 -5 -26 -38 -8 -8 -6 -1 -14
1532262454542637 2 12 16 -1 -1 0 -1 -5
1532262454565582 0 -12 -19 4 2 -2 2 0
1532262454670295 0 2 23 7 -4 -3 0 1
1532262454685255 -2 -8 -29 -13 -3 -1 -1 -2
1532262454730136 3 15 -34 -18 6 2 2 1
1532262454761053 -2 -14 1 1 -3 -2 -2 0
1532262454842835 5 10 15 -8 0 0 1 2
1532262454894696 -3 -15 -3 -14 -7 -1 -1 -3
1532262454924616 -2 14 27 -1 -1 -1 2 -2
1532262454962514 -4 -9 -19 -8 -2 -1 0 -2
1532262455000413 1 13 18 6 1 -1 -2 -1
1532262455022354 -7 -15 -22 4 3 2 0 -2
1532262455037314 -5 5 13 -5 -3 0 -2 -7
1532262455150013 -13 -7 5 4 3 1 -2 -33
1532262455187911 5 6 1 9 3 -9 -4 -15
1532262455202872 -1 -5 -14 -6 0 -7 3 12
1532262455218829 -14 -8 3 0 -3 -5 -3 -35
1532262455247751 5 17 0 2 0 7 1 3
1532262455292632 2 0 -5 5 4 -2 0 0
1532262455352471 -2 -11 -29 -12 -3 1 2 -2
1532262455414306 3 8 32 13 4 -1 1 3
1532262455443229 3 3 0 -1 -1 0 0 0
1532262455465170 -5 -7 -7 -7 -1 -1 -1 1
1532262455487111 2 -2 -17 -3 -2 -1 -3 -7
1532262455510050 3 0 1 -1 0 -2 -1 3
1532262455539970 -1 0 9 4 0 1 0 -3
1532262455592829 0 -1 -3 0 2 -3 -1 0
1532262455631724 1 1 -4 -1 -1 -1 -6 0
1532262455654676 0 -2 -2 -2 -3 -11 1 2
1532262455682589 -5 4 -4 2 -2 7 -3 1
1532262455712509 -13 -24 -12 -4 -7 -46 -10 -6
1532262455727469 2 -2 5 1 2 3 -1 1
1532262455765367 5 39 11 0 -2 8 2 3
1532262455787308 -2 9 -23 -3 -1 -4 -5 -1
1532262455833186 8 31 29 10 4 6 3 2
1532262455870087 0 -3 -22 -1 2 1 0 0
1532262455989767 -3 -6 3 -6 -4 2 -1 -2
1532262456012706 0 10 -22 -1 -3 -3 2 0
1532262456050604 -1 14 36 -4 -4 3 2 0
1532262456080532 -1 -2 7 3 -1 0 1 0
1532262456125412 4 29 95 2 -1 -2 -1 2
1532262456155332 2 -14 37 -8 -1 -1 -1 1
1532262456200211 3 -16 -44 -4 -5 15 -1 -31
1532262456222153 4 44 -18 -3 2 -34 -12 -72
1532262456245092 -2 -16 21 2 2 1 -3 35

1532262456275011 11 -6 -36 29 -2 -4 -1 16
1532262456304931 -2 6 -24 4 0 -1 1 5
1532262456327871 6 -17 -6 -8 0 0 -1 5
1532262456364771 -4 -5 -23 6 3 -1 -1 -2
1532262456387710 4 -8 -23 9 3 -1 -1 -1
1532262456417630 5 1 -12 12 8 3 1 6
1532262456447550 5 -8 -11 0 0 2 -1 -2
1532262456478467 1 -6 -7 7 0 1 2 0
1532262456492436 -1 10 9 -8 -4 2 0 -1
1532262456515375 1 2 -20 -6 0 -1 -1 4
1532262456552276 -9 -2 -4 -2 0 3 1 -3
1532262456575215 0 -4 -39 -9 -5 2 3 -1
1532262456628074 -2 -6 -8 -6 4 -2 -1 0
1532262456643050 2 6 17 -7 -3 -3 -1 0
1532262456664974 3 3 34 7 3 -1 1 2
1532262456687913 0 -4 -12 0 -2 -4 1 0
1532262456709855 -4 27 102 -1 -2 1 -3 -2
1532262456754735 2 -9 -33 -8 -2 -1 1 3
1532262456769695 0 -4 -13 -3 4 -1 0 0
1532262456792634 -2 -4 2 -2 0 -3 -3 -4
1532262456822553 0 -7 2 -11 -3 -4 0 -1
1532262456845491 -3 2 1 37 8 0 0 -1
1532262456860452 -2 7 16 -12 -2 -5 -5 0
1532262456882393 -1 -2 16 2 -2 -1 0 -1
1532262456905332 1 5 50 -11 -2 0 1 -1
1532262456927285 0 -8 -42 -4 -3 -1 -2 1
1532262456950223 -4 9 -11 -12 -4 -3 0 -3
1532262456965184 4 6 23 7 5 3 0 0
1532262456980144 -4 -2 33 -7 -6 -2 0 -2
1532262456995104 0 -36 -35 -8 -1 -2 1 0
1532262457018042 -4 -17 -16 1 0 -2 -1 2
1532262457033002 0 15 23 3 0 -3 -2 -2
1532262457084863 3 -13 2 19 5 3 0 2
1532262457107802 -2 -18 7 6 4 -1 -1 -1
1532262457122762 0 20 -27 -6 -3 1 1 -1
1532262457182602 -5 -54 -2 -3 0 0 -2 1
1532262457227483 3 20 15 -5 -5 -3 0 2
1532262457302282 -1 10 25 9 3 -3 -2 -2
1532262457355141 -2 -8 11 7 -3 1 0 -2
1532262457377083 1 -16 -10 13 2 0 -1 0
1532262457408000 -5 -11 -40 -14 -2 3 0 1
1532262457444901 4 -2 -56 0 1 -2 -3 -4
1532262457459861 1 14 79 14 3 1 0 -2
1532262457504741 -3 -31 -20 -6 -4 0 1 2
1532262457549627 -9 9 21 5 2 2 2 0
1532262457595505 6 15 -7 -11 -3 -4 -3 -1
1532262457655344 3 33 13 2 -5 -3 -3 1
1532262457692246 2 -6 14 5 -1 -2 -2 -1
1532262457723190 -6 -20 -18 -6 0 -1 0 0
1532262457760064 1 16 -10 16 -1 -2 -1 -1
1532262457783003 -2 -6 -32 -7 1 -2 -1 0
1532262457804944 -2 -32 -17 -18 -3 3 1 -2
1532262457864783 3 -4 -15 7 -1 -3 0 2
1532262457879744 2 17 27 -15 -3 -1 0 -2
1532262457909664 0 6 -16 2 4 1 1 -3
1532262457932603 2 10 37 14 3 1 2 1
1532262457955541 -5 -12 -18 3 -1 -2 -1 -1
1532262457992443 -1 9 15 9 1 0 1 -1
1532262458015381 4 -12 -21 -13 1 2 0 1
1532262458030341 2 -6 1 -2 -2 -4 -2 1
1532262458067243 -3 -15 14 -10 -2 1 -1 -3
1532262458090182 -3 -8 -27 -2 -1 -3 2 -2
1532262458135061 -1 -18 28 -12 2 3 2 -1
1532262458150021 4 14 5 -4 -9 -2 2 2
1532262458172960 -4 9 3 0 -2 -2 -2 0
1532262458187920 -2 -6 -51 -6 -2 0 0 -1
1532262458217840 3 7 23 -7 -4 -3 -1 3
1532262458262720 2 15 11 5 2 1 -2 -2
1532262458284661 3 -2 -29 -8 -3 0 -1 1
1532262458315584 -2 2 -19 -8 -2 -1 0 0
1532262458337520 2 -7 -42 -11 0 0 0 1
1532262458360459 5 -11 -30 1 0 -5 -2 0
1532262458420299 5 -18 -39 -6 1 -1 3 1
1532262458480138 2 0 -22 -2 1 0 -3 2
1532262458532997 -2 -21 -16 -1 4 1 1 -2
1532262458584858 3 14 63 27 1 1 -1 2
1532262458697557 0 0 -10 0 1 0 0 0
1532262458772357 1 2 -15 5 2 0 0 -1
1532262458825216 -4 -16 -68 -11 -6 -2 -1 0
1532262458914975 3 -6 -28 -6 -5 -4 1 2
1532262458982794 3 21 -46 -1 -5 -1 -1 -3
1532262459042634 2 7 3 5 -1 -2 -3 0
1532262459080533 5 16 -9 4 0 2 2 2
1532262459117434 7 -3 15 -5 3 -1 -1 -2
1532262459192234 1 32 2 -5 -4 0 0 4
1532262459230133 -5 -5 19 -2 -2 1 0 -1
1532262459334853 -1 2 9 -1 -1 1 2 1
1532262459432592 16 -3 21 -8 -4 -1 1 3
1532262459477472 -25 23 -23 -13 -3 0 -1 -4
1532262459545290 -5 0 -28 -8 -4 -4 -1 -2
1532262459613109 1 -29 -23 -13 1 -3 1 2
1532262459643029 1 4 24 2 -1 -1 0 -2
1532262459672949 -13 17 13 3 2 2 0 -2
1532262459852469 1 -9 -11 -10 3 2 -1 -1
1532262459890367 -4 1 -6 -3 2 4 -1 -1
1532262459942229 0 -1 -1 5 1 3 3 1
1532262459995088 -4 1 -10 26 3 -1 0 -1
1532262460032986 4 -4 -60 16 6 -5 1 2
1532262460069887 -1 4 26 5 -1 0 1 1
1532262460122763 -2 -13 -9 -5 1 2 2 2
1532262460144687 0 -6 -10 -4 -1 3 0 -1
1532262460175609 -1 4 -33 -6 -7 -5 -2 1
1532262460205525 0 1 -1 2 -1 -4 -3 -2
1532262460220485 -3 3 31 0 0 -2 0 -3
1532262460235445 0 6 13 2 1 -9 1 -2
1532262460265371 2 7 10 -1 -1 11 -1 -3
1532262460295291 -4 -12 -27 3 3 -1 -2 -3
1532262460355130 1 13 37 -2 -6 -12 -6 0
1532262460386048 -1 -10 35 1 2 -6 -2 0
1532262460444891 -1 -3 -25 1 3 0 -2 -3
1532262460482789 6 -12 -11 0 0 8 1 1
1532262460504730 -2 5 13 -2 -1 -6 0 -1
1532262460550622 0 0 -5 1 -2 -1 -1 0
1532262460602469 0 0 23 -2 -2 -1 -1 -1
1532262460655327 -6 -16 -5 0 2 6 3 -6
1532262460700208 10 30 54 1 -16 -69 5 7
1532262460730163 -11 10 14 -1 -1 46 30 -32
1532262460753103 3 26 42 11 7 39 -1 -8
1532262460775044 -4 16 36 1 4 -27 -9 -18
1532262460827902 -10 -2 34 12 2 10 -2 -18
1532262460851838 7 -6 -77 -30 -8 -42 -10 3
1532262460902702 3 -34 -25 11 2 7 -3 -3
1532262460917662 -3 24 -28 -5 -17 3 -2 -17
1532262460940601 4 17 24 -6 -3 0 -1 3
1532262460962542 0 -17 12 -14 -13 -7 -4 -4
1532262461022382 -1 -7 19 0 11 5 2 -1
1532262461052302 -1 39 76 -21 2 -5 -2 -4
1532262461082222 4 7 -8 2 5 7 3 3
1532262461128100 -2 -15 2 -4 -5 -2 -3 -1
1532262461203897 4 27 -1 21 14 2 -1 1
1532262461232819 -2 -11 -9 -13 -22 -6 -2 -1
1532262461254761 3 32 24 -4 2 1 -1 1
1532262461277699 -4 -14 -5 -6 -2 -1 0 0
1532262461315610 -2 -3 -18 -1 4 1 -1 -1
1532262461360477 -2 5 -3 -6 -6 -2 -2 -1
1532262461405358 9 -4 -3 2 1 0 1 8
1532262461420318 -1 -3 -1 -2 0 3 -1 -1
1532262461459213 -3 12 14 2 2 -1 -1 -4
1532262461482153 -3 -9 -5 -7 -7 -4 -1 0
1532262461525037 4 21 7 11 10 5 4 0
1532262461540006 0 0 -4 -7 -10 -2 -2 1
1532262461562937 -2 1 -7 -4 -4 -2 -1 -2
1532262461584878 1 -4 3 8 -5 -1 0 -1
1532262461607817 -1 -2 -3 -7 -6 -3 -1 -1
1532262461712537 -3 10 13 12 3 0 2 -1
1532262461742456 -4 0 2 -8 2 0 -1 -1
1532262461772377 -7 -1 10 0 3 -1 -1 -1
1532262461810275 1 8 9 7 17 5 2 2
1532262461847177 0 -5 -9 -3 -7 -3 -1 -2
1532262461893054 -2 3 4 -8 -3 -1 0 0
1532262461937933 5 13 16 7 2 1 -1 3
1532262461968861 -12 5 -2 -19 -8 -2 -3 -8
1532262462012734 -14 -10 -3 -6 0 -2 -2 -2
1532262462364793 -14 12 -8 -10 -6 -2 -2 -15
1532262462394712 3 -13 -2 -2 1 10 14 4
1532262462493448 61 13 14 8 4 3 24 37
1532262462545310 56 32 1 26 6 5 5 25
1532262462582211 47 -24 -1 12 -8 -42 -7 4
1532262462658011 9 -5 -8 -10 -1 -3 2 -3
1532262462694910 6 -3 -2 -3 1 11 3 0
1532262462732808 10 24 109 6 8 8 4 5
1532262462799629 1 -11 -24 2 8 6 1 3
1532262462867448 1 -4 -48 6 1 23 5 2
1532262462920307 -2 -15 -19 9 -3 18 2 -2
1532262462980147 1 -1 23 -13 -3 -30 -5 1
1532262463010067 1 -1 -50 1 -3 17 13 4
1532262463054946 -1 5 -1 1 -5 10 -3 -2
1532262463077885 -3 -2 -13 2 1 -34 -3 -2
1532262463092845 1 -8 -34 -11 -2 -22 -5 2
1532262463107806 -1 7 14 7 -3 19 6 -1
1532262463129748 0 -8 15 0 -1 4 -3 1
1532262463159667 -1 -1 -9 5 5 10 2 0
1532262463197565 0 6 5 -1 0 -2 -2 -5
1532262463212525 -2 -2 19 4 -1 19 0 -1
1532262463280344 1 5 13 6 -2 1 -3 -1
1532262463295304 -1 0 -8 -2 -1 6 0 -1
1532262463355144 3 4 0 -10 -3 5 0 1
1532262463408023 1 -2 0 3 3 -7 -1 1
1532262463482823 4 -3 -46 -3 -5 -1 -5 -1
1532262463519724 -10 -5 -19 4 0 -1 -2 -1
1532262463565608 -1 -4 9 -2 0 -8 -1 -2
1532262463595522 -7 -2 2 -2 -4 -9 -3 -1
1532262463625442 -5 -8 -9 0 -1 -2 0 0
1532262463707224 -1 2 -2 1 0 -2 1 -2
1532262463730162 2 3 10 -1 0 1 0 0
1532262463760082 -2 7 35 2 -3 -1 -1 -1
1532262463775041 3 -2 -16 30 6 1 -1 0
1532262463827901 3 -10 -37 -3 1 -1 1 2
1532262463864802 -4 0 72 -5 -2 0 -1 -2
1532262463894722 -1 -3 -37 -6 0 3 -15 0
1532262463917661 5 -3 7 8 -2 -5 -1 -7
1532262463970520 -20 -5 8 -10 -3 -2 14 -8
1532262464052300 13 9 -17 5 2 5 18 13
1532262464067260 -2 -12 -48 -1 5 13 1 -3
1532262464105159 5 0 -7 -6 -2 -1 6 -4
1532262464143058 -2 0 34 -8 -4 -4 -1 1
1532262464194919 13 7 -20 -2 1 -13 12 30
1532262464224839 26 -4 -9 -44 -15 -12 -4 3
1532262464239800 4 1 4 -5 1 -7 -5 0
1532262464322578 0 -9 34 15 2 0 -8 -4
1532262464345516 2 7 28 -3 -5 -11 1 0
1532262464390396 -3 -1 1 4 1 1 0 -2
1532262464488135 7 1 -4 -4 -5 -6 -2 4
1532262464518055 13 2 -10 -10 -4 -1 1 -3
1532262464592855 -18 -32 4 34 3 2 -1 -7
1532262464607815 -9 0 27 19 0 -3 1 3
1532262464659677 0 9 52 -2 1 0 3 -1
1532262464674637 -3 -1 -80 -6 1 -11 0 2
1532262464735474 -1 -4 19 3 2 -19 -2 -5
1532262464766392 -6 0 43 5 -7 2 -16 -15
1532262464885073 1 8 100 -15 -7 7 0 -10
1532262464900033 4 0 -93 -5 1 -2 2 -1
1532262464937932 -4 -6 36 1 -5 -4 -2 0
1532262464974834 -5 -6 29 -3 -3 -13 -4 3
1532262464997773 3 2 -6 -4 8 14 6 4
1532262465080551 1 -6 17 -9 -3 -2 -5 -3
1532262465102492 -4 -1 8 -4 -2 -20 0 -2
1532262465147372 0 13 30 3 6 9 3 0
1532262465177292 -4 21 4 10 3 0 -5 -10
1532262465215191 2 -4 -23 -4 -3 2 3 31
1532262465245111 -3 7 -10 -4 -2 1 4 -7
1532262465289991 4 24 20 5 -3 -3 -7 -6
1532262465379751 -12 43 -21 -14 -7 0 43 13
1532262465455548 12 -76 -8 -11 -8 4 -28 17
1532262465507409 1 54 -31 -1 4 3 44 -12
1532262465530348 5 24 23 -6 -3 0 -26 -15
1532262465597170 -8 -43 9 -2 1 9 43 1
1532262465622103 -17 32 -1 -8 -6 -5 67 6
1532262465650028 0 2 -3 5 0 -7 14 -23
1532262465702886 -10 -2 18 -4 0 16 -8 19
1532262465777686 11 1 5 5 0 -6 -9 3
1532262465897366 13 25 2 2 -1 -5 -5 46
1532262465980146 1 39 2 2 1 3 4 -33
1532262466047964 20 20 24 4 1 -1 -10 20
1532262466129746 -3 11 -6 10 6 7 13 -11
1532262466228481 2 4 -42 -7 -3 -1 1 2
1532262466257407 -18 -4 24 4 3 2 -8 -39
1532262466333203 -1 -28 26 5 0 1 3 -3
1532262466580540 -5 50 20 -1 2 1 -2 -5
1532262466670299 -1 -66 -75 -2 0 1 -5 -20
1532262466730140 -4 -24 -2 -1 0 2 -2 0
1532262466782999 12 -2 -6 -7 -3 -2 4 36
1532262466812918 13 7 2 2 1 0 -4 -33
1532262466834860 -18 -9 2 -5 -1 -2 -2 -19
1532262466940597 7 27 29 10 3 1 -2 -18
1532262466977479 16 8 12 1 1 2 7 59
1532262467037319 4 4 2 2 -1 -1 0 -8
1532262467075218 -5 17 1 2 -2 -1 2 6
1532262467128075 -43 31 28 6 -2 -1 1 -22
1532262467157996 11 -14 3 4 -2 -2 2 -22
1532262467187916 2 2 -27 -11 -5 -2 -5 -42
1532262467232795 17 50 33 -1 -3 -1 1 29
1532262467308592 8 9 3 8 2 3 1 -4
1532262467367435 -2 13 -14 2 1 0 1 -12
1532262467382395 8 -24 -6 -1 1 1 -1 7
1532262467442235 9 65 0 2 -1 0 0 5
1532262467473172 14 24 28 0 -1 -2 3 13
1532262467532992 1 -12 2 -2 -1 -1 0 6
1532262467584854 16 38 2 -1 0 -2 3 28
1532262467660652 -8 8 -6 -5 3 1 -4 -40
1532262467697554 5 31 1 -4 -3 -1 -1 3
1532262467772352 11 28 8 -6 -4 -4 -1 0
1532262467802273 1 15 -11 -9 -3 1 0 -1
1532262467825211 4 1 -1 0 -2 -2 -1 -1
1532262467863111 -6 7 6 3 4 -1 -5 -2
1532262467878071 4 -4 1 1 1 4 -1 2
1532262467929931 3 6 2 1 -1 -7 -2 1
1532262467997750 1 6 -7 1 0 -1 2 0
1532262468110449 0 2 -6 -3 -2 0 0 -2
1532262468132390 0 -10 0 -6 0 2 1 2
1532262468192230 -2 -2 0 2 3 2 -2 1
1532262468215168 -2 -26 0 -19 -4 -2 1 0
1532262468245089 -3 -11 -14 21 2 -2 0 -1
1532262468319888 4 -1 1 -55 -9 -2 -1 -1
1532262468342827 2 3 -14 18 5 1 -1 0
1532262468447548 -4 2 -6 -16 -6 -1 0 -1
1532262468545286 0 3 -7 -3 1 0 1 -1
1532262468734779 0 4 2 -2 -5 -6 -1 0
1532262468800607 6 19 30 5 -1 -2 -1 0
1532262468935243 5 5 1 0 -1 -2 0 1
1532262468980123 0 9 1 -2 1 2 2 1
1532262468995083 2 -5 -5 3 1 0 -2 12
1532262469010042 2 12 10 3 0 -1 -2 -11
1532262469032981 -3 -11 -26 -10 -1 2 0 2
1532262469054923 0 6 6 5 2 1 1 -2
1532262469077861 -2 2 10 3 -1 -1 0 1
1532262469114763 -4 -4 11 -3 -2 0 -2 -11
1532262469169617 -1 -2 -1 1 1 0 1 -7
1532262469190571 -4 -5 23 -1 -1 -1 -1 0
1532262469295281 -1 -1 0 -2 0 -1 -2 -6
1532262469325200 0 2 8 2 1 27 1 -1
1532262469340178 -2 4 18 4 -1 0 1 -1
1532262469385095 -3 7 0 0 -3 -4 0 0
1532262469422993 -1 0 -1 8 4 3 6 4
1532262469542682 -2 -1 -25 -2 0 11 2 -2
1532262469565612 2 5 28 2 1 2 -1 2
1532262469610492 0 2 -19 0 -1 -4 -1 0
1532262469655372 0 6 11 -3 0 0 1 -2
1532262469670331 -4 1 -41 -3 -1 0 -1 -1
1532262469685292 -7 -11 -24 -7 -3 1 0 -1
1532262469723191 1 9 16 -1 -1 -3 -1 -1
1532262469745132 -1 4 -19 -9 -5 0 1 2
1532262469857836 -2 9 95 46 6 0 -2 -1
1532262469924651 1 -1 -16 -15 -4 -1 -1 -1
1532262470015409 -12 -18 12 -1 -1 -3 -4 -27
1532262470082231 19 50 -13 2 0 2 7 20

1532262470135089 1 5 -63 6 6 6 0 -3
1532262470158028 1 0 16 -21 -12 -22 -8 8
1532262470172988 3 -5 0 -23 -12 -3 0 3
1532262470218865 -1 2 -6 14 3 -5 2 3
1532262470239849 0 5 5 -15 -10 -3 -3 0
1532262470262748 -2 3 8 -7 -4 -2 -5 1
1532262470284707 -1 4 17 24 8 -4 1 0
1532262470315618 -2 -4 12 -1 2 8 -3 -1
1532262470375460 3 -22 -32 0 4 1 1 -4
1532262470405380 -8 12 -2 -36 -7 -3 2 0
1532262470427321 1 0 -15 -24 -4 -4 -4 -2
1532262470465219 -1 6 -13 -3 -5 -6 -1 -1
1532262470488168 1 -2 13 0 -2 -9 -4 -1
1532262470525060 4 9 -1 8 2 2 0 0
1532262470562958 3 -3 -26 -4 0 3 5 0
1532262470622798 -2 -4 17 -7 -3 1 -1 -2
1532262470644739 1 -5 -19 3 1 -2 0 -1
1532262470667678 1 -3 -7 0 -2 -1 -2 -1
1532262470712558 1 11 38 0 -7 -8 -3 -3
1532262470742478 -1 2 -34 -3 1 -12 -6 0
1532262470817325 2 -13 -25 -2 3 2 -2 -4
1532262470930012 -5 5 -20 4 0 1 0 0
1532262470967911 3 11 23 4 3 13 1 2
1532262470989852 2 -2 10 5 2 6 -2 0
1532262471019771 0 0 2 -5 -1 -5 0 -2
1532262471042710 3 -6 6 -4 -1 -2 0 0
1532262471080608 3 6 4 -3 -2 -7 1 1
1532262471111538 1 1 30 1 -1 -2 -1 -1
1532262471147442 0 4 -1 -2 -1 3 0 -2
1532262471200301 -3 14 2 2 1 -1 1 0
1532262471237202 1 17 -7 -6 -3 -4 0 0
1532262471253159 -1 -9 30 2 -2 -7 0 -2
1532262471268118 3 -17 -40 -5 -1 -10 -3 0
1532262471327959 1 1 1 -1 1 6 2 2
1532262471387800 1 -8 12 -4 0 2 0 -1
1532262471447639 -3 16 18 1 -2 -2 -1 -2
1532262471552358 -2 -16 -21 0 -1 -2 1 -3
1532262471605217 1 -4 23 1 -2 -4 -1 -2
1532262471673036 0 -2 -27 0 -3 -5 -1 -1
1532262471747837 -2 -23 -27 -1 1 -5 -2 -3
1532262471786732 2 -1 -9 -2 -2 -3 -2 -2
1532262471897436 1 -22 7 4 4 8 -8 -6
1532262471935335 3 -10 -29 -8 -7 -8 11 46
1532262472004151 1 3 -2 7 -2 -13 -9 -22
1532262472025095 -7 -23 -54 -27 -1 -3 -5 -12
1532262472114855 1 1 22 9 3 2 -2 -5
1532262472227553 4 29 14 -5 -2 -4 -2 -4
1532262472265452 -5 -31 -2 0 -2 -2 0 1
1532262472287393 3 19 -7 -4 -1 2 -2 0
1532262472378157 0 -11 14 6 6 -4 0 1
1532262472415052 -3 -17 -23 -5 2 3 -1 1
1532262472452950 -5 -38 -20 -16 -8 -2 -1 -2
1532262472497830 0 1 16 -3 -4 -3 -3 0
1532262472519772 1 17 -16 1 -1 1 4 2
1532262472595569 0 -2 11 -3 -3 1 -4 1
1532262472715249 -1 5 12 0 -3 -2 -1 0
1532262472768108 -1 7 31 0 -5 -1 -3 -2
1532262472858866 -1 -4 3 1 -9 -3 -2 -1
1532262472881804 -1 4 -3 -9 -6 -3 -1 -2
1532262472932668 -1 -12 -2 -4 3 0 -2 -1
1532262473000486 16 -4 5 20 33 10 2 5
1532262473067307 10 0 -5 2 -4 -5 -9 1
1532262473277745 24 1 3 -2 1 3 3 1
1532262473397425 40 20 17 -6 -1 -2 -19 12
1532262473420364 62 2 -5 41 5 0 -8 10
1532262473467238 -28 -26 -12 -6 -2 4 8 -2
1532262473495164 53 20 9 -20 -8 -2 0 -9
1532262473555004 99 1 -11 -12 -4 -5 5 61
1532262473614843 -43 -4 4 -5 -3 -10 -64 -34
1532262473682662 54 4 -3 -4 4 -30 17 27
1532262473697622 45 14 -11 -50 0 15 35 12
1532262473727559 92 5 10 10 -3 4 39 22
1532262473757462 -11 64 6 6 3 39 -8 -7
1532262473772422 46 -36 -6 6 -1 -3 4 -1
1532262473802342 -29 -19 -10 -12 1 9 12 -10
1532262473825280 -1 -22 -18 -4 -2 5 1 -4
1532262473870161 -33 -8 6 7 -5 -5 -23 -8
1532262473915041 -4 0 4 4 3 -4 -4 -9
1532262473959921 -9 4 -5 5 -5 9 1 1
1532262473982866 -3 -33 -104 -1 -4 0 -3 0
1532262474027739 0 0 -78 -18 3 -28 -2 0
1532262474042700 3 24 -9 0 -3 -3 -2 2
1532262474110518 2 13 -17 2 -3 4 3 1
1532262474269094 0 -9 -47 2 -1 -25 -9 0
1532262474283057 3 0 37 14 -3 -10 -2 4
1532262474312976 0 -4 -10 5 7 24 4 -1
1532262474334918 -4 -10 33 -3 -9 -14 1 -1
1532262474379798 -1 6 48 4 0 -7 -5 -1
1532262474409718 -2 -5 -5 11 11 20 2 1
1532262474448615 0 -6 -14 4 -5 -12 -2 3
1532262474462576 0 0 5 0 0 2 -2 -2
1532262474507457 -2 0 -17 6 1 16 -9 -1
1532262474523415 -2 -3 -5 -7 -4 7 -3 -4
1532262474537376 0 2 19 1 0 -12 0 -2
1532262474590241 0 3 7 -4 -4 -26 -4 0
1532262474665035 -2 -5 -5 4 -3 -5 -1 1
1532262474717893 -2 -3 -20 5 -1 -3 -3 -1
1532262474830593 -1 2 10 1 0 -1 -1 -1
1532262474867494 6 4 5 1 0 -2 -3 1
1532262474897414 0 0 0 -4 -2 -1 -1 -1
1532262474927333 1 1 56 4 0 -1 -2 -2
1532262474950272 1 2 4 5 0 1 0 0
1532262475003131 2 2 -11 1 -2 -2 1 1
1532262475062971 -3 -8 -20 -7 -3 -3 -1 -2
1532262475078929 0 -1 -6 1 3 3 1 1
1532262475197611 -13 -11 -23 -8 6 0 0 -2
1532262475242490 11 -9 -18 -5 -1 2 -6 22
1532262475280390 -16 6 30 5 -4 -5 10 4
1532262475295350 -3 11 19 2 4 0 -9 -2
1532262475332251 -4 3 43 6 0 0 -3 -5
1532262475355189 3 -18 6 -3 -6 -5 -9 -2
1532262475408048 -8 2 -1 -4 -2 -4 -3 -16
1532262475429989 1 -6 -9 -3 -2 -20 -2 -22
1532262475489848 29 6 12 4 2 3 14 -8
1532262475512777 2 0 4 -3 -6 -3 -32 6
1532262475634443 -2 -4 10 2 -3 -2 -1 -2
1532262475722208 -1 2 0 2 -7 -6 1 -1
1532262475760107 5 5 0 -4 -1 -41 3 46
1532262475775067 -6 1 -3 -9 -6 -14 -10 -22
1532262475798006 -2 -3 4 67 33 2 6 -8
1532262475842886 -7 -11 -1 -9 -3 -13 -4 3
1532262475864827 5 4 7 -16 -9 1 5 -7
1532262475917686 -4 -10 2 0 2 -3 -1 0
1532262475933645 2 4 -3 1 -4 -2 0 -3
1532262476000464 -2 3 1 -1 -3 -4 -4 -6
1532262476037365 -11 5 6 0 2 5 -8 -56
1532262476052326 1 -5 -10 0 2 43 1 20
1532262476097206 -10 -4 -1 -1 -2 -10 -4 -2
1532262476128123 -6 -5 -2 0 1 20 4 -3
1532262476187963 -3 -3 -22 1 9 -4 0 2
1532262476225862 6 -5 -8 -13 -7 -3 -4 68
1532262476254784 2 2 -6 -23 -9 -5 2 20
1532262476269744 -7 -20 0 -12 -4 6 -5 -27
1532262476315621 2 -10 4 -6 -2 -5 1 5
1532262476330581 3 -9 -4 -1 -1 6 0 -5
1532262476397403 3 32 26 4 -2 -18 5 -4
1532262476489157 25 55 21 17 0 -2 0 11
1532262476682640 -7 51 17 2 -3 0 -60 1
1532262476765419 2 13 -10 -17 -8 9 78 7
1532262476848197 -29 -16 -2 -12 -2 24 -3 -16
1532262476908037 -1 -44 -29 -15 -9 -8 -15 -5
1532262476952917 -24 -22 -21 -17 -9 -6 -9 -5
1532262476982837 8 -23 -10 -8 -5 -7 26 -10
1532262477005776 3 -51 -10 2 2 -9 -12 20
1532262477049659 1 -45 8 4 3 -9 -17 13
1532262477072597 2 100 2 -8 -3 -4 -5 12
1532262477095536 -13 -83 1 -8 0 -1 -18 -14
1532262477132437 21 -15 3 -1 1 4 29 2
1532262477162357 -10 16 0 -1 -2 -5 57 11
1532262477185296 -17 -20 -44 -13 -9 -8 -34 -21
1532262477209232 3 -47 6 1 0 2 6 30
1532262477222197 10 -30 8 1 -3 3 -42 15
1532262477290016 -10 -83 -15 -6 -4 -4 -4 -4
1532262477357835 -10 -33 -10 -3 -1 -4 26 -10
1532262477394736 -5 5 -1 2 0 2 2 -32
1532262477424656 18 -51 -1 1 3 -1 23 -17
1532262477530373 -10 -19 3 4 0 5 7 33
1532262477614158 -20 -12 -15 -3 2 2 16 -28
1532262477635092 -4 20 9 -3 -2 -2 -13 -19
1532262477658032 -3 6 -10 -3 -1 1 2 1
1532262477739813 8 4 21 3 1 0 8 44
1532262477769733 -4 -81 15 -4 -5 1 -2 -6
1532262477935290 3 -24 -2 -6 -2 -1 2 16
1532262477995130 6 8 -90 -6 2 2 10 48
1532262478047989 0 0 23 0 0 0 -3 -5
1532262478084890 0 -10 41 8 5 1 -3 -12
1532262478129771 5 2 1 0 1 0 2 8
1532262478167669 -16 -27 47 -9 -8 -7 -5 -15
1532262478182629 9 36 -39 8 3 0 2 36
1532262478220528 13 10 26 3 -1 -2 -1 -12
1532262478257440 3 14 -43 -1 0 -1 -1 6
1532262478325254 7 27 10 9 6 4 5 31
1532262478393066 7 -19 -16 -1 0 -2 -3 9
1532262478467866 2 -12 -3 -1 -1 -4 -4 -27
1532262478542666 6 -40 -35 1 3 0 0 26
1532262478565605 -3 7 7 -3 -2 -3 2 -5
1532262478610484 -3 5 7 2 0 3 0 -16
1532262478662346 16 -7 31 1 -1 -2 2 12
1532262478715205 -8 -26 -33 -4 0 2 0 1
1532262478745125 6 48 34 -4 -2 2 -3 -63
1532262478760085 -3 -8 9 1 1 2 0 14
1532262478827903 3 29 25 10 5 1 0 -14
1532262478857823 0 0 -23 0 -1 0 -2 38
1532262478956559 0 -67 -24 -3 -2 -2 -2 10
1532262478977503 -1 8 20 2 2 3 -1 -13
1532262479015402 7 1 4 5 1 -2 -2 -8
1532262479060282 10 -12 9 4 1 2 -3 10
1532262479128100 -13 -54 -13 -6 -1 -1 0 -15
1532262479172980 2 -4 20 -3 -3 -1 2 1
1532262479269722 4 -7 2 -2 0 -1 -1 2
1532262479300639 -22 6 36 -10 -5 -2 -2 -4
1532262479345519 6 2 0 13 4 -1 0 -3
1532262479397381 1 -11 23 28 6 -1 -1 -1
1532262479450255 2 23 11 -6 -3 0 -2 -1
1532262479547978 -2 -13 10 -1 1 0 -1 1
1532262479577898 -20 -14 -18 -13 -4 13 1 0
1532262479601833 -20 -7 -1 0 0 -3 0 -17
1532262479644719 0 2 4 5 2 -3 0 4
1532262479682618 -6 -3 8 -1 1 0 -1 1
1532262479727498 -1 -5 -25 2 0 -3 -3 2
1532262479742458 2 11 19 1 -1 -1 0 2
1532262479765396 6 -11 -7 5 7 0 1 -1
1532262479802298 1 12 -18 7 -3 0 -3 -2
1532262479825259 -8 -1 15 58 19 4 -1 -3
1532262479855179 2 8 -19 -3 -15 -4 -2 2
1532262479878118 -20 8 0 11 3 4 3 1
1532262479922998 -5 15 34 -16 -6 -2 1 0
1532262479982838 -2 -8 -7 -13 -11 -2 1 1
1532262480034699 -7 15 21 13 2 -2 -1 -3
1532262480111494 4 -1 13 3 3 0 -1 0
1532262480140426 -17 -32 -21 1 -1 -3 -3 -7
1532262480170336 2 14 18 -5 -1 -1 0 0
1532262480200257 1 -6 -15 1 1 1 0 -1
1532262480275056 1 -10 -18 1 -4 -4 -3 -1
1532262480350854 1 7 11 2 1 0 -3 -5
1532262480387769 2 -10 -1 -9 -7 -8 1 15
1532262480471531 2 10 -8 4 1 -4 0 -2
1532262480494470 -2 -11 -18 -9 -3 -4 -1 -2
1532262480522395 3 23 46 9 0 -5 -1 4
1532262480582235 -4 -3 -10 -1 -2 1 -1 -24
1532262480606171 2 3 2 5 -2 0 -2 4
1532262480620134 -5 -4 2 -6 -2 3 -1 6
1532262480650054 -2 -13 -24 -12 -5 -1 1 -1
1532262480679974 -2 -17 -18 -6 -2 1 1 7
1532262480694934 7 16 23 8 -1 -2 -3 1
1532262480709894 0 9 12 2 -2 -3 -3 -1
1532262480724854 -4 -7 -3 -1 0 1 0 0
1532262480762766 -3 2 4 1 -3 1 -1 -1
1532262480800651 -1 3 10 -2 1 11 -18 -12
1532262480815629 -1 1 -1 1 1 0 9 3
1532262480845531 0 -3 -5 -6 -2 6 4 0
1532262480882433 2 2 -5 0 -4 -14 -6 -1
1532262480935291 0 -3 16 4 -1 -22 -20 -1
1532262480965211 3 -2 -48 -1 6 14 9 4
1532262480980171 0 16 26 0 0 -8 -2 -2
1532262481018070 -7 -8 -10 2 2 8 -8 0
1532262481033030 -7 -17 -35 6 3 4 -4 -1
1532262481047990 -3 3 30 -4 -6 -5 -5 -3
1532262481062949 -4 -12 -29 -7 -2 2 -4 -2
1532262481092870 -3 -3 7 -3 0 -2 -3 0
1532262481144731 5 17 12 -5 -3 1 0 0
1532262481183627 -2 -4 29 -5 -2 3 0 0
1532262481212549 -2 -4 10 9 3 27 62 2
1532262481257430 1 -4 -5 0 0 -3 -9 -2
1532262481272390 -1 -5 -38 -7 -3 -4 -15 -3
1532262481317292 2 2 11 -3 -2 -3 -9 0
1532262481347213 0 3 35 -2 -3 0 -2 0
1532262481400072 2 9 35 6 -1 -2 -1 1
1532262481452930 -3 12 1 0 1 -1 0 21
1532262481474872 6 12 3 1 2 -33 -66 29

1532262481542690 4 14 51 -75 -16 -10 -2 -4
1532262481595548 0 11 45 17 7 7 7 9
1532262481647410 4 17 47 18 -1 0 4 2
1532262481694285 2 13 19 -5 -6 1 -4 -1
1532262481739165 1 7 23 1 -1 -15 -6 0
1532262481753127 -2 -13 -11 -9 -2 4 0 -1
1532262481767171 1 -6 -8 5 4 3 4 1
1532262481783114 -1 7 4 11 -4 -3 -4 -4
1532262481805055 0 3 -5 3 4 -4 0 0
1532262481820015 -2 -12 -20 -9 -7 -3 -3 -1
1532262481857914 -3 -3 -1 2 4 4 -2 0
1532262481872884 3 -13 -71 -1 4 8 3 3
1532262481924739 1 -3 -9 -7 -1 3 1 1
1532262481947674 0 -7 19 2 1 3 0 1
1532262481970612 -1 -3 -21 0 0 0 -3 -2
1532262481992554 0 -1 13 -6 -3 -1 0 -1
1532262482022474 -3 5 -9 3 0 2 -1 -2
1532262482060372 4 4 21 -11 0 1 3 3
1532262482090293 -3 5 -6 11 2 3 -3 -2
1532262482135172 1 0 -3 6 1 0 2 0
1532262482165093 2 1 0 2 1 4 1 1
1532262482209972 -3 -4 14 9 -1 2 1 0
1532262482232911 -3 -5 -9 -2 0 -1 2 -1
1532262482277791 1 4 11 14 2 -2 -1 -1
1532262482331647 -1 -7 -9 3 0 -5 -1 -1
1532262482367551 -5 10 -6 -25 -10 -4 -5 -5
1532262482397471 1 -15 -53 6 2 0 3 2
1532262482412431 0 -7 -51 -11 -6 -7 -2 6
1532262482427391 0 10 -12 -2 -4 32 4 -4
1532262482465290 0 3 3 3 5 38 15 12
1532262482487231 -5 -5 25 -1 2 2 -6 -19
1532262482510176 4 29 48 1 -2 5 8 4
1532262482563028 -5 7 -50 -16 -4 -8 -3 -11
1532262482614889 -2 -5 8 15 3 -5 1 -18
1532262482667748 0 8 13 2 0 -1 -4 13
1532262482682712 3 9 -3 -2 -1 5 -1 9
1532262482712628 3 -4 -19 1 -3 -4 -2 -1
1532262482727588 3 15 -4 8 2 0 -1 1
1532262482757508 -2 29 -9 -4 -1 -1 -2 0
1532262482772468 4 0 7 5 1 0 0 2
1532262482787428 2 35 42 2 -3 2 0 2
1532262482825327 0 8 8 -7 5 2 1 2
1532262482855247 0 -1 -9 11 4 2 0 -1
1532262482870206 1 -15 2 63 39 8 5 3
1532262482885167 1 -3 -75 -31 0 -1 -1 -4
1532262482908106 -7 -4 56 2 -17 -7 -4 -1
1532262482923065 0 1 -21 17 6 1 -1 -2
1532262482945006 1 -10 19 8 -6 1 -1 0
1532262482967946 -3 -25 -5 -1 0 -2 -1 -2
1532262482997865 3 25 12 7 2 1 0 1
1532262483027786 4 -4 -8 4 -1 0 2 -1
1532262483042745 -2 -3 9 -14 1 1 0 1
1532262483088623 5 -1 -2 4 0 -1 1 0
1532262483110564 -8 -8 -4 -4 -9 -3 -4 -5
1532262483155444 -10 2 -1 -2 0 1 0 3
1532262483170404 3 -4 -1 1 -2 0 2 -1
1532262483185363 7 1 -1 -10 -1 -2 0 2
1532262483207305 -2 -2 0 -5 0 0 -1 1
1532262483237225 -3 -2 1 5 0 1 1 -1
1532262483268142 -13 -9 -3 -8 0 0 -1 0
1532262483320004 4 -1 6 12 -1 -1 0 -3
1532262483403794 -5 4 10 0 0 -1 -2 -3
1532262483439687 5 -6 3 6 0 -3 -4 6
1532262483462634 -4 2 6 1 1 0 -3 -4
1532262483477593 33 4 -8 1 3 1 1 0
1532262483500532 29 -2 -7 -7 -5 0 2 1
1532262483530452 17 2 5 14 5 1 0 -5
1532262483552393 94 -7 -19 10 1 1 5 38
1532262483673076 -60 -4 -4 0 5 1 -1 -10
1532262483718948 -38 -9 -4 -2 -4 -2 -4 -2
1532262483739910 -12 -8 1 -1 5 4 1 7
1532262483756846 -19 -16 1 -8 -6 -4 1 4
1532262483845609 105 11 -10 -33 0 -2 -2 28
1532262483942351 -52 -4 2 -3 -1 -2 9 -3
1532262484018153 27 6 -14 -6 -1 -10 -9 3
1532262484041087 24 1 12 19 7 0 4 10
1532262484070008 -6 5 -8 -1 -7 -1 -1 -1
1532262484092948 20 9 0 -5 -3 -10 -11 -6
1532262484107908 -19 -8 -8 27 7 17 3 -7
1532262484152788 53 0 1 -16 -5 -13 -4 4
1532262484174729 22 16 13 13 2 11 1 11
1532262484227588 -4 -7 -3 4 3 -1 1 -6
1532262484265487 -64 -11 -2 -14 -5 17 -1 -10
1532262484310366 24 -2 -4 -7 -4 -13 -3 5
1532262484340287 -7 -1 -11 -5 1 -2 -2 -4
1532262484363228 -4 2 -23 -4 1 2 1 -3
1532262484408105 -2 -3 -52 2 -1 -2 -3 -3
1532262484423064 5 11 -29 1 1 -7 4 5
1532262484452985 1 7 -16 8 -4 -12 -4 -3
1532262484474926 1 -4 -27 -3 -9 -2 -1 2
1532262484499860 -3 -13 55 -1 -5 -24 -3 0
1532262484519807 2 7 16 4 -2 -12 -2 -1
1532262484565688 1 19 98 23 11 -4 0 -2
1532262484587625 -5 -10 -28 -19 -6 -30 -1 1
1532262484632505 -4 -32 -98 -15 -10 -26 -14 -2
1532262484685364 -1 -7 -28 8 7 -9 -1 -2
1532262484737225 -3 -1 61 -2 0 5 0 0
1532262484760164 1 -5 -27 -1 3 29 1 0
1532262484790084 -4 9 27 0 -5 21 10 1
1532262484813029 -1 1 -2 10 4 -5 -3 -2
1532262484857903 1 6 28 2 -2 -32 0 5
1532262484879844 -4 -1 -9 -6 1 5 -3 -2
1532262484909764 1 2 0 -4 -1 7 0 -3
1532262484932702 -2 4 14 4 2 3 0 3
1532262484977582 0 0 -74 0 -1 3 -2 -2
1532262485007503 2 7 41 -1 -3 8 -3 -1
1532262485037423 4 8 1 5 -2 2 -5 0
1532262485060361 1 13 67 -9 -5 2 1 2
1532262485097262 1 0 -10 6 2 -8 0 -3
1532262485120201 -3 1 50 17 6 2 2 3
1532262485135161 0 -5 -3 -5 -4 14 2 1
1532262485195001 -2 -2 4 -10 -2 4 -2 -3
1532262485217940 3 -5 0 0 -2 0 2 2
1532262485254841 -5 -4 -29 3 2 4 0 -1
1532262485285758 -3 15 74 0 2 1 -2 -4
1532262485314681 -3 -2 -18 -4 -3 -2 -2 -1
1532262485368537 2 -2 -21 4 1 1 0 1
1532262485420398 -3 -3 3 -1 3 0 -1 -1
1532262485435358 -5 6 8 6 4 0 2 1
1532262485487220 3 3 -6 -6 0 2 1 2
1532262485533097 -4 -5 0 -4 -5 -2 2 1
1532262485690675 -10 -9 -36 -29 -9 0 -3 -7
1532262485712617 -9 -9 -25 7 3 -2 0 0
1532262485765475 16 0 -17 -4 -3 -2 -3 -20
1532262485802377 1 -7 11 4 3 0 1 -14
1532262485832297 7 3 -7 0 -2 1 0 12
1532262485901120 2 1 -2 -2 -4 -4 -1 9
1532262485952975 -10 -8 -7 -2 2 0 0 4
1532262486027774 7 15 -23 -1 -2 -3 0 -1
1532262486049715 -6 -13 -20 -14 -6 -3 -2 -9
1532262486102574 -4 -7 -30 6 4 -3 -2 -1
1532262486177374 -1 -2 37 3 3 26 6 3
1532262486230233 -1 5 -10 -3 2 17 -2 -24
1532262486260152 -18 -4 -3 2 -3 2 3 -9
1532262486334953 1 1 -3 -16 -12 -6 -3 -3
1532262486379833 3 0 1 4 9 0 -2 -1
1532262486470590 -1 -4 -12 0 4 -7 -1 9
1532262486628169 -8 7 6 4 2 8 -1 -4
1532262486754829 0 -15 -37 -4 -1 -8 -2 -4
1532262486807689 -7 -9 -18 -1 3 1 -1 -30
1532262486875507 7 2 -2 0 -2 -5 -1 17
1532262486897448 -4 -4 3 0 0 1 -3 4
1532262486935347 3 13 -6 -5 -4 2 1 1
1532262486957289 -1 7 -7 -8 -5 3 24 2
1532262486972249 -6 -19 5 -1 -1 3 -12 -8
1532262486995187 -4 67 -4 -4 2 -2 -61 -1
1532262487017138 11 -8 -9 1 -3 -7 -1 5
1532262487033089 -5 18 -2 -1 -8 -17 12 -25
1532262487077966 -12 -89 -12 -6 -4 12 -10 -2
1532262487099907 -23 -22 -15 -6 -4 -1 6 -5
1532262487122856 -1 -41 6 6 5 2 -23 4
1532262487175704 -8 -63 -6 -4 -1 -9 -17 0
1532262487242526 19 3 8 10 4 3 -2 9
1532262487326302 18 -14 40 3 7 10 12 7
1532262487347245 0 -5 1 -5 -2 -3 -17 7
1532262487370184 0 -44 -10 -4 -5 -12 -85 -25
1532262487415064 -12 -9 -11 0 0 -3 38 5
1532262487430024 3 -7 -21 -3 -3 0 6 17
1532262487467923 3 -24 5 3 2 4 23 -2
1532262487497843 6 -1 4 -2 -5 -9 -6 4
1532262487587603 -9 -33 -6 -3 -5 -4 -10 -20
1532262487603573 13 2 11 0 -2 -11 -45 28
1532262487632483 -6 -16 3 0 -2 3 1 -18
1532262487670382 -8 31 -14 -3 1 0 12 -10
1532262487730222 -28 -41 -47 -9 -6 -2 23 16
1532262487760141 13 48 19 6 3 8 16 -18
1532262487790062 0 -18 1 0 2 -2 -6 9
1532262487842920 -3 -4 -1 -1 1 0 -7 3
1532262487873838 4 12 4 -1 0 5 -10 -4
1532262487932680 -11 -20 -76 -13 -7 -5 -3 1
1532262488067320 -15 39 31 2 -1 0 -3 -21
1532262488239864 -6 -4 28 1 -2 -1 -1 -7
1532262488286734 -3 -12 15 -2 -2 -1 -8 -17
1532262488390456 4 11 22 -1 0 -1 5 31
1532262488450296 -1 -10 9 1 0 0 1 -13
1532262488487197 -15 33 12 2 -1 -1 -1 -31
1532262488577955 5 27 -29 6 -1 1 -1 31
1532262488614856 7 38 37 4 -1 1 4 24
1532262488653752 4 -7 -25 -7 -4 0 5 30
1532262488674696 -10 -56 11 2 0 2 5 21
1532262488735533 5 15 10 1 1 1 -1 -8
1532262488802354 7 -7 -2 2 0 -1 -5 38
1532262488832275 0 20 7 3 1 0 2 24
1532262488885133 10 40 30 6 3 2 1 27
1532262488908072 15 12 5 7 2 -2 0 4
1532262488944973 -3 41 -18 0 -1 1 0 -44
1532262488989865 -32 -11 -21 -11 -4 -1 -5 -65
1532262489019773 0 -17 5 5 6 5 6 48
1532262489034733 14 6 17 12 0 0 4 10
1532262489080611 10 2 7 2 2 0 -4 16
1532262489110531 20 1 -29 -7 -5 -5 5 47
1532262489140451 -9 9 -2 0 -3 -3 0 -2
1532262489207272 1 -33 -2 -1 0 2 -4 -19
1532262489238189 -12 -37 22 2 2 0 -2 -31
1532262489275090 7 14 22 4 0 -2 -2 19
1532262489298029 -2 -4 -15 -1 0 1 -1 2
1532262489342909 2 -8 11 1 -2 3 0 -14
1532262489365848 6 -7 1 0 -1 -2 -4 -3
1532262489379810 -2 -29 -6 -1 -2 -2 -2 2
1532262489402749 -9 11 -4 -1 -1 1 -1 -30
1532262489424691 0 -14 4 -1 -1 0 -2 13
1532262489447629 -2 -79 -5 -1 -2 0 3 6
1532262489492509 -6 -27 -6 -4 -2 -3 1 0
1532262489507469 -9 -63 -16 -3 0 -2 -1 3
1532262489522429 5 3 3 0 0 -1 1 6
1532262489568308 -4 -16 -20 -3 -1 -1 0 -4
1532262489582269 -7 14 4 0 -2 -1 0 -1
1532262489628146 -4 4 3 -3 -2 -1 0 -1
1532262489658066 0 0 23 0 0 2 1 1
1532262489694968 -7 38 29 3 1 0 2 13
1532262489747826 0 -3 6 1 0 5 -5 13
1532262489794701 -10 -6 -24 0 1 -1 4 -2
1532262489822626 -7 5 -10 1 1 3 2 -2
1532262489852546 2 -14 -13 1 -1 -1 0 3
1532262489867506 2 16 16 8 1 -1 -1 -1
1532262489890445 4 2 6 -4 -2 0 0 1
1532262489920365 0 4 2 -5 -1 0 -1 0
1532262489942306 -1 22 7 6 -1 0 -1 0
1532262489989181 1 2 4 3 1 1 0 -1
1532262490010125 -2 -7 -8 -4 1 -1 0 -2
1532262490049040 1 9 2 11 -1 -1 -1 0
1532262490062983 -6 -16 -6 -10 -5 -3 -1 -2
1532262490137783 -5 -18 -11 4 9 0 -1 -1
1532262490167703 7 7 0 -2 19 5 5 4
1532262490212583 3 3 21 9 -4 -1 0 1
1532262490280402 -2 1 -2 -5 -4 1 0 -1
1532262490302343 -4 -6 -1 -8 -1 1 1 -2
1532262490340248 -2 -2 -19 -7 -4 -3 -1 -1
1532262490459922 -4 -5 -5 -3 1 1 0 -2
1532262490504801 0 1 0 1 1 -2 0 -1
1532262490580600 4 19 36 -1 -6 -2 -4 -2
1532262490617501 -5 1 22 3 0 -2 -1 -1
1532262490692301 -5 -5 6 0 -1 0 4 14
1532262490709256 8 -2 -15 1 0 -3 2 12
1532262490737181 -11 -12 -22 -13 -4 -1 -3 -22
1532262490753151 -2 2 -10 -3 0 -4 -2 10
1532262490819960 5 -4 -1 -1 2 1 5 23
1532262490842898 -8 -6 4 -3 1 0 -4 -11
1532262490873815 1 2 -2 1 0 -1 -2 -4
1532262490909719 3 3 0 2 -1 -3 -4 -13
1532262490932658 -7 -6 -5 -3 0 1 -2 -6
1532262490962578 -4 -13 4 5 -2 -4 -2 13
1532262490985516 -6 -12 -35 -9 0 3 1 -16
1532262491015437 -3 -5 -6 -3 -2 0 2 3
1532262491030397 -3 -2 -3 0 -1 0 -2 -9
1532262491082258 5 17 19 4 0 -2 -1 6
1532262491112178 -2 -1 -2 -3 1 1 0 -4
1532262491135116 -4 -1 -5 -6 -4 0 -2 -4
1532262491150076 -3 2 4 4 4 0 -1 -14
1532262491194956 -2 3 5 2 3 3 2 5
1532262491217895 -1 0 0 2 -3 -12 -3 -6
1532262491239846 -2 5 9 4 -2 2 -3 -25
1532262491254797 3 -2 -2 -1 -2 -3 -1 2
1532262491292695 2 0 2 1 -2 -1 2 8
1532262491315634 -2 -1 1 -2 -4 -13 1 3
1532262491360514 -1 -5 -13 -3 -4 -1 -1 0
1532262491429330 -2 0 -2 -1 -1 -31 -3 1
1532262491466231 0 -3 -1 2 -1 7 -2 0
1532262491518092 3 6 2 -2 -2 -6 4 10
1532262491540049 0 -5 -16 -1 0 2 4 -5
1532262491592892 -3 5 30 -2 0 3 -2 -3
1532262491637772 2 21 45 21 5 -5 -1 -2
1532262491682652 2 2 -4 -9 -1 -2 -1 2
1532262491705591 -1 -11 4 -1 -1 -3 -2 0
1532262491766429 1 -20 -61 6 4 1 -1 -2
1532262491802332 -6 -12 13 3 -2 1 -2 -2
1532262491832253 6 -12 -81 -6 -3 0 1 0
1532262491870151 -1 10 38 -1 -1 -2 1 1
1532262491900071 0 1 43 -1 0 0 -2 -3
1532262491915030 3 -16 -48 -1 1 0 -2 2
1532262491937987 1 6 36 3 -1 -2 -1 -3
1532262492004791 16 -11 20 -2 -2 -42 2 43
1532262492043698 -1 -3 -14 75 30 16 10 -16

1532262492064631 -12 -8 -79 -19 -12 11 -3 -22
1532262492102529 -16 11 55 8 4 3 2 -19
1532262492125468 6 -1 -29 -24 -9 -5 -2 -1
1532262492140445 2 -11 28 -39 -15 -2 -5 -6
1532262492162392 3 -7 1 -9 -1 7 -4 -6
1532262492177351 0 -11 -12 0 -1 -3 -5 -7
1532262492269106 -5 -19 -8 -13 -2 4 1 -4
1532262492312989 5 1 10 -1 -2 -3 -1 1
1532262492349890 2 -9 -16 13 6 2 1 3
1532262492387788 -2 -4 11 3 0 -1 -2 -4
1532262492492528 1 24 43 -5 -5 -4 0 2
1532262492560444 -3 1 7 0 1 2 0 -3
1532262492605323 -1 -6 -18 -1 -2 2 2 -1
1532262492627265 2 -4 -29 -5 -2 4 2 2
1532262492665163 1 11 83 5 0 6 3 1
1532262492710043 -1 13 18 8 6 10 0 0
1532262492732983 20 0 -42 1 -3 12 14 108
1532262492777862 -5 1 -57 2 -1 2 3 -4
1532262492799803 -1 -23 -64 4 -2 -14 0 24
1532262492837701 4 44 127 41 -4 -11 -6 -5
1532262492867622 2 -3 7 -20 -5 -5 1 11
1532262492905521 -2 -1 12 2 -1 0 4 13
1532262492927462 -2 -33 -9 -7 -6 -8 -6 -4
1532262492972342 2 17 20 -2 0 -5 -1 -1
1532262492987302 4 -19 -63 -5 0 3 0 6
1532262493033180 -3 3 -7 0 3 4 2 4
1532262493063099 -1 -25 9 2 4 -4 -2 -2
1532262493129920 -3 -10 -21 7 2 -2 -1 -2
1532262493219681 0 6 25 10 -9 -2 2 2
1532262493257578 1 8 -24 -12 -5 -7 -1 0
1532262493317419 5 25 -12 3 4 0 2 13
1532262493355318 -1 -9 -28 -2 -16 -1 0 -5
1532262493392219 -1 -20 4 5 2 -5 -5 0
1532262493430118 -3 -22 -2 0 5 4 2 5
1532262493453056 -4 -18 -14 -2 3 2 -2 -1
1532262493474997 -30 1 4 1 0 -14 -4 -46
1532262493504918 -15 -12 -8 -1 -3 -12 -4 6
1532262493527856 -4 -6 -6 -4 0 2 1 -4
1532262493549797 2 1 -1 -2 -3 -8 -3 2
1532262493579730 8 -3 -3 -1 -3 3 -2 9
1532262493610652 -1 -3 -1 -1 -5 -3 -1 0
1532262493640555 -1 -4 0 0 0 -1 1 -3
1532262493670475 -1 -3 5 -2 -5 -2 0 1
1532262493700395 1 18 0 8 1 -2 0 -3
1532262493739291 -2 -12 -5 -12 9 3 0 -1
1532262493782176 -11 -16 -3 -15 14 2 -1 -3
1532262493798150 -5 -12 -7 0 0 -1 -1 -4
1532262493828053 6 9 0 -4 25 4 1 2
1532262493849995 -3 -6 -1 -3 -15 -3 -1 -2
1532262493879915 0 6 11 15 -6 3 2 -1
1532262493939755 1 -17 -23 -42 -13 3 11 -2
1532262493962697 -5 9 -19 -6 7 0 -4 1
1532262494022534 -10 14 -1 13 3 -1 5 -5
1532262494037494 10 -14 -7 -1 1 -3 -15 8
1532262494075392 1 4 21 35 15 9 13 -4
1532262494127253 45 -8 1 -25 -13 -8 0 14
1532262494188091 23 21 -2 42 13 0 -4 6
1532262494226987 -15 4 3 -29 -6 9 34 -7
1532262494262891 80 36 21 -19 -7 1 -4 10
1532262494307775 37 13 32 72 13 6 40 0
1532262494337691 8 -22 -19 -32 -14 -10 5 -11
1532262494367611 -42 0 21 26 6 3 -21 -1
1532262494412491 -73 -16 -12 -32 -8 -2 12 -49
1532262494436427 0 22 -3 -1 0 -3 -9 -30
1532262494542144 106 26 -7 18 9 8 -12 12
1532262494579045 59 18 -4 12 5 -5 -30 25
1532262494614949 -80 -89 -20 16 -14 -23 -64 -46
1532262494652848 57 -3 24 34 3 -11 -26 -8
1532262494682768 -20 -20 1 -4 -1 -8 -1 -11
1532262494720683 1 0 2 -12 -4 5 -23 0
1532262494735627 -110 13 -6 21 4 9 24 -12
1532262494757568 -14 -23 3 4 0 -1 6 -11
1532262494787488 -31 0 -4 -1 3 6 16 2
1532262494802448 37 1 8 7 2 -1 -4 9
1532262494832368 -9 -8 -5 -4 -1 -4 -5 -9
1532262494847328 -20 -37 -5 -10 -3 9 2 0
1532262494870267 -3 -1 5 -7 -5 15 -2 4
1532262494892208 -5 23 40 -3 -1 20 9 3
1532262494923137 0 11 -38 -4 -1 17 -3 -1
1532262494960026 -4 -2 35 -7 0 4 -2 -3
1532262494982977 0 16 -21 17 2 -9 1 -3
1532262495004907 -7 -11 47 -7 2 -3 0 -1
1532262495034827 -3 -14 -38 -10 -4 -42 -3 -1
1532262495057765 0 20 124 21 -2 -18 -4 -1
1532262495079707 -2 -21 -15 -10 -3 -5 1 2
1532262495094667 3 10 -32 22 4 7 4 -1
1532262495132565 2 0 43 7 -11 -44 -2 2
1532262495155504 -4 -1 127 17 13 4 1 -1
1532262495192405 2 7 -118 -12 -6 -6 -4 -1
1532262495207366 -2 -9 -3 9 0 3 -1 1
1532262495222325 0 -1 8 0 4 12 5 2
1532262495252245 0 10 55 -3 -6 0 0 -1
1532262495275184 -1 -4 -79 11 5 -9 -3 -1
1532262495344001 -1 -3 -76 -2 -2 2 -1 0
1532262495357962 -1 6 -11 -11 -8 -4 0 -2
1532262495379904 1 11 -8 -9 -1 17 2 -1
1532262495402843 -2 -11 -20 -1 -5 -7 -6 -1
1532262495447722 0 0 -20 5 -2 -4 2 -2
1532262495462682 -2 0 -25 10 -5 -7 -3 -2
1532262495485621 0 3 -37 -9 2 5 1 7
1532262495522523 2 -1 -19 -3 -1 4 -1 0
1532262495552443 -3 -4 8 -7 -5 -2 -6 -2
1532262495605301 2 8 76 2 -2 -3 -3 1
1532262495620262 -3 -2 -7 -5 -1 11 0 -2
1532262495680101 1 0 2 -3 -1 5 0 -2
1532262495718000 0 3 -40 12 3 3 1 0
1532262495747920 1 7 26 3 0 0 -1 1
1532262495792800 -4 -9 -21 -4 -3 -4 -2 -2
1532262495822720 -11 -11 -34 6 0 5 -1 -3
1532262495869594 2 3 -9 6 1 1 0 -1
1532262495927440 1 8 24 -3 -1 -1 -1 0
1532262495965338 1 -2 -4 2 3 0 0 0
1532262496017200 0 -2 18 1 -1 -1 -2 -2
1532262496033156 0 1 4 0 -1 1 0 0
1532262496055098 -2 -5 -9 8 1 0 -1 -2
1532262496129898 -3 -3 12 -27 -18 -3 0 -1
1532262496206693 10 45 18 8 0 1 2 6
1532262496295456 3 19 -18 -2 -4 -4 1 1
1532262496364271 -4 4 -11 -2 1 1 2 -4
1532262496377236 0 -5 6 -3 -1 -1 6 -6
1532262496393194 16 -5 2 -1 3 8 15 5
1532262496423128 10 7 1 -1 -6 -4 -6 -2
1532262496438074 8 4 1 1 -1 -2 0 7
1532262496453034 5 -4 -1 -5 -3 -2 -7 -11
1532262496497914 0 -3 3 3 5 27 18 12
1532262496512874 -10 -4 -3 -1 5 48 102 11
1532262496579695 -5 6 3 -5 -7 -15 -19 -4
1532262496647514 -2 0 3 -9 -7 -1 -1 -3
1532262496707354 -2 -7 -8 -5 1 2 -2 -6
1532262496783152 -8 -4 -4 -3 -5 -36 -6 -34
1532262496813072 -4 -1 -4 -5 -7 -8 1 -15
1532262496828031 5 0 -2 0 -1 3 -1 2
1532262496857952 13 -8 -7 -42 -10 4 -8 -5
1532262496872911 -1 16 9 9 -6 3 -3 -3
1532262496887871 0 7 -3 12 5 5 3 1
1532262496902831 -2 2 -10 5 -1 5 2 2
1532262496924772 -1 -15 -7 6 3 6 -1 -1
1532262496954693 -12 -2 -31 5 6 5 0 -1
1532262497007551 5 11 11 3 1 -8 -4 -17
1532262497067391 -11 -12 0 -2 -7 6 -8 2
1532262497090330 2 -2 1 7 9 -5 1 3
1532262497142192 5 1 -1 -1 1 19 -6 7
1532262497180090 6 6 -2 -6 -5 5 -2 2
1532262497210010 4 15 -20 -9 -6 -16 -1 19
1532262497232949 -1 15 -2 18 3 6 1 -19
1532262497264863 -28 -17 -24 -3 -3 3 -4 -25
1532262497292789 1 -4 -4 0 0 -3 1 -4
1532262497329690 3 18 4 7 5 6 13 -2
1532262497405487 0 -85 4 -3 0 6 32 -1
1532262497457349 -2 71 -12 -14 -7 2 -33 -13
1532262497480287 -12 69 23 0 -4 -2 -15 -14
1532262497495247 11 16 9 3 6 -3 -17 39
1532262497517189 -25 -5 -15 -7 -8 -13 -41 -42
1532262497540127 4 -8 -16 -7 -8 -15 -58 12
1532262497555087 -9 -77 -10 0 1 6 34 6
1532262497592986 10 37 15 9 1 -7 -36 11
1532262497614926 10 68 20 4 1 1 50 -1
1532262497644847 -7 29 -8 -12 -6 -9 -3 -3
1532262497667786 8 6 14 1 -2 -2 34 1
1532262497689735 -11 24 -6 -4 -1 9 31 -7
1532262497720644 3 -15 10 4 2 0 11 11
1532262497742586 13 -20 1 -4 -3 -4 26 14
1532262497765524 3 1 13 -1 3 3 -25 6
1532262497795445 8 -17 3 -2 0 -5 -18 -13
1532262497817386 -17 -48 -28 -10 -8 -13 -19 -10
1532262497840325 -11 -48 -36 -12 -6 -1 -43 -6
1532262497855284 -6 -18 -2 0 -1 -3 -8 -3
1532262497870244 -3 -12 -5 -7 -6 -4 3 -12
1532262497893191 1 -51 -12 -6 -7 -7 -21 8
1532262497915124 -9 8 -1 -6 -3 4 23 -9
1532262497953023 12 10 4 8 2 2 4 7
1532262497967982 -5 -47 -10 -13 -1 -1 19 0
1532262497982943 -1 -2 9 -2 1 -3 -16 -1
1532262497997903 -17 2 -15 -8 -7 5 -14 3
1532262498019844 -13 -50 -8 2 4 6 26 -18
1532262498051759 -8 -56 -17 -8 -1 -1 21 22
1532262498149497 6 15 -9 7 -3 0 -15 14
1532262498237263 11 28 -25 -3 -1 -1 10 8
1532262498260201 4 33 -1 4 1 1 3 5
1532262498283140 7 27 15 -1 -3 -5 -7 16
1532262498313060 0 -2 102 -2 -2 -2 3 0
1532262498366916 -5 16 24 4 -2 0 -1 8
1532262498454682 10 -3 -55 0 0 -3 -4 10
1532262498515519 0 -20 55 0 -1 -2 -1 8
1532262498552419 0 28 4 -6 -3 2 -1 -8
1532262498650159 5 -11 -111 -2 -2 -3 -1 -7
1532262498665136 -2 -10 -2 1 1 1 -2 32
1532262498739937 11 -13 11 4 0 0 -3 -3
1532262498762872 -3 -11 46 0 -4 -1 1 15
1532262498784799 -6 15 37 -4 -3 -3 0 -5
1532262498807738 11 24 9 0 -1 0 0 -8
1532262498845636 -3 52 43 9 1 -2 -4 28
1532262498882537 -2 -28 -32 -7 0 -1 -8 -38
1532262498942377 20 15 -7 1 2 -1 -4 2
1532262498995235 2 -10 -14 -7 -4 -3 1 2
1532262499025156 -9 -3 -7 -5 -2 -1 -2 -71
1532262499099956 2 -3 -14 0 -1 2 -4 20
1532262499144836 -13 -12 -10 -4 -2 -1 -1 -22
1532262499220633 10 10 0 10 4 3 -6 -36
1532262499242575 -7 -17 8 0 -3 -2 1 -2
1532262499265514 7 -23 -3 4 -1 0 -1 12
1532262499295433 2 -9 -5 -4 -4 -2 2 21
1532262499340313 -3 -1 -2 3 2 -1 -3 -2
1532262499438052 -3 13 11 -1 -2 -3 1 20
1532262499504873 -19 -4 -4 -2 0 -1 -2 -24
1532262499580671 1 12 4 -1 1 -3 0 -20
1532262499625550 0 18 -2 -1 -1 -3 -4 -3
1532262499647508 4 -1 -7 -9 -2 1 -1 2
1532262499707347 -1 -9 -7 29 6 2 2 3
1532262499775151 3 -30 25 4 1 0 -1 1
1532262499834990 3 24 -12 -3 -5 -3 -7 -22
1532262499864910 4 -2 5 -3 1 6 6 30
1532262499887849 1 1 6 2 -1 -20 2 20
1532262499917770 7 2 -15 -10 -2 0 -2 11
1532262499977609 -8 -5 13 0 -3 -1 -2 -12
1532262500082331 2 -11 0 -26 -9 -3 -2 0
1532262500105268 2 13 -19 6 -7 0 0 1
1532262500120228 -2 1 11 13 11 1 0 0
1532262500143167 -1 0 -12 0 -5 -1 -1 -1
1532262500180068 -3 -5 -28 16 -5 -4 -4 -3
1532262500195027 -1 12 43 54 11 1 0 -1
1532262500247887 -3 -1 7 4 -5 -1 -1 -2
1532262500390505 3 1 8 2 2 -2 -2 1
1532262500457329 -6 -19 -20 -20 -8 -5 -2 -4
1532262500570025 7 16 24 8 2 1 3 3
1532262500622887 -4 -11 -20 -23 -8 -4 -4 8
1532262500659785 4 14 6 8 -1 1 -2 0
1532262500683720 1 10 23 1 3 1 0 -1
1532262500705662 -10 5 17 -3 3 0 -2 -13
1532262500742564 1 0 -10 -3 -1 -1 -1 7
1532262500772483 -2 -6 -21 -13 -6 0 0 -3
1532262500804399 -2 4 9 5 1 0 4 8
1532262500825342 2 -9 -15 0 0 -1 0 8
1532262500840319 0 -2 -2 -1 -2 -1 -1 -2
1532262500870222 1 0 4 1 -1 -1 -1 2
1532262500894159 -3 -10 -16 -8 -2 0 0 5
1532262500930062 3 7 18 4 -1 -1 0 4
1532262500953001 -9 -25 -22 -10 -4 -3 0 -10
1532262500997881 0 -3 -8 1 0 -1 -1 5
1532262501019822 -1 2 -1 1 -1 -3 -1 5
1532262501042761 1 3 4 0 1 1 -2 -3
1532262501064702 0 2 3 2 1 1 0 4
1532262501164435 2 -4 1 -3 -1 21 1 -4
1532262501192361 1 2 15 -1 -5 11 5 2
1532262501245219 -3 -7 -9 1 0 3 5 1
1532262501283118 -1 -13 -7 -7 -1 -2 -7 -3
1532262501320020 -7 1 -3 0 0 -1 -1 0
1532262501364900 -3 9 7 -5 -4 1 1 -3
1532262501394820 -1 -2 -4 -2 -1 -4 0 1
1532262501424740 -1 -1 -26 0 -3 -2 0 1
1532262501477598 0 7 38 3 -2 -3 -4 1
1532262501500537 -3 -4 -52 3 2 -3 -4 -3
1532262501515497 0 13 23 -15 -5 -3 -3 -1
1532262501537437 -1 -25 -63 5 4 0 -3 1
1532262501575337 0 1 -9 -5 -3 1 4 3
1532262501597277 -4 22 7 -4 1 0 0 0
1532262501620217 1 -10 19 -16 -6 0 0 -1
1532262501650137 3 -18 19 5 0 -3 -1 1
1532262501682051 -4 0 -51 4 0 -3 0 -3
1532262501724937 -1 -11 1 1 -1 -2 -2 -34
1532262501747875 -3 15 18 -5 -11 -18 -23 -27
1532262501784777 3 36 -9 -2 -3 3 -5 1
1532262501807715 -1 14 14 -10 -10 -7 -5 -8

1532262501845643 5 13 -29 60 16 -2 -9 -11
1532262501882545 -6 -27 -51 -17 -9 -4 -2 -18
1532262501912465 10 -11 -10 1 -5 2 4 -1
1532262501927425 7 25 18 6 0 4 1 4
1532262501987265 1 -6 -12 -2 -2 -21 -9 -6
1532262502018182 0 -4 3 3 5 9 6 4
1532262502070043 0 -9 -11 6 1 -2 -3 -11
1532262502114923 -1 -9 3 -8 -3 0 0 -1
1532262502137882 -4 -7 -10 -2 -2 -1 -3 2
1532262502159825 1 3 -1 -2 -3 -1 -2 -5
1532262502183838 1 5 24 1 0 0 1 2
1532262502204783 0 21 -15 3 0 -1 0 -1
1532262502242682 0 -18 -11 7 3 1 0 0
1532262502257642 -11 11 17 0 1 6 -1 2
1532262502280593 2 -5 -4 1 3 2 0 2
1532262502310513 1 3 -17 -3 -2 -5 1 -1
1532262502332455 -3 -1 -31 0 -2 -10 -6 1
1532262502385351 0 12 36 -2 -4 -12 -1 -2
1532262502407292 -7 19 -3 -1 1 -3 0 -4
1532262502422253 -4 -14 2 3 2 1 -3 1
1532262502490075 0 1 1 -5 -5 -2 -2 -1
1532262502513009 4 -14 10 12 7 0 -1 1
1532262502542929 3 15 -5 9 5 14 9 2
1532262502572890 5 -1 3 0 6 24 20 -2
1532262502587833 6 18 15 -1 -4 3 -2 64
1532262502602793 -10 -1 29 1 -1 10 27 -17
1532262502617753 0 -23 4 0 0 -6 -5 11
1532262502639700 5 -12 -70 5 2 -1 3 -7
1532262502655652 -1 -4 -74 35 1 1 3 -2
1532262502677593 -1 -12 -78 -4 -4 -17 -13 -12
1532262502700532 4 17 64 -9 -7 -5 4 -5
1532262502761368 3 -25 -13 -9 -3 -1 3 5
1532262502782313 4 29 9 0 -3 -9 -5 19
1532262502828190 1 2 -23 -2 0 -3 0 7
1532262502865091 0 21 -6 -5 -4 -1 1 5
1532262502888030 -3 -22 -3 -2 0 -4 -1 -2
1532262502917950 -1 3 -1 -1 -1 -4 -3 -7
1532262502947870 1 -33 0 3 1 -2 0 3
1532262502969811 -2 -4 -6 1 0 0 -2 0
1532262503014691 -2 -11 2 4 3 0 -1 -3
1532262503037630 4 22 -3 3 -1 1 1 1
1532262503097470 1 25 29 1 -3 -1 -2 0
1532262503120408 0 -4 1 7 1 2 0 0
1532262503142350 1 19 47 18 4 -1 -4 -1
1532262503157310 1 0 -11 -4 5 3 -4 -2
1532262503187230 -3 -4 -10 -1 -2 0 1 -2
1532262503210169 -3 0 -5 -6 -1 -1 0 2
1532262503225129 -1 -19 6 11 1 0 0 -1
1532262503255049 5 27 9 0 -3 0 0 -1
1532262503277987 -3 -5 -7 -4 -5 -2 -2 0
1532262503307907 3 -16 -14 0 3 1 -1 0
1532262503389696 0 15 10 16 -1 -1 1 0
1532262503420647 3 10 -8 -3 -3 0 -1 0
1532262503442588 -2 -4 -6 -7 5 5 4 0
1532262503457548 0 35 6 24 4 2 -2 1
1532262503480487 -3 -16 1 -17 -3 -5 -3 -1
1532262503502427 -11 -3 -1 -10 -9 -5 2 2
1532262503525367 4 6 7 30 -13 -1 0 1
1532262503555287 4 -11 -12 -7 -7 -1 -1 -1
1532262503577228 0 -8 15 3 7 3 -1 1
1532262503615127 15 1 -4 -16 -4 3 2 2
1532262503638066 6 3 4 3 32 6 -22 -1
1532262503660007 -6 -13 -16 -16 -4 0 -5 -3
1532262503727825 -13 -28 -35 -13 2 3 7 0
1532262503742785 7 -3 -1 35 -1 0 4 -1
1532262503810603 15 11 13 2 8 4 -5 -11
1532262503840524 37 -15 -28 -23 -8 -5 -5 1
1532262503916321 13 -14 -36 1 -6 -2 1 2
1532262503975164 118 10 2 -40 -11 1 7 24
1532262504005084 9 4 1 -5 -5 4 24 5
1532262504028022 22 -7 -18 11 5 0 -1 25
1532262504064924 -55 -45 -40 -36 -11 -8 -8 -19
1532262504117782 -85 -2 4 -5 -2 -5 -11 -34
1532262504267382 30 -29 13 -17 -11 -44 -65 -21
1532262504282343 107 73 4 42 8 7 11 7
1532262504327222 -8 -8 14 14 -1 -2 12 -37
1532262504373100 28 55 -2 -2 5 8 -11 -2
1532262504424961 26 -28 -15 -4 -2 -2 -7 29
1532262504499761 3 2 -41 -23 0 -55 -2 2
1532262504552620 0 -12 -65 -11 -10 13 16 0
1532262504575563 6 58 -42 4 4 -21 0 5
1532262504590519 9 0 12 12 0 4 -6 12
1532262504620438 2 26 -46 8 6 6 -1 0
1532262504635398 -7 -3 26 14 4 12 0 -4
1532262504657339 -4 -2 34 -4 -14 -54 -3 -3
1532262504695238 0 11 1 3 1 20 0 -1
1532262504717179 -3 -20 66 8 11 -2 5 1
1532262504748097 -1 -4 -3 -6 -10 -6 -6 0
1532262504778017 -1 1 3 -5 -8 -36 5 1
1532262504807951 -4 -3 23 -5 -7 13 -2 -9
1532262504829878 1 -2 -33 -6 -2 27 -1 7
1532262504844838 1 -8 -6 4 0 8 0 6
1532262504897697 3 3 -61 -16 -6 7 -5 -2
1532262504912657 -2 -5 -5 2 4 -3 -5 -1
1532262504927617 1 6 15 4 0 -26 -7 -5
1532262504957536 -3 -6 -21 5 -3 -5 -1 -2
1532262504980475 -1 -6 -8 5 1 9 -1 1
1532262505032336 1 -5 -37 -9 -1 -2 -5 -1
1532262505062257 1 1 15 4 0 1 3 -1
1532262505123094 -4 -13 -14 2 1 11 2 -1
1532262505138054 -2 12 56 -10 -7 3 -1 -4
1532262505182934 -1 4 -51 8 7 52 10 0
1532262505212854 -1 0 26 -5 0 -6 3 -5
1532262505234796 -1 -3 -86 2 -2 -6 -3 0
1532262505250753 0 -6 -15 7 1 -20 -6 0
1532262505272694 -6 -1 48 3 -6 -1 3 -6
1532262505332534 0 -7 90 2 2 1 0 0
1532262505364449 1 6 -5 1 0 1 0 2
1532262505377423 -1 -5 -33 -5 -3 -2 0 -1
1532262505392385 0 -1 53 1 2 0 -1 -2
1532262505452214 3 -1 -41 -11 -6 -3 -2 2
1532262505483131 1 0 52 3 -4 -2 0 2
1532262505528020 -1 -2 -11 -18 -5 2 -2 3
1532262505603809 -5 -3 -3 6 7 2 -1 -1
1532262505654673 3 11 -4 5 -13 -7 -1 0
1532262505820230 -22 2 32 9 6 2 0 -5
1532262505880075 -4 6 -8 1 -1 1 3 2
1532262505910005 -8 -4 -21 -4 -3 -4 -3 -6
1532262505947889 5 -2 1 -1 -4 -3 5 9
1532262505962862 1 -11 -19 -4 -2 2 2 -5
1532262505999750 3 0 -1 -1 -2 -2 -5 -6
1532262506022689 0 -5 -17 1 3 -10 -4 7
1532262506075547 2 1 0 -2 -4 -1 -7 16
1532262506114443 -12 1 -2 -1 -4 -42 -3 1
1532262506142369 6 -8 -18 -15 -7 17 -5 1
1532262506217168 2 2 -118 -26 -9 2 -3 -2
1532262506255067 0 -9 17 6 4 4 1 0
1532262506314907 -1 0 21 2 0 0 5 1
1532262506367766 -14 -4 -36 -9 3 77 18 -12
1532262506435584 11 -1 -29 17 8 1 -2 2
1532262506473483 0 -9 95 -14 -7 -11 -2 -4
1532262506510394 5 4 -32 13 5 6 1 1
1532262506525344 8 2 -51 -29 -9 -1 -2 -1
1532262506562246 2 -6 110 25 2 -10 6 -18
1532262506623103 5 0 -14 2 12 55 13 22
1532262506645024 4 3 -11 -4 0 -40 -10 -23
1532262506697883 -1 -7 -38 -13 -1 3 -1 -1
1532262506751739 0 0 7 6 3 3 2 2
1532262506787643 -12 -58 -52 -7 -3 6 -3 6
1532262506847483 -5 -7 3 -4 3 -5 -5 -8
1532262506945221 2 -22 6 1 -2 -3 5 5
1532262506999078 3 55 -12 4 0 5 37 2
1532262507028998 11 57 -1 -12 -5 -6 26 16
1532262507042960 4 -49 2 3 3 2 -56 -3
1532262507057920 14 95 -11 -1 4 5 29 9
1532262507072889 -11 -110 -12 -1 1 6 -59 -21
1532262507094821 -14 -7 -1 -1 -3 -11 -42 -7
1532262507132720 20 -8 18 9 9 9 42 7
1532262507154662 -2 6 -26 0 2 1 24 -5
1532262507185579 15 -11 11 4 2 17 -1 20
1532262507207520 -15 -8 -2 3 5 3 8 -15
1532262507253397 -9 -16 -8 -13 -10 -32 -59 -4
1532262507276336 8 -24 1 -2 -1 2 10 -16
1532262507306256 5 15 -3 -3 -1 -1 -13 -8
1532262507320219 -6 -32 -5 1 -4 -4 -14 8
1532262507335179 1 41 4 -5 -6 -17 1 11
1532262507350139 -12 -59 -14 -16 -10 -5 14 -6
1532262507365099 -11 -1 -1 -9 -5 -14 -4 -21
1532262507388038 -6 -22 2 1 1 5 -2 -3
1532262507409979 -10 -38 13 8 0 -8 10 22
1532262507462838 17 12 -1 -8 -6 -18 -11 -14
1532262507545616 -31 -22 -39 -19 -9 -3 -3 -31
1532262507605456 -3 -26 -4 0 1 3 24 25
1532262507627398 9 14 21 12 5 4 1 -13
1532262507650336 -13 -8 -3 -2 -3 1 53 18
1532262507712171 -2 -9 -2 1 0 -7 -89 -12
1532262507748075 0 32 13 4 4 10 33 -43
1532262507784976 -20 -17 11 1 5 12 29 -8
1532262507844817 1 -34 2 -3 -1 0 4 5
1532262507859776 -1 -52 24 3 -2 0 -5 -5
1532262507889695 -12 18 77 8 1 1 3 -52
1532262507904655 -3 -18 8 -4 -4 -2 2 27
1532262507927595 -5 -10 41 12 3 1 0 -3
1532262507950533 2 4 11 2 0 -1 0 9
1532262507965493 0 1 -24 -5 -2 0 -2 -18
1532262508032322 0 1 18 4 -2 -5 -4 -22
1532262508077195 3 -22 -30 -2 1 0 -2 13
1532262508182912 1 11 26 2 -1 -2 -2 -6
1532262508234773 2 8 37 1 2 2 1 -5
1532262508304587 -19 0 -59 3 -2 0 -2 -10
1532262508332512 -6 -6 11 3 1 3 8 2
1532262508430250 8 15 -9 -3 -2 -3 2 41
1532262508483109 -2 -6 -24 0 -3 2 0 3
1532262508520011 16 3 -2 -1 -4 6 1 -3
1532262508542949 -2 5 8 3 1 2 6 -14
1532262508558907 25 9 13 9 3 -8 4 45
1532262508572870 -56 -10 -18 -8 -7 -10 -12 -14
1532262508602789 -8 -90 -22 -15 -5 -4 -7 -23
1532262508624730 10 14 11 3 -2 2 -8 -18
1532262508662629 12 40 -2 2 -2 -4 4 16
1532262508692549 -30 -56 -8 -2 -3 -2 -8 -84
1532262508715488 18 -9 -25 -2 -1 -2 -1 22
1532262508730448 -37 6 5 0 1 -7 -9 -42
1532262508782309 5 -11 1 1 1 4 2 12
1532262508812243 17 13 13 -2 -3 -2 2 11
1532262508827189 4 24 -15 -5 -3 -4 -1 -2
1532262508865088 0 -5 -28 -11 -5 -4 -3 -4
1532262508924928 -27 46 -24 -9 -7 -2 1 -6
1532262508962826 -20 -44 -25 -6 0 -3 -7 -40
1532262508999728 -2 -34 16 -1 2 0 7 17
1532262509022667 11 28 -1 6 2 2 -1 -18
1532262509045605 6 9 6 2 -1 -2 -7 25
1532262509075525 -5 -13 1 2 1 -2 4 -5
1532262509112426 -6 23 3 1 0 -1 1 10
1532262509142346 -9 -14 -5 3 2 1 -1 4
1532262509195210 -6 34 22 -3 1 3 -1 -22
1532262509225125 7 56 76 4 -1 0 2 6
1532262509263024 -8 -64 23 3 -2 -6 -6 -24
1532262509277984 -1 -8 16 3 0 3 5 10
1532262509307903 6 -2 -20 -10 3 0 -5 33
1532262509344805 -2 -22 -67 -9 -8 -3 0 -1
1532262509367744 -4 8 65 2 -2 -2 -24 -16
1532262509420602 -1 -10 -37 -1 -1 1 1 -4
1532262509517343 -6 -8 -26 -1 3 0 1 -2
1532262509562223 1 15 -13 0 -2 -1 1 0
1532262509615082 17 6 4 -1 0 0 -3 -15
1532262509697861 -7 2 12 6 2 -3 5 -2
1532262509749723 0 -4 -3 -3 -2 1 1 -3
1532262509832501 1 -1 13 -6 -3 -8 -2 8
1532262509892341 -4 -2 -2 5 -3 1 3 7
1532262509983098 -9 -13 -4 -5 -5 -2 -2 -3
1532262510013018 3 5 -7 20 -2 1 2 1
1532262510109759 8 22 37 3 0 -3 2 2
1532262510162618 -2 1 -4 -6 -1 1 -1 -1
1532262510200516 -1 1 12 2 -1 2 -2 -3
1532262510252377 7 12 17 16 2 -1 0 4
1532262510267339 -2 6 28 0 -2 1 2 -1
1532262510305236 2 -2 27 1 -4 -3 2 6
1532262510350124 -2 6 33 8 0 1 -2 -3
1532262510447855 -4 0 -1 1 -1 -5 -10 -11
1532262510499717 3 3 16 5 3 1 2 7
1532262510576527 -5 -7 -11 -5 0 0 -2 -22
1532262510599450 7 3 30 6 0 0 -1 2
1532262510657295 6 16 15 9 2 1 2 3
1532262510687215 -3 7 4 -1 -5 -4 -2 1
1532262510710154 -1 4 3 7 1 -2 -2 -3
1532262510725114 2 3 1 3 2 1 0 -2
1532262510748052 2 -2 4 1 -1 -2 -3 -1
1532262510763012 5 0 3 0 -1 -12 1 6
1532262510786948 -1 -3 6 0 0 9 2 -4
1532262510807892 0 0 -2 0 1 3 2 6
1532262510859754 2 1 2 2 -3 -19 -12 4
1532262510876709 -1 -1 -3 2 1 17 0 -2
1532262510898650 1 -1 -1 -3 -2 -22 -5 1
1532262510927572 -7 -5 -2 -3 0 2 -11 -3
1532262510950511 3 -12 -19 -2 0 12 4 1
1532262510987412 -4 -5 21 -4 -5 -18 -7 1
1532262511026309 -1 3 -10 -8 -3 3 -1 -3
1532262511085150 1 8 22 0 1 3 -2 0
1532262511204831 -2 13 -32 -7 -5 -1 -3 -2
1532262511228767 0 -4 0 0 1 2 1 0
1532262511279631 0 -18 20 1 2 -1 -2 0
1532262511295588 1 15 -61 -3 -2 0 -1 0
1532262511310549 -1 -7 6 3 1 0 0 0
1532262511340468 -2 -6 -22 11 -1 -2 1 0
1532262511394324 0 9 68 2 -2 -2 0 -1
1532262511483087 -2 -8 9 -6 -3 4 0 -1
1532262511534948 11 -31 17 -36 -6 9 19 11

1532262511572847 16 26 -59 1 3 -5 -2 -10
1532262511609748 4 4 23 20 -3 -11 -1 11
1532262511700505 1 -13 8 0 0 6 4 6
1532262511722446 -6 9 13 -18 -9 -4 -4 -4
1532262511752367 -1 3 -30 6 2 -4 0 5
1532262511767327 -4 -10 -2 2 -4 -9 -3 -6
1532262511805225 6 -7 -3 -1 -1 7 1 -7
1532262511835153 1 13 1 4 -1 -1 -4 -2
1532262511940073 2 -2 3 1 -1 8 -1 13
1532262511969987 -2 -2 -7 -6 0 -2 2 2
1532262512022845 4 0 20 35 14 5 -1 0
1532262512082685 -2 5 90 7 1 0 0 -1
1532262512112605 5 13 -18 -3 -7 -10 2 63
1532262512127565 -8 6 -2 -12 -14 44 25 50
1532262512157485 -9 15 27 2 7 -5 -14 -55
1532262512202365 -1 43 69 -5 -8 -11 -1 -26
1532262512264200 -2 1 7 -3 3 -4 -7 -22
1532262512300103 2 -22 12 14 5 4 3 -10
1532262512374904 -4 3 -11 -3 1 -2 -1 -1
1532262512404824 1 8 -4 -14 -5 -1 -1 -3
1532262512475635 -2 1 -4 1 2 2 -1 -2
1532262512594317 -5 -24 -1 -1 -5 -3 -3 0
1532262512615261 11 55 16 2 1 -5 -2 -17
1532262512630221 -3 -6 -6 0 -7 -2 -1 -1
1532262512668120 5 -5 6 -2 0 1 1 4
1532262512683079 -1 -55 -19 -10 -10 -5 0 2
1532262512713000 -2 -8 0 -3 -5 -2 -1 0
1532262512832680 3 -1 7 -1 -2 0 -1 6
1532262512856616 -10 5 4 2 3 0 1 -36
1532262512877560 -8 -17 -1 2 1 1 -1 7
1532262512892519 2 -2 3 0 1 0 0 17
1532262512915458 1 15 3 0 -5 -1 -1 0
1532262512937400 0 5 -1 -2 -1 2 -2 1
1532262512975298 1 -11 -3 -9 -4 -3 -1 2
1532262513005218 0 18 -3 8 9 1 1 3
1532262513118928 -4 1 -16 -29 -11 -3 -7 -4
1532262513162797 17 1 -3 2 5 4 11 6
1532262513177756 -12 11 11 6 -4 -3 4 0
1532262513215655 -22 -4 4 -1 -3 -4 -15 0
1532262513237597 10 3 -4 -3 3 -2 -7 0
1532262513312397 -26 -19 -33 -16 -7 -5 -2 -5
1532262513365256 -68 -5 -18 31 6 1 -5 -40
1532262513427090 -68 -27 10 18 -2 -4 -12 -11
1532262513462995 4 -5 6 22 13 9 -1 14
1532262513507875 39 3 -3 -57 -13 -7 -10 -9
1532262513568721 -38 -18 -2 -7 -7 -7 -2 -1
1532262513582674 -39 3 20 6 1 8 14 -14
1532262513627554 40 7 18 41 10 6 15 3
1532262513680414 -18 -11 3 -10 -4 -10 -9 -7
1532262513702354 64 26 -62 -38 0 13 3 -43
1532262513717314 46 -38 0 28 5 -18 -8 -16
1532262513732274 6 -6 -63 -15 -12 -3 -31 30
1532262513747234 -37 0 34 -11 4 11 26 11
1532262513785133 28 30 23 2 -4 9 22 28
1532262513815053 31 28 19 12 6 10 10 -19
1532262513852951 18 -25 10 16 2 -5 -10 15
1532262513882872 -30 11 25 59 17 1 -6 -2
1532262513904813 25 5 3 -11 -8 -8 15 -11
1532262513919773 34 5 0 6 -2 -7 7 4
1532262513942711 -7 12 -1 -1 -4 6 -3 4
1532262513995570 10 1 3 17 0 -1 3 10
1532262514017512 -22 -9 -8 -10 -6 2 0 0
1532262514032472 3 -3 -2 -3 -2 -7 -1 7
1532262514048429 5 14 2 2 5 0 2 1
1532262514092312 3 -15 22 3 3 3 3 0
1532262514122231 -3 -34 -70 -3 0 3 1 -3
1532262514137191 1 21 -23 -1 13 20 7 6
1532262514160130 -1 5 37 7 -9 -23 -6 -2
1532262514175090 -1 -5 5 -2 -6 -25 -6 0
1532262514190049 -3 -5 21 3 -3 -40 -5 -3
1532262514212989 -1 12 54 -17 -5 6 -7 -1
1532262514227948 -2 2 18 8 0 29 6 5
1532262514258866 2 24 46 4 -1 1 0 0
1532262514272829 -2 -4 -49 2 -3 -3 0 -2
1532262514294770 0 -25 -78 -20 3 26 4 2
1532262514339662 4 21 22 10 1 -23 4 1
1532262514362589 3 4 39 7 -4 -35 -8 0
1532262514407469 -1 -13 39 -1 0 11 -2 -2
1532262514437389 0 -10 33 4 3 15 8 0
1532262514460327 2 0 107 13 10 35 5 2
1532262514505207 0 3 -18 1 1 28 -1 -6
1532262514543106 -7 1 60 9 2 11 2 -1
1532262514565047 -1 -5 -46 2 2 -6 -1 0
1532262514609927 -1 -7 -19 -11 -8 -9 -1 -2
1532262514639848 -1 -4 10 3 4 -7 -2 -2
1532262514662792 3 12 -20 10 15 -8 -1 2
1532262514684726 0 -9 31 -7 -8 -8 3 0
1532262514699687 3 -7 20 -1 2 8 3 9
1532262514730604 10 3 25 -3 1 -17 -3 0
1532262514752546 3 1 99 19 1 -13 -3 -4
1532262514775485 -4 3 17 5 0 14 -1 1
1532262514805404 -3 -2 -10 -4 -1 26 -3 -1
1532262514820365 8 7 -16 2 2 2 -1 -1
1532262514857268 -6 -6 -27 1 5 29 8 -2
1532262514880205 -6 -5 -12 -3 2 -5 3 2
1532262514910125 0 2 -22 5 1 12 0 -3
1532262514940045 -1 -3 -24 -3 0 30 7 1
1532262514969964 -19 -13 -3 -3 -6 -16 -2 -4
1532262515007863 7 4 -10 -9 1 4 4 1
1532262515022823 -2 -1 -1 -1 -4 5 -1 0
1532262515037783 -6 -8 -12 4 -2 -7 2 8
1532262515059724 -4 -1 28 -4 -3 -7 -1 -4
1532262515089644 6 4 -4 -5 -3 5 -3 0
1532262515120561 0 7 -13 0 1 5 -3 -1
1532262515172423 3 7 -4 1 0 0 -1 -2
1532262515217303 -2 -10 -4 -2 -3 -6 -1 0
1532262515240241 -1 -7 4 7 6 2 -2 1
1532262515293101 -11 0 18 6 14 4 -13 -3
1532262515354934 -13 7 -9 -1 -2 -6 -3 0
1532262515382860 -16 9 25 2 -5 -1 2 -4
1532262515427740 -21 5 -5 -3 -3 -3 -20 -1
1532262515449681 23 13 -9 -6 -8 0 14 16
1532262515472620 10 -3 4 -2 -1 -2 -9 -4
1532262515511517 24 3 3 -6 -3 0 29 33
1532262515525478 10 10 3 9 10 7 21 20
1532262515600279 5 0 0 -5 -3 -4 -5 -5
1532262515615239 -10 -9 -4 3 0 2 -5 -1
1532262515645158 -27 -2 -5 -1 -1 -3 -10 -6
1532262515660119 13 6 25 37 18 3 -4 -1
1532262515712978 0 4 0 -1 0 2 -3 -1
1532262515734919 -1 5 13 9 -5 -6 -8 -3
1532262515749879 6 5 -9 -25 -12 -4 -5 0
1532262515779799 3 2 5 -11 -4 -3 -3 -1
1532262515802738 0 0 13 8 6 3 1 -2
1532262515862578 -1 -4 85 1 1 -2 -3 12
1532262515877538 -6 -6 -7 -5 -2 2 0 -5
1532262515900475 -3 -10 -30 -3 -5 -21 -5 2
1532262515945356 3 1 -7 6 18 29 -8 10
1532262515990236 -14 -6 8 20 7 -12 0 -6
1532262516012178 -2 13 -3 -15 -3 15 4 1
1532262516087975 -7 0 33 -7 -6 -1 -2 -4
1532262516118899 0 2 23 10 2 5 2 15
1532262516154796 0 5 -2 -6 0 -4 -3 -8
1532262516199676 -6 2 -28 6 0 0 -1 7
1532262516222615 8 -1 10 -1 0 -3 2 14
1532262516267495 -4 -13 11 -11 -8 -5 -3 3
1532262516282455 1 -10 6 6 9 10 2 -12
1532262516305393 0 66 9 1 1 2 15 16
1532262516380193 8 -75 6 5 4 -6 -68 1
1532262516411111 7 -115 20 -2 -7 -12 -26 11
1532262516454993 -16 -32 -21 -9 -3 -4 -13 4
1532262516478930 12 74 15 5 6 19 55 -17
1532262516507852 -6 -8 -13 -8 0 0 -26 11
1532262516552732 12 -42 28 6 3 -6 4 37
1532262516582652 17 17 17 14 9 -1 -65 15
1532262516702331 -7 -49 -19 -15 -14 -6 -26 -8
1532262516732251 5 -35 6 3 4 5 12 19
1532262516762172 24 46 18 6 -2 -4 1 24
1532262516778129 -14 -64 -36 -17 -10 5 -60 -9
1532262516815031 5 -8 -19 -4 -5 -8 -10 -5
1532262516844950 3 -28 11 5 3 -4 -30 6
1532262517055388 -1 7 3 -4 -3 5 38 -35
1532262517115228 2 -21 9 4 -4 -10 -22 52
1532262517160107 -32 -30 -38 -11 -5 -6 23 -4
1532262517212967 10 10 -3 2 3 5 27 6
1532262517242886 -1 1 1 -9 -5 -2 -13 -5
1532262517279788 6 -7 2 -1 -1 -1 -7 11
1532262517325678 -1 6 1 3 -1 -2 -10 -1
1532262517377526 9 66 40 2 -1 -3 -12 12
1532262517430384 -2 1 -69 1 0 0 -3 -9
1532262517475265 -1 40 -26 1 0 -3 -2 -2
1532262517558044 5 14 25 0 -4 -1 -1 4
1532262517587964 -1 5 -13 3 4 1 -3 1
1532262517609905 3 -15 -10 -4 -2 0 -1 -7
1532262517669746 10 36 74 3 0 -2 -2 -1
1532262517737564 -9 -47 5 4 -3 0 -1 0
1532262517851260 -5 0 6 -3 1 2 -2 -11
1532262517873211 7 11 -18 -1 2 0 2 11
1532262517903120 6 -26 -6 0 -1 -1 2 62
1532262517948001 25 7 4 2 0 -1 -3 24
1532262517962961 -2 -13 16 3 0 0 -2 -38
1532262517977921 -9 -24 -5 -1 0 -1 -1 -27
1532262518007842 -1 -9 -45 -6 -1 -2 -3 3
1532262518029791 8 2 13 -1 -2 -4 -10 -79
1532262518082640 15 3 -20 -8 -5 -2 8 -8
1532262518112561 3 25 17 3 -1 -2 -1 12
1532262518165420 -5 -3 9 6 1 -1 -5 27
1532262518180379 -9 -24 -16 -4 -1 -1 1 -4
1532262518240219 -3 -10 11 3 2 1 4 5
1532262518337958 11 104 13 1 2 2 1 21
1532262518359900 11 -86 -26 -2 -3 -1 4 38
1532262518434700 -6 -62 -5 -2 1 0 -2 -44
1532262518510497 3 -9 -5 -1 -1 3 4 19
1532262518540425 -10 -43 -10 -2 -2 1 -3 -9
1532262518668075 4 50 -3 -3 -3 -5 -4 5
1532262518697995 -3 -23 -32 -9 -1 1 2 19
1532262518757835 11 37 14 2 -3 -1 7 43
1532262518794736 -20 -9 2 1 0 0 -1 -34
1532262518855574 0 -48 -37 -4 -3 1 1 0
1532262518952315 -1 -14 -8 1 0 -1 0 -4
1532262518975254 -6 0 9 3 1 -16 2 1
1532262518997196 4 -3 -4 -1 0 14 1 3
1532262519065014 1 5 1 0 0 1 -5 -3
1532262519087953 -4 -2 20 0 0 13 4 -4
1532262519117873 -3 16 9 -10 -5 -8 -2 0
1532262519154774 -1 23 10 -3 -3 1 0 -6
1532262519199654 -7 -16 -5 0 5 -1 7 1
1532262519230571 -1 7 -3 -2 -2 -2 -2 -3
1532262519327313 5 2 6 -14 -4 -2 -4 -2
1532262519357233 -3 -31 -8 3 5 0 -3 -4
1532262519410091 5 12 11 -39 0 1 1 2
1532262519433030 1 6 17 -7 -5 -4 -3 -1
1532262519469943 5 -1 -11 11 9 1 2 3
1532262519529771 -1 6 10 -13 0 -1 -3 -1
1532262519567670 2 1 -3 -10 -3 0 0 1
1532262519605568 -8 -14 8 -3 -1 0 -1 -3
1532262519657430 0 4 -1 2 1 0 1 -2
1532262519672390 6 2 -11 3 -1 -4 1 2
1532262519725249 1 2 -5 -6 -2 -4 -2 1
1532262519778107 4 10 -2 -4 -2 0 1 1
1532262519822987 2 -3 27 -7 -5 -2 -2 -2
1532262519852906 1 -5 -9 -4 -1 1 0 -1
1532262519957626 1 -8 -3 0 -2 1 -2 3
1532262520010486 0 -1 -7 0 1 2 0 -4
1532262520085285 -6 -1 8 -2 -3 -2 -4 -15
1532262520183024 0 1 5 3 0 -2 -3 2
1532262520212944 4 7 8 2 0 2 3 7
1532262520309686 -2 -8 -15 -2 -4 -29 -7 -2
1532262520378502 2 13 38 0 -5 -25 -7 -2
1532262520400442 0 9 1 -4 -4 8 5 2
1532262520437344 2 -4 -22 0 -2 56 20 7
1532262520460283 2 29 39 5 1 23 -3 -3
1532262520475243 -1 -8 12 -5 0 12 -1 -1
1532262520513141 -4 -25 4 -12 -3 -8 0 -4
1532262520528102 0 -4 35 4 4 0 2 0
1532262520550043 -2 3 29 8 2 12 0 2
1532262520566998 -8 -67 16 -4 -3 -3 -3 -2
1532262520587941 -2 -10 -16 -1 -2 -13 -2 -3
1532262520609883 -3 -7 -7 -3 -2 1 0 1
1532262520632821 4 23 32 -5 -4 -3 2 0
1532262520647782 -2 -5 -6 7 5 3 0 -1
1532262520662742 -4 1 -18 1 0 3 0 1
1532262520692662 -1 4 18 1 -2 0 -1 0
1532262520715600 -5 -44 3 -6 -1 -3 -2 -2
1532262520737541 -2 -4 -7 -4 -2 1 -1 0
1532262520752510 2 -6 -2 0 -2 -1 0 2
1532262520775440 -2 3 -13 19 3 0 -2 -2
1532262520822328 -4 -41 -23 -20 -8 -3 -2 -2
1532262520857222 -1 12 -22 -7 -1 -2 1 1
1532262520872181 -1 -12 -74 -3 1 0 2 1
1532262520939999 12 -18 22 2 -5 -3 -3 85
1532262520962939 11 -8 22 -4 -14 -59 -2 66
1532262520992859 -12 -3 -21 1 7 13 6 -14

1532262521029759 -4 15 -36 -25 -13 7 1 -9
1532262521052699 1 43 51 20 10 3 5 0
1532262521082619 -3 -4 26 12 3 -4 -9 -3
1532262521105557 -10 8 7 24 12 -1 1 1
1532262521157419 2 -1 28 -17 -1 10 2 2
1532262521187339 2 -2 -7 -3 -4 1 2 0
1532262521210278 0 -5 21 20 4 1 -4 -3
1532262521232218 -6 5 -29 -4 0 -2 2 -1
1532262521247178 3 -6 -18 2 -3 4 4 -1
1532262521278095 -3 -4 50 14 5 1 1 -1
1532262521300037 -3 -3 5 -13 -3 -17 -3 -3
1532262521329960 -5 -12 19 -8 -4 -3 -3 -2
1532262521352896 -4 -2 1 9 1 0 -2 -1
1532262521389797 1 -7 2 -1 -2 -6 2 -2
1532262521404757 0 5 -6 -14 -5 0 0 0
1532262521419717 -2 0 -51 3 1 0 0 1
1532262521465594 0 2 -15 5 0 -4 -2 1
1532262521480554 -1 7 16 -4 -4 3 4 9
1532262521502496 0 7 -13 1 3 2 1 0
1532262521517455 -2 -7 -28 29 12 2 0 -1
1532262521555354 0 2 26 -13 -7 -9 -1 -3
1532262521570315 -1 -2 -6 -6 -4 -6 -7 -2
1532262521585274 -7 13 32 -1 0 -2 -1 -3
1532262521630169 -1 5 -50 -4 0 9 0 -2
1532262521645114 3 9 11 -2 -2 -7 -2 -1
1532262521689994 1 -2 11 -1 -2 6 0 -1
1532262521704955 -1 6 -2 -2 1 -2 1 -2
1532262521727893 -1 -4 -23 9 2 -1 1 1
1532262521757813 -5 6 40 4 -1 3 -2 1
1532262521794714 5 3 10 -2 2 1 2 0
1532262521824635 -3 -3 -11 -9 -4 -7 -2 0
1532262521840592 -1 16 -1 1 0 2 1 -1
1532262521885472 0 4 -29 0 -3 -10 -2 -2
1532262521909407 -1 1 -18 2 3 -4 -9 -1
1532262521960272 -1 -5 29 12 2 -6 -1 -1
1532262521983212 2 -2 -55 -2 -1 2 2 -1
1532262521997173 -3 -2 12 1 2 5 -3 -2
1532262522013130 4 -2 6 -1 -3 -8 1 0
1532262522043051 7 -16 6 -3 0 2 4 2
1532262522058010 -1 10 -15 0 -2 -12 3 0
1532262522087930 -4 2 14 2 0 -9 -4 -3
1532262522109871 -3 -1 -23 -2 0 5 2 1
1532262522139791 -2 8 -1 2 2 -6 1 0
1532262522154752 -2 5 25 -4 0 0 -3 -3
1532262522169713 -2 2 6 -2 0 -3 -2 -1
1532262522192651 3 2 -4 -11 -2 1 -1 0
1532262522207610 -2 -7 4 3 0 3 -1 -1
1532262522230549 2 3 10 -3 -2 -2 0 1
1532262522260468 0 5 -13 2 -1 -1 -4 -2
1532262522320309 3 -1 -18 -6 -1 -4 -1 3
1532262522350229 0 -1 -3 -7 -1 4 1 -1
1532262522395109 -1 -11 3 3 2 -3 0 -2
1532262522469908 -2 -6 5 5 1 4 0 0
1532262522501823 -2 0 12 0 0 -3 2 1
1532262522514789 -4 -16 -68 -4 -1 8 -1 0
1532262522582661 -1 -10 -39 -5 -1 -3 1 -3
1532262522597669 1 3 22 0 -1 -3 1 -1
1532262522635567 -2 5 30 3 2 -3 -5 -1
1532262522657509 -1 0 -23 2 0 7 1 0
1532262522687428 3 -10 18 -4 -3 -2 -1 -3
1532262522717349 0 -8 -17 -3 -1 -10 -1 0
1532262522762229 1 2 17 0 -2 1 -3 -1
1532262522808106 -4 -7 25 -3 -1 -2 0 -1
1532262522830047 0 2 -5 0 1 2 -4 -2
1532262522852986 1 -4 -9 1 -2 2 -1 -1
1532262522867945 0 4 -2 -4 -3 -4 -1 -1
1532262522889914 -1 -1 -8 -2 -1 -7 7 0
1532262522912826 6 -8 2 3 -1 1 1 1
1532262522934767 -2 10 -5 -2 -1 -8 0 2
1532262522957705 -2 -6 -43 -5 -2 0 1 0
1532262522979647 1 -1 -10 -3 1 4 2 -2
1532262523011562 -2 7 57 2 2 8 1 -2
1532262523040485 -1 4 15 0 -2 -8 0 -1
1532262523062426 -2 27 23 -4 -3 -2 -1 2
1532262523107305 0 -13 -24 -3 -2 2 -3 -2
1532262523153182 0 -7 -17 1 -2 -1 0 -1
1532262523168154 2 -11 -14 3 -1 0 -1 1
1532262523190098 -1 -3 10 -1 -2 -9 0 0
1532262523220004 -2 1 5 3 1 8 -3 0
1532262523264884 -3 -4 -26 0 -2 -3 -3 -3
1532262523287823 0 4 16 1 0 1 2 0
1532262523302783 2 2 -3 -1 1 -3 0 0
1532262523339696 1 -8 -13 -1 2 1 1 0
1532262523362638 -2 3 8 1 -2 2 -1 -2
1532262523385577 0 -1 -2 -5 -2 2 -3 -2
1532262523430457 0 -13 4 0 -3 -11 -2 -1
1532262523445416 1 -3 -9 1 0 2 1 1
1532262523505257 -2 -9 17 0 1 -5 -1 -3
1532262523527198 -1 2 6 0 0 -3 1 -1
1532262523558115 1 7 11 -1 -3 -1 0 0
1532262523609976 0 3 8 1 -1 3 2 2
1532262523632915 -4 -1 -5 -3 -2 1 1 -2
1532262523647875 1 -2 -19 -3 -1 -1 -2 0
1532262523699737 -4 0 26 2 0 -1 -1 -3
1532262523723115 2 9 11 -3 -1 0 -1 -3
1532262523759999 -1 -5 13 -3 -2 -1 0 1
1532262523789921 0 4 -10 1 -1 -3 -3 0
1532262523864720 0 -3 23 1 1 -2 0 -1
1532262523910596 0 1 -6 6 1 -3 -3 0
1532262523925556 -5 5 -14 2 0 1 -1 -1
1532262523940516 2 -4 -28 -2 0 0 0 0
1532262523985396 -1 -16 -43 -5 1 0 -1 1
1532262524000357 0 -6 -8 -5 -2 -2 -1 -1
1532262524037257 3 7 21 -1 -1 1 2 0
1532262524052218 0 5 0 1 1 -1 0 -2
1532262524090127 -2 -2 -5 -1 1 6 -1 -2
1532262524129012 1 1 -18 2 1 2 2 0
1532262524164947 -2 6 24 -2 -5 -5 -2 -1
1532262524179907 -1 6 22 -1 -2 -10 0 -1
1532262524194866 0 -2 -5 -1 -1 -6 -1 0
1532262524224787 -5 4 -18 -1 0 -1 0 0
1532262524239748 1 -6 -7 2 -1 6 2 0
1532262524270664 -2 -3 9 1 2 2 -2 -2
1532262524292606 0 3 7 1 0 0 3 -1
1532262524322526 -3 6 27 5 -1 -1 -2 -2
1532262524367406 -2 5 9 8 2 2 -2 -2
1532262524405304 0 -2 -10 0 -3 1 1 1
1532262524450184 3 -5 -15 -4 0 1 -1 1
1532262524511026 4 2 9 -2 -2 1 -1 1
1532262524532963 -4 1 -8 -4 1 2 0 -2
1532262524577843 -2 -2 -7 -1 0 0 -1 -2
1532262524599784 -4 -7 24 3 2 6 1 0
1532262524614744 0 2 -1 -2 -3 -3 -1 -2
