1532180058913235 -4 0 15 21 2 0 -1 -3
1532180059003011 -14 -30 -10 -35 -8 -3 -2 -7
1532180059020948 5 -2 2 -5 1 0 0 0
1532180059077795 -10 3 -35 -2 -3 -2 -2 -5
1532180059100734 6 -3 7 4 1 6 -2 4
1532180059141635 3 -1 -24 -6 -2 -4 0 0
1532180059175534 1 -1 34 13 7 2 -1 0
1532180059190494 -7 -16 -6 -9 -7 -1 -1 -1
1532180059213432 5 -2 4 -6 -4 -5 0 2
1532180059258313 -2 4 -22 8 6 1 -1 -1
1532180059290227 1 1 13 9 -1 -3 0 -1
1532180059325134 3 5 15 11 3 1 -1 -1
1532180059364030 0 -3 -7 -15 -8 -4 -4 1
1532180059416889 1 3 -26 3 0 1 1 -3
1532180059452793 0 -7 -2 -2 -3 -2 -1 -1
1532180059536575 0 6 2 -8 -4 -3 -2 1
1532180059619354 1 4 52 12 7 1 0 -1
1532180059701135 1 -1 -67 -16 -7 -24 -7 -5
1532180059767956 -3 -17 -67 -9 -10 -10 0 1
1532180059820833 1 5 19 6 -1 31 0 1
1532180059842774 -5 8 10 -4 -5 -19 -7 -3
1532180059872695 0 -2 7 2 0 -7 1 -2
1532180059902614 3 -9 0 -3 3 26 5 1
1532180059925553 5 -3 -7 -10 -6 -5 -4 0
1532180059948491 8 -3 -16 -1 -1 -2 -2 2
1532180059970432 -6 -9 -1 -1 2 6 0 0
1532180060000353 3 -7 7 -1 -1 0 0 -2
1532180060023291 3 3 20 9 4 3 -1 -4
1532180060068171 -4 14 30 -1 -5 -17 -3 -4
1532180060090113 6 2 16 0 -8 -11 0 -2
1532180060120033 4 -2 -12 -1 -2 0 3 1
1532180060172892 6 14 17 7 3 3 -2 -1
1532180060225751 6 -21 -5 -5 -3 -6 1 5
1532180060262652 -9 -21 -12 5 2 0 1 0
1532180060286587 -9 -1 10 2 3 7 -2 -5
1532180060317505 2 9 -2 2 -1 7 -4 -2
1532180060345431 -39 24 -7 -4 1 -3 0 3
1532180060368369 1 -1 6 -2 -3 -7 -2 -1
1532180060390310 10 -21 -10 -4 -2 -6 -3 0
1532180060413249 1 14 0 3 0 -2 1 0
1532180060465110 4 -12 -19 -3 0 -1 -1 1
1532180060496028 -4 2 13 -2 0 -2 0 -1
1532180060540907 18 108 -37 3 0 1 1 3
1532180060600748 -1 -22 -20 -2 -1 -2 -2 -4
1532180060623687 -8 -39 1 0 -3 1 0 0
1532180060690508 -16 24 21 1 3 6 2 -2
1532180060728407 -1 -9 -9 -3 -1 5 2 0
1532180060788246 11 48 20 0 -2 2 4 -1
1532180060818166 15 21 -19 -3 -3 -5 -4 1
1532180060878012 -32 29 11 5 2 1 -3 -2
1532180060901948 10 -18 6 2 1 -1 -5 -4
1532180060930871 -6 -53 4 1 0 0 0 -2
1532180060952812 3 28 5 1 0 0 2 -1
1532180060990711 -5 0 -2 -2 5 0 -1 4
1532180061044567 -6 0 -20 -9 -13 -3 1 3
1532180061059526 5 15 9 0 10 0 -2 -1
1532180061082465 -7 -8 -5 -23 -9 0 0 -4
1532180061110391 8 -8 -5 -11 -12 -5 -3 -1
1532180061133329 -5 -8 -8 -3 -8 -2 -6 -3
1532180061208129 -1 5 13 -4 2 -1 7 1
1532180061275947 -14 -1 -5 -7 -10 -5 -3 -5
1532180061320828 -3 -3 -7 8 14 5 0 0
1532180061336785 -4 -7 -9 6 -1 0 1 -4
1532180061373686 -4 -1 -15 -24 -10 -3 4 -3
1532180061432529 5 0 0 -15 -7 -2 -1 1
1532180061470428 6 9 13 0 0 3 2 5
1532180061515308 5 9 16 -24 -1 5 7 3
1532180061538246 -7 -19 -16 -26 -14 -14 -6 -7
1532180061635000 6 4 27 -7 -3 -5 -28 -1
1532180061710798 -2 -18 -10 -2 -1 -3 -39 -3
1532180061740718 -9 14 -24 6 -3 -10 8 -2
1532180061757678 6 -8 -28 -10 -4 -2 5 3
1532180061800557 9 -2 -20 -5 -1 -1 -3 -2
1532180061890318 -18 -17 -11 -5 1 0 -36 -2
1532180062009998 2 -5 9 3 3 3 -2 -2
1532180062070835 -1 3 9 -6 -8 -4 2 0
1532180062145635 -2 7 2 -3 1 0 1 -1
1532180062190515 -15 15 3 0 -2 0 32 -5
1532180062258334 33 66 -7 10 5 2 -10 4
1532180062348094 7 2 13 -23 -2 0 -24 -8
1532180062393971 -1 -8 0 34 12 7 6 -7
1532180062422894 10 -8 1 11 3 8 6 5
1532180062437854 -19 -21 7 6 4 3 8 -1
1532180062467774 -2 -26 -18 -5 2 0 5 7
1532180062505673 0 -19 12 9 3 1 -11 7
1532180062520632 -2 -92 -70 3 8 8 30 -3
1532180062542574 2 9 -8 3 -1 -2 -17 3
1532180062565513 6 33 16 2 1 1 1 16
1532180062588466 7 -1 -39 -2 1 1 -2 5
1532180062655273 -57 19 18 -5 -4 -2 2 -22
1532180062708138 -5 12 -2 -9 -7 -3 37 2
1532180062730073 6 1 1 11 7 7 -22 4
1532180062767971 14 11 27 40 9 1 -2 4
1532180062805870 13 -15 -4 4 2 0 -11 4
1532180062827811 18 7 24 21 9 4 7 2
1532180062895630 -8 -13 10 -3 -3 1 -3 -4
1532180062910589 22 12 21 16 2 -2 -3 2
1532180063040243 -14 -24 -10 -21 -8 -5 -3 -4
1532180063098088 7 5 6 7 -1 -3 0 0
1532180063120029 -3 -2 -3 3 2 -2 2 -3
1532180063187848 1 4 -4 -6 -4 -1 3 -1
1532180063210787 -4 -3 -2 -8 -1 -1 -3 -1
1532180063225747 5 1 -11 5 1 1 -1 1
1532180063247689 3 10 11 0 -4 -2 -2 -1
1532180063262648 2 10 16 0 -1 -1 0 0
1532180063285588 -8 -14 -14 -5 0 1 -1 0
1532180063300547 5 7 -9 -5 0 2 -2 2
1532180063330466 -4 -1 1 0 -2 -1 0 0
1532180063345427 -8 -2 7 -5 2 3 9 -3
1532180063368365 3 -18 -2 1 1 1 -3 1
1532180063383325 7 0 1 4 0 -5 25 1
1532180063428205 -1 -10 6 9 1 -2 -5 -1
1532180063450147 -2 -3 -3 2 1 2 -2 -2
1532180063473085 1 15 -4 -9 -4 -2 -5 -3
1532180063509987 3 1 4 5 0 2 4 3
1532180063524946 -4 -4 3 1 2 5 17 0
1532180063540911 5 5 8 -1 -1 -1 7 0
1532180063585784 -10 -18 -9 -3 -4 -2 6 8
1532180063624680 -7 11 4 8 8 3 0 -5
1532180063660585 7 9 -1 -2 -3 0 13 4
1532180063690504 -7 0 10 -8 -5 -6 -24 -10
1532180063720424 6 -7 -26 -46 -15 -10 -7 -6
1532180063743362 -3 29 2 7 6 3 10 -6
1532180063773282 0 -14 -14 -7 -2 -2 -6 0
1532180063833123 4 19 30 10 4 5 5 2
1532180063848083 11 -1 -13 -8 -3 -2 -3 1
1532180063886008 13 51 86 2 -5 -3 -5 -13
1532180063901939 1 15 -15 2 -1 0 10 4
1532180063922883 -25 -32 -17 -5 -3 1 -8 -9
1532180063945822 5 6 -9 -5 -7 -10 -13 0
1532180063960781 5 10 -7 2 5 4 29 -61
1532180063982722 9 -5 -16 0 -1 -5 -4 27
1532180064020621 -20 -23 -10 -43 -8 -3 -5 -6
1532180064042568 -8 -4 -3 20 3 4 0 3
1532180064057523 0 3 16 -24 -6 -6 -20 -4
1532180064088439 -10 -37 -17 5 6 5 -3 3
1532180064118360 5 14 -5 1 -4 -3 -7 3
1532180064133320 4 11 -7 3 0 0 7 4
1532180064172216 -12 -25 1 -1 3 4 11 0
1532180064193160 -9 -28 -40 -5 0 -3 -6 -12
1532180064208119 10 13 23 1 -2 -2 -1 7
1532180064230061 14 47 17 -6 -4 -5 -33 37
1532180064253000 -13 -19 1 -9 -2 0 1 7
1532180064275938 1 1 -2 10 5 1 -4 -10
1532180064290898 21 25 2 22 5 4 2 -4
1532180064305858 16 18 29 30 10 4 4 -1
1532180064320818 -46 -39 8 -13 1 2 11 -20
1532180064335784 20 24 2 -6 -4 -3 13 7
1532180064357720 4 0 18 14 3 -2 -8 0
1532180064372680 -18 -29 -39 3 3 2 0 -7
1532180064395619 -5 -9 -22 -10 10 10 28 -4
1532180064410579 16 37 17 19 -3 -3 5 -5
1532180064432520 4 -20 17 -1 1 1 2 3
1532180064455459 -6 20 10 12 0 0 -2 -1
1532180064493357 2 8 13 -1 -1 -3 -32 -4
1532180064538238 -21 -14 -1 1 1 2 -13 -18
1532180064560178 0 -5 -2 -1 3 -4 24 22
1532180064598078 10 12 19 11 1 2 -23 25
1532180064613037 -27 -28 0 19 2 1 -13 7
1532180064650936 4 -8 -3 -34 -9 -5 -13 -7
1532180064680856 5 6 16 -4 -8 -6 -11 -5
1532180064717756 11 37 -3 26 0 -3 1 -4
1532180064740696 -3 6 42 9 7 7 5 4
1532180064770616 10 16 10 -3 -4 -4 4 0
1532180064800535 -2 19 4 -2 3 6 -1 -1
1532180064815496 2 6 10 4 -2 -6 -3 -5
1532180064845415 10 22 -1 6 6 8 -6 15
1532180064898274 2 -5 -8 9 1 -1 16 -1
1532180064929192 -10 -13 2 -2 3 2 6 -3
1532180064958114 -12 5 2 -25 -11 -8 -10 -1
1532180064995016 3 -17 -48 -1 -5 -3 -17 -5
1532180065011970 -4 -11 -6 -16 -4 -2 0 -1
1532180065032914 -11 -2 -6 6 3 -1 -4 2
1532180065047874 10 33 1 3 1 4 3 2
1532180065077794 -3 -9 4 -4 -3 0 -4 -1
1532180065092754 -5 -11 1 -3 -6 -5 -9 -1
1532180065115693 -10 -12 10 1 -3 8 6 -21
1532180065130653 -4 7 5 3 5 0 -4 0
1532180065152594 4 3 -1 -3 -4 -5 -4 -3
1532180065175533 -1 6 11 1 -3 -2 1 2
1532180065197474 2 2 -1 3 4 3 -11 -1
1532180065228392 6 0 6 4 -2 -2 0 -1
1532180065273271 0 0 0 19 3 1 0 2
1532180065288232 -5 -6 -30 -40 -8 -4 -6 -2
1532180065303192 6 11 12 25 2 -1 -1 2
1532180065327128 -23 -25 1 -14 -5 -5 -5 -7
1532180065348072 5 0 -28 -14 -5 -6 -8 2
1532180065377992 5 15 12 32 12 8 5 0
1532180065400930 22 20 7 4 -5 -6 -2 0
1532180065422871 1 -1 7 -8 -4 -4 1 0
1532180065437832 0 2 -3 0 2 2 -1 0
1532180065467752 -12 -10 2 0 3 4 5 -1
1532180065527592 9 -5 4 5 2 0 0 2
1532180065557511 6 18 6 3 0 3 9 1
1532180065573481 -1 5 -29 -18 -6 -6 -4 -6
1532180065604387 -7 -8 8 -2 -3 1 -3 -3
1532180065625331 0 2 5 13 5 3 -1 1
1532180065648269 7 24 11 10 2 -3 -1 2
1532180065678189 -3 -1 -7 -4 -1 0 1 -2
1532180065693148 0 -6 -1 -2 0 -1 -1 0
1532180065708109 0 -2 -3 -1 2 -2 -2 0
1532180065723069 0 -1 -1 1 1 0 3 0
1532180065759970 -1 83 9 -2 0 0 -1 -2
1532180065782909 2 -12 -4 -2 1 -1 0 0
1532180065805848 2 12 3 4 1 -1 -2 0
1532180065827788 -2 -24 -7 0 -13 1 -2 0
1532180065842749 -2 -30 -6 0 4 -2 1 0
1532180065865688 -2 -12 -8 -2 4 -1 2 -1
1532180065880647 0 -1 1 2 1 -1 -4 2
1532180065902598 1 6 4 1 1 -3 0 1
1532180065917549 -3 -14 -2 -5 -3 -3 0 -2
1532180065947469 1 19 -7 -6 -3 4 0 0
1532180065970408 0 -1 -1 -1 -1 0 0 -1
1532180065985368 1 22 12 5 0 -6 -3 -1
1532180066000328 5 16 14 16 2 0 1 0
1532180066023266 -4 10 8 9 0 0 -3 -3
1532180066045207 -4 -35 -18 -1 0 -6 -1 -2
1532180066068146 0 15 14 -8 -5 -5 0 1
1532180066098066 0 3 27 1 1 6 1 0
1532180066113026 -6 -30 -43 -16 -4 1 -1 0
1532180066128984 3 16 11 -3 -2 -4 -2 0
1532180066150925 -9 -20 -18 -4 -1 -1 -1 -3
1532180066172866 3 7 2 8 -1 -4 -1 1
1532180066195805 -3 9 13 -2 -1 10 0 -1
1532180066217746 0 2 15 0 1 -4 -2 0
1532180066232706 -3 3 -29 -1 0 -2 2 -2
1532180066255645 2 2 15 1 -1 -9 -1 1
1532180066277592 3 -1 28 -14 -6 3 4 2
1532180066292546 -11 -5 -4 0 1 0 -4 -8
1532180066322466 5 15 18 -2 -2 25 5 -7

1532180066353383 -5 -9 -7 -2 -9 -23 -29 55
1532180066383388 -8 -13 33 5 4 1 4 -38
1532180066407324 1 13 51 11 4 0 2 -35
1532180066428268 -7 4 -22 4 3 -5 7 -2
1532180066452219 5 32 11 10 -1 4 -4 -25
1532180066480129 0 7 25 4 1 0 5 -7
1532180066510049 2 0 21 6 3 3 2 -7
1532180066532987 -4 1 -1 -8 -4 1 1 -1
1532180066562907 2 -9 -2 0 -2 -2 0 -2
1532180066585846 -1 -7 -15 -7 -1 -1 2 2
1532180066622748 -3 4 20 -19 -8 -1 -1 -2
1532180066637708 4 21 18 5 1 1 1 0
1532180066697548 -2 7 9 -1 -1 -1 -1 -4
1532180066720487 -6 12 22 -4 1 1 2 -1
1532180066750406 1 13 -14 -4 -1 1 0 2
1532180066780326 2 -8 16 0 1 1 2 2
1532180066795286 -1 1 -5 2 0 0 -1 -1
1532180066833185 -3 6 34 -2 -3 -1 -1 -2
1532180066863105 -1 5 -31 -3 -3 -2 -2 -2
1532180066901014 1 -4 5 -3 -1 2 -2 1
1532180066952865 0 -2 3 24 3 0 0 1
1532180066991761 -2 -1 8 1 1 1 -1 -1
1532180067027665 -2 6 15 -6 -2 0 -1 -2
1532180067050604 -1 5 -4 -4 -2 -2 0 0
1532180067089509 -6 23 23 -3 -2 -1 -3 -3
1532180067110443 3 12 -14 -1 0 -3 -1 0
1532180067155324 0 -38 -64 5 2 0 -1 1
1532180067185244 2 -39 -60 10 2 1 -3 -2
1532180067215164 -1 -22 30 -7 -3 6 2 0
1532180067260044 -12 38 -22 2 1 -12 -1 -3
1532180067305920 10 -1 22 0 -2 -21 16 -7
1532180067328860 -6 -5 -37 -10 -16 -58 -14 -9
1532180067374737 -13 5 53 -8 -3 8 -5 -10
1532180067417622 -3 23 -32 -16 -2 10 0 -1
1532180067447542 -2 -16 -13 3 4 -1 1 -2
1532180067462502 0 2 -49 -9 -2 2 2 -3
1532180067478460 3 34 18 29 9 6 1 0
1532180067508380 -3 -16 16 2 -5 0 -3 1
1532180067553259 -2 -11 29 1 1 1 0 0
1532180067575201 -2 -11 -8 -19 -11 -1 -2 -1
1532180067598139 -3 -3 -9 -18 -1 0 0 -1
1532180067628060 -1 -4 -9 8 3 -3 0 0
1532180067658976 1 -7 -7 -5 -5 -1 0 -2
1532180067695878 1 1 -52 -3 0 1 2 1
1532180067710838 0 -1 -1 7 -3 -1 -3 -2
1532180067740758 -1 -9 -5 -6 -5 0 0 -2
1532180067771675 -1 -1 8 8 0 -2 0 -1
1532180067792619 0 9 1 -4 1 -1 -2 -1
1532180067816555 0 -3 25 0 -1 1 0 0
1532180067845478 1 11 -27 -5 2 1 -1 0
1532180067875398 0 -10 -3 0 -1 0 1 2
1532180067899334 -1 -2 -7 -11 -1 0 0 1
1532180067913297 -4 0 19 -2 -4 0 -2 -2
1532180067950198 -1 1 -1 7 1 1 -3 -3
1532180067973137 0 -3 3 4 5 1 0 1
1532180067995078 -4 -4 -6 14 0 2 1 -2
1532180068018017 1 6 9 -8 5 1 1 -1
1532180068032977 0 -5 -4 8 1 -1 0 -1
1532180068055915 1 0 -4 -3 0 -3 0 0
1532180068070875 1 3 5 2 3 -3 -1 0
1532180068122737 -2 5 7 5 -1 0 -1 -1
1532180068145676 1 -2 0 -4 -6 -1 0 -1
1532180068190555 -1 -1 0 -11 -6 -4 -3 0
1532180068228454 -1 0 0 -1 -2 0 1 0
1532180068273334 0 -2 3 -1 -1 -2 -1 1
1532180068318213 1 -2 -2 3 -3 -1 1 -2
1532180068363094 0 11 4 -4 2 -1 1 -1
1532180068393014 -3 -3 -2 3 0 1 -2 -1
1532180068430912 -3 -6 -1 4 3 2 0 1
1532180068467814 -1 -2 -7 -2 -50 -6 -4 0
1532180068497734 0 4 3 -1 -2 -2 1 -1
1532180068535633 -2 -5 -1 -12 7 -1 -1 -2
1532180068550592 0 2 0 -6 6 3 -1 -2
1532180068595473 -14 7 8 -1 4 1 0 -6
1532180068618411 8 0 0 6 2 -1 0 1
1532180068648331 -3 18 11 0 -1 1 0 -1
1532180068670273 -8 -8 -12 2 5 0 -1 3
1532180068708171 3 15 7 1 -4 -1 0 -1
1532180068731110 -2 -4 -8 0 -1 -1 0 -1
1532180068782971 10 -1 24 0 -3 -2 -1 -1
1532180068835830 -8 -7 -12 -3 -1 0 0 -3
1532180068947531 1 44 11 -2 -3 -2 0 3
1532180068985430 2 -26 -3 -2 -2 0 0 -1
1532180069045270 -16 22 -1 -3 0 0 0 -3
1532180069075190 13 -44 -7 1 -1 0 1 5
1532180069113103 -14 9 4 0 -1 0 0 0
1532180069137024 0 3 10 2 0 -2 -1 -3
1532180069165946 5 -1 -3 -5 -1 -1 1 1
1532180069195867 0 10 0 -1 0 -1 -3 0
1532180069217808 -6 -28 -2 -3 -6 -3 -2 -3
1532180069240746 2 20 11 -1 -5 -3 -1 1
1532180069277648 5 -9 -3 -2 -1 0 0 -1
1532180069292620 0 -6 -8 2 2 2 1 -2
1532180069315547 -15 -11 2 4 1 0 0 1
1532180069330507 9 21 1 1 0 0 2 0
1532180069353446 -7 10 -3 -1 -1 -1 1 -2
1532180069375387 -1 7 4 -2 -2 0 -2 -1
1532180069390347 -7 4 -1 -1 0 0 0 0
1532180069428246 4 4 1 2 -1 -1 -3 -1
1532180069450187 4 20 0 -4 -2 -2 -2 -2
1532180069473126 0 -4 0 3 1 -3 1 0
1532180069510027 -1 0 -3 2 3 1 -1 -2
1532180069532966 6 8 10 6 3 4 3 1
1532180069562886 -1 -1 -13 -18 1 12 2 0
1532180069585824 -2 -9 -7 -1 -1 -5 -2 0
1532180069622726 -2 -5 -10 15 -4 -4 -4 -4
1532180069652645 2 14 -14 -1 1 0 1 1
1532180069675584 -1 14 6 3 -1 -2 -11 -4
1532180069690544 5 -1 -27 -1 -2 1 0 6
1532180069705504 -10 -13 -13 -19 0 -3 18 -3
1532180069766342 -1 -5 -2 13 -3 -6 -104 -11
1532180069780304 1 -1 24 9 0 -6 -12 -2
1532180069818203 -14 13 -16 4 -1 1 -1 -6
1532180069840144 -18 -2 -40 -11 0 -11 -17 -3
1532180069855104 17 17 31 10 3 4 12 13
1532180069872058 12 3 10 -9 -6 -1 10 25
1532180069885024 -7 45 41 -15 -3 -3 -15 -27
1532180069907963 5 60 5 7 -4 -6 -56 -18
1532180069930902 -20 -19 -53 -5 -4 -6 -47 -20
1532180069952843 -14 4 17 1 -4 2 66 21
1532180069975781 -6 17 26 3 1 4 -20 7
1532180070020662 8 6 38 2 -1 5 -25 1
1532180070035621 -6 -37 -6 -16 -3 1 74 -8
1532180070057563 -1 -19 -24 11 8 10 10 2
1532180070080502 -1 -25 -21 11 9 6 7 0
1532180070118400 0 0 33 14 -2 -2 0 0
1532180070163280 3 20 -10 -3 -3 -6 -30 9
1532180070193199 -2 -3 -14 -2 1 2 54 6
1532180070215141 -7 -11 9 0 6 3 -55 -6
1532180070245062 3 -14 -1 0 -5 -5 -36 -2
1532180070274981 -2 2 4 3 4 3 8 4
1532180070312880 -7 -10 14 5 4 3 65 0
1532180070358758 9 15 20 -2 4 3 -20 3
1532180070402643 -15 -25 -34 -31 -2 5 16 -2
1532180070432560 -3 -13 90 41 -2 -7 -13 -4
1532180070447519 8 10 27 22 7 1 -3 3
1532180070479435 24 39 -23 -13 -3 0 -9 5
1532180070515339 4 -20 -13 -5 1 2 14 5
1532180070560219 2 -3 -14 0 -4 -7 1 -1
1532180070590138 -7 72 65 9 1 1 -11 -4
1532180070605099 6 33 -13 -4 -6 -3 27 -3
1532180070635019 -17 -9 0 -1 -1 -2 6 -2
1532180070657957 3 -50 -10 4 0 -4 -64 -10
1532180070672917 -19 -40 -30 0 -2 -1 48 -5
1532180070710816 -12 -20 14 -6 -5 -10 -81 6
1532180070725776 19 10 -1 5 2 8 65 1
1532180070777637 7 23 -4 -1 2 1 15 -10
1532180070792598 -20 -18 3 -5 -2 -4 9 -8
1532180070845456 -3 -5 45 4 -8 -4 -3 -3
1532180070875376 25 46 -25 4 -1 -3 10 2
1532180070898314 -2 -14 8 -5 2 3 -3 2
1532180070920255 -19 -18 -32 -10 -3 -1 -4 -7
1532180070950175 5 8 -14 -11 -6 -2 1 -1
1532180070980096 -1 1 4 0 9 7 16 -1
1532180071032954 1 5 8 -6 -6 -3 -4 2
1532180071077834 -9 -12 7 -1 0 3 -27 2
1532180071107754 4 -2 1 1 2 1 15 -1
1532180071169589 2 1 11 0 0 2 6 1
1532180071220453 -2 2 1 0 -1 -1 -2 -4
1532180071250373 -4 -2 -8 1 0 1 8 0
1532180071280293 1 3 9 -2 0 -2 0 -2
1532180071303233 3 11 11 -1 -3 -5 -36 -4
1532180071363072 -8 -4 2 -4 0 0 11 -1
1532180071385013 0 1 -9 -1 1 2 0 1
1532180071415936 3 6 1 0 0 1 8 3
1532180071445858 -2 -8 -9 -4 -4 -3 3 1
1532180071497712 9 9 2 -5 -1 -3 -28 2
1532180071551568 -22 -6 -1 -5 0 4 11 -6
1532180071610410 -3 -5 -13 0 -3 -2 -16 -1
1532180071633348 1 6 -11 -18 -6 -7 -20 -1
1532180071670250 7 6 7 2 -1 -2 -7 -1
1532180071709147 2 6 7 7 0 -5 -71 -5
1532180071723109 3 6 -9 -4 -1 2 16 1
1532180071767989 11 6 -4 2 1 0 4 3
1532180071782949 2 -18 -3 3 6 6 1 3
1532180071857749 -4 -15 14 6 -2 -3 0 -8
1532180071896647 -12 -24 2 -3 0 -3 -1 -4
1532180071925568 9 30 27 -6 -6 -8 -17 -3
1532180071970448 -3 -9 -27 -20 -3 -1 -15 0
1532180071986405 16 33 14 11 1 -4 -31 0
1532180072030288 -14 -41 -6 -13 -1 -1 -3 -5
1532180072068186 -3 -24 -6 5 5 4 8 0
1532180072113066 -8 28 -6 -3 -8 -9 -1 1
1532180072165925 -25 -7 20 6 5 2 -55 -33
1532180072195844 18 -28 -1 1 2 6 -7 8
1532180072225765 -9 -3 -33 -16 -5 0 -23 -9
1532180072262667 -11 13 31 -29 -9 -5 -3 -2
1532180072300565 -2 4 -12 -7 -1 -1 -5 1
1532180072337466 8 42 18 5 -3 -1 -33 -4
1532180072353423 -1 -6 -8 6 7 8 -8 1
1532180072368383 3 9 23 1 -2 1 -3 0
1532180072398304 -14 -9 -1 -11 -9 -4 1 -4
1532180072420245 19 25 1 1 0 3 7 4
1532180072450165 -10 3 2 3 -2 -4 0 1
1532180072473104 19 -14 1 -6 -6 -2 -4 -9
1532180072503023 27 55 22 3 -5 -6 -15 0
1532180072532943 4 -42 -25 -6 4 1 -24 -1
1532180072555881 -18 -12 -6 -6 -6 -1 -1 -3
1532180072577824 9 6 1 4 -4 -6 -23 -1
1532180072600762 24 63 20 21 4 -2 -11 14
1532180072622703 10 10 40 34 5 -1 11 -1
1532180072637664 -8 -17 9 -7 -3 1 2 -1
1532180072667584 -3 20 -7 -26 -2 -2 -8 -2
1532180072682543 -7 -3 34 -12 -5 -3 4 -4
1532180072697504 7 56 -44 -21 -4 -2 -15 -2
1532180072728420 15 2 -12 -3 -3 2 13 2
1532180072750362 3 -2 27 25 6 2 -3 2
1532180072773301 -10 -27 -7 -9 -8 -6 -36 -2
1532180072803238 -13 -32 -7 1 0 -3 -4 -2
1532180072825162 -6 -20 3 1 2 3 -6 4
1532180072855082 -5 -17 9 1 1 -1 12 31
1532180072878020 -13 -22 -13 -4 3 -1 6 -15
1532180072900959 7 -16 -9 -3 -5 -2 8 5
1532180072922901 -2 -4 -29 10 -1 -1 -5 -7
1532180072937861 -1 3 31 12 4 0 -10 1
1532180072952835 -2 -5 1 -4 0 3 26 -3
1532180072982741 5 1 4 3 -3 -5 25 -2
1532180073005679 -17 -41 -34 -26 -4 -2 -23 -2
1532180073027620 -20 -4 31 -7 1 2 -2 -7
1532180073050559 -4 10 0 8 3 1 -7 3
1532180073088491 2 12 1 5 0 -1 6 1
1532180073140353 29 39 -1 0 2 -3 8 1
1532180073163292 16 -16 -5 -3 -1 -4 -20 -8
1532180073185233 -8 4 -2 -2 -1 -1 -47 3
1532180073215152 2 4 -3 1 1 10 48 -8
1532180073260033 -9 -11 11 -2 -2 -4 -5 -6
1532180073305910 6 13 -11 21 5 1 -32 -2
1532180073342830 -19 -23 -16 -20 -3 -1 -7 -4
1532180073411629 2 7 3 -1 -3 -4 15 -4
1532180073440550 5 -5 -13 -4 -4 -2 -5 0
1532180073478449 -3 0 -1 -7 -2 -2 0 -1
1532180073493408 2 82 12 4 -1 -1 2 0
1532180073515350 1 -66 -5 3 0 1 0 0
1532180073530309 -6 -67 1 -1 -1 0 -2 -1
1532180073547275 2 45 7 -1 -1 1 -1 1
1532180073560235 -2 -16 0 -1 0 -2 1 0
1532180073598128 0 19 2 0 0 -1 -2 -2
1532180073620070 0 -15 3 2 0 0 -2 -2
1532180073643009 -3 -28 -5 0 -3 -1 0 -2
1532180073672929 2 24 4 4 -3 -1 1 0
1532180073695868 1 -9 -10 -4 -1 -2 1 1
1532180073725788 -3 -10 8 1 0 -2 -1 -3
1532180073762689 -8 -32 4 -3 -3 2 1 -1
1532180073777648 0 52 19 4 1 -2 -2 2
1532180073807569 0 -46 -28 -5 2 5 0 0
1532180073838486 -2 -18 -8 10 3 -1 0 -1
1532180073869403 4 2 -2 -5 -3 -1 -2 -1
1532180073898326 -7 0 6 2 -1 1 0 -4
1532180073913285 6 6 2 2 3 -1 -2 1
1532180073935227 5 7 1 9 4 0 2 3
1532180073973126 -5 -19 -59 -1 -1 -1 0 -1
1532180074003046 0 21 30 -1 -3 -3 -2 -1
1532180074018006 -3 1 5 3 1 1 -1 0
1532180074032966 -11 -1 -37 -9 -3 -1 -3 -4
1532180074047927 4 -28 0 1 -1 -1 -3 1
1532180074070864 -2 2 37 4 0 -1 1 2
1532180074092806 -11 18 -10 -2 -1 51 -6 -4
1532180074115745 -1 -8 -12 -1 8 34 8 -3
1532180074137686 -1 -9 -26 -5 -5 -16 -1 -4
1532180074160625 3 -26 -8 -4 1 -20 20 44
1532180074175585 2 48 16 -2 -5 3 -6 -19
1532180074205505 -9 69 16 2 0 24 -6 -1
1532180074235425 6 19 -32 -1 0 21 -4 -13
1532180074250385 -3 -16 -51 -14 -1 -24 -4 -12

1532180074273323 8 38 39 5 1 -1 -3 -11
1532180074295265 3 -33 -9 -1 -1 -18 -1 -6
1532180074310225 13 19 16 2 -3 -3 -2 0
1532180074340144 -1 14 1 -1 -3 -12 -4 -3
1532180074355105 4 13 7 3 0 -5 -2 8
1532180074378044 -1 -8 19 -5 -2 0 -3 -4
1532180074407986 0 12 -1 -14 -4 -1 0 -3
1532180074430925 -3 -22 -12 2 -2 -1 -3 -3
1532180074460844 6 6 27 -16 -5 -3 1 -3
1532180074475804 -6 -4 3 32 10 1 0 -2
1532180074512706 -3 3 -4 -12 -6 -2 -3 -1
1532180074557586 -1 10 10 1 0 0 -1 -2
1532180074604114 1 0 -1 -2 -3 1 0 1
1532180074627063 -8 -52 -26 -4 -2 -1 -3 -5
1532180074662967 2 13 5 0 -1 2 0 1
1532180074692886 0 10 0 0 0 5 1 -2
1532180074760706 -2 -17 24 -3 -2 0 -1 1
1532180074782646 1 16 -1 4 3 6 2 2
1532180074895359 -7 15 24 -7 -3 -4 1 -4
1532180074971158 3 -13 -43 4 0 -31 -1 3
1532180075008058 -2 29 -18 -9 -3 24 -5 -6
1532180075052938 18 17 -3 5 5 37 0 1
1532180075090837 -15 -15 60 -1 -3 17 3 -30
1532180075135717 -3 -2 76 0 1 5 2 -8
1532180075187578 -3 2 29 -9 -2 2 2 -7
1532180075234453 -4 -5 -14 -8 -7 -2 -2 -4
1532180075255397 -6 -3 1 54 15 4 1 -3
1532180075308256 -3 -1 -3 -21 -9 0 -3 -4
1532180075338176 2 -12 -3 -9 -6 -2 -1 0
1532180075398019 -2 -4 -31 -8 0 2 22 0
1532180075442895 1 6 19 -7 -2 -2 -6 -1
1532180075465834 0 6 11 -3 -2 -2 -4 1
1532180075510714 0 4 -6 -2 -6 -3 -3 1
1532180075562575 0 4 10 7 4 2 -1 1
1532180075600474 0 4 1 -6 -1 -1 -2 -2
1532180075631392 -1 -5 27 -5 -1 1 1 0
1532180075675274 2 -3 -10 2 8 3 1 2
1532180075743093 0 8 32 16 5 1 0 0
1532180075758053 2 1 17 -15 -7 -1 -2 -2
1532180075802933 -6 9 30 5 -4 -2 -3 -2
1532180075825872 0 2 11 2 3 -4 -2 -2
1532180075862773 -1 -18 -31 3 -3 0 -2 -2
1532180075892693 2 10 -7 -11 -3 -3 0 -1
1532180075930591 -2 -5 -17 -2 4 -1 -1 -2
1532180075975472 2 7 4 3 4 0 2 1
1532180075999408 -1 0 13 1 -1 -1 -3 -1
1532180076050273 0 -11 -7 -4 -4 -2 -4 -2
1532180076073210 -1 -4 4 -24 -3 -1 1 0
1532180076118090 0 8 29 1 1 1 0 1
1532180076169952 -6 14 -11 1 0 -2 0 0
1532180076192890 -5 -7 -11 2 -1 3 -1 -1
1532180076230789 -4 10 -1 4 2 -1 1 1
1532180076245749 -6 -3 -12 -1 0 0 1 2
1532180076267690 6 3 6 -1 -1 2 0 1
1532180076290629 3 -16 -12 3 -3 -5 -1 2
1532180076312570 -4 7 -6 5 -3 1 -2 -2
1532180076327530 9 0 -5 -1 2 1 0 1
1532180076350468 4 -7 -2 -3 1 1 -1 2
1532180076380389 4 -32 -34 -7 -1 0 1 -1
1532180076410309 -7 -4 -12 -6 -2 0 -1 -2
1532180076440228 -3 29 29 2 -1 -2 0 2
1532180076463167 -5 40 48 1 0 1 0 0
1532180076493088 -9 -9 4 1 1 1 0 0
1532180076523007 6 -15 -27 -5 0 0 -1 2
1532180076567887 3 -2 7 1 2 0 2 1
1532180076597807 -3 -1 -1 -3 -3 2 1 -2
1532180076635705 -16 29 6 2 1 0 -2 -2
1532180076657647 -4 14 17 1 -1 0 -6 -33
1532180076687568 3 -20 -12 -1 -1 -2 -3 13
1532180076710505 -2 28 1 3 2 -1 5 11
1532180076741423 -8 -27 -9 -1 -2 -1 -1 10
1532180076770346 3 -2 -5 0 1 -2 -6 -6
1532180076793285 -5 18 -14 -3 -1 -2 -1 -3
1532180076830186 -6 5 1 -2 -1 0 -1 7
1532180076862101 -6 26 8 2 2 -2 -1 1
1532180076898005 1 -5 0 0 -2 -5 -3 4
1532180076912965 3 11 -11 2 1 -2 1 5
1532180076974799 1 1 -3 5 2 2 1 2
1532180076995743 -1 -6 -2 -4 -4 -4 -4 -3
1532180077032645 3 0 3 0 0 2 1 -1
1532180077062565 -2 -7 -1 0 -1 -2 -1 -2
1532180077100463 1 -2 8 -1 -1 -1 0 -1
1532180077130383 2 -71 -1 4 0 0 -1 1
1532180077153331 -2 7 -1 -2 -3 -2 1 0
1532180077177258 -1 23 -4 2 1 -1 1 -1
1532180077190223 0 23 2 -1 -2 -2 -1 1
1532180077213161 6 40 27 1 3 1 0 3
1532180077228122 0 14 2 -2 3 -4 -2 0
1532180077267018 -1 -5 -32 -2 5 3 2 1
1532180077287962 -4 -13 -8 -7 -5 -1 -1 -1
1532180077302922 1 -7 7 10 2 0 1 1
1532180077325860 -1 42 10 -7 -4 1 -1 0
1532180077347801 0 8 3 -2 0 1 0 0
1532180077379717 -8 1 -4 -6 0 0 -1 -2
1532180077415621 6 7 1 -11 -4 -2 0 -1
1532180077452521 -3 4 -37 -6 -1 0 0 3
1532180077490420 0 -4 1 -10 -2 -5 -24 -4
1532180077528319 19 -3 5 13 3 -1 -21 6
1532180077550260 -10 2 11 9 2 -1 -45 -4
1532180077595142 -16 0 -2 -23 -5 1 5 -8
1532180077610101 3 -11 -16 -4 0 -6 -46 -7
1532180077633039 1 -4 4 -9 1 -8 30 2
1532180077685898 -16 -15 24 0 0 2 -13 -2
1532180077715818 9 -1 0 3 -1 10 60 23
1532180077775658 32 -17 33 -2 5 -19 -29 -6
1532180077850458 -7 -4 -5 -1 -5 -2 58 -11
1532180077895338 13 27 -25 32 4 -3 -60 2
1532180077918276 7 0 -42 -14 -4 -6 5 10
1532180077940218 6 2 4 -10 -7 -4 2 4
1532180077970138 -3 -34 -20 -10 2 4 -22 0
1532180078008036 1 22 -34 -4 -1 3 2 6
1532180078052930 9 22 9 2 0 3 19 9
1532180078082836 -9 -5 1 -11 -5 -12 -36 -11
1532180078135711 -8 2 -17 -17 -2 1 -22 -3
1532180078165614 -6 -37 -76 65 20 10 70 0
1532180078210495 -9 -16 -2 -13 -11 -6 -4 -3
1532180078240417 -2 -5 -16 -16 -5 -5 -2 -1
1532180078278314 -2 -20 -18 -10 2 2 2 2
1532180078293274 -3 -3 31 7 1 2 -4 1
1532180078360095 7 -33 9 -3 0 7 47 15
1532180078383034 27 27 29 1 6 5 -22 38
1532180078435901 -5 -16 2 -1 3 4 28 -13
1532180078480772 15 7 -12 -7 -3 -3 -4 11
1532180078495732 6 17 -10 17 0 7 -13 -3
1532180078562553 -7 -4 26 -15 -4 -3 -2 -6
1532180078600452 -13 -16 -8 -9 -1 1 18 -3
1532180078653311 -9 -24 -37 -7 -2 -3 -36 -27
1532180078683230 -3 -11 -32 0 -2 -2 16 12
1532180078767062 14 0 -11 -6 -11 -3 56 2
1532180078795992 -18 -12 -36 -15 -1 -2 -34 -5
1532180078832886 1 -2 -5 -1 -2 -2 -1 10
1532180078885745 2 -19 -57 -29 -5 3 -9 -3
1532180078967526 2 -2 -12 3 0 3 -12 -1
1532180079005425 4 42 58 15 7 4 -17 3
1532180079044321 10 24 24 1 -4 -6 7 1
1532180079118123 4 5 2 0 -2 -1 -16 -1
1532180079164001 -20 -19 -35 -7 -3 -5 7 5
1532180079184945 1 -27 1 5 4 5 14 5
1532180079200902 -14 -7 -7 -2 3 -1 5 -4
1532180079245782 11 16 24 -5 -7 -6 0 4
1532180079275702 -4 -2 -3 -6 -3 -1 7 -1
1532180079305638 -3 3 -27 -10 2 0 -7 0
1532180079327564 3 -13 14 -3 -3 -2 -16 3
1532180079342524 0 2 -11 1 2 1 -2 -1
1532180079357497 -2 6 0 2 1 0 4 -2
1532180079388401 -10 -10 -4 -1 -1 -2 -22 -4
1532180079412338 -8 8 5 4 1 -1 0 -2
1532180079463201 -4 -5 0 2 1 -6 -36 -4
1532180079523041 -9 -6 0 0 -2 -2 -15 -2
1532180079553958 5 12 -1 2 -1 1 -7 5
1532180079605820 3 0 8 -2 -4 -2 2 0
1532180079635740 0 -5 -3 -3 -5 -4 -24 0
1532180079657681 -13 0 18 1 -2 2 36 -1
1532180079680619 6 12 -2 4 1 1 -10 2
1532180079710539 0 -2 10 3 -1 1 0 0
1532180079748438 7 -1 -1 -3 2 4 14 2
1532180079763398 -12 -30 4 4 5 5 -24 3
1532180079778358 -5 5 17 4 -2 -3 3 -1
1532180079830220 -9 -6 -18 11 4 0 -8 -1
1532180079860139 -10 -29 5 -4 -1 2 -10 -4
1532180079883078 1 -10 -1 -5 -5 -4 6 -7
1532180079905020 6 -6 -10 -8 -2 -2 18 8
1532180079957878 23 15 22 34 16 10 6 14
1532180079972838 2 1 8 -19 -11 -7 9 1
1532180079995777 20 11 -7 -20 0 0 0 6
1532180080017718 3 7 -1 -11 1 3 -1 5
1532180080040667 0 -18 -19 -7 -2 -2 -14 -4
1532180080070580 9 16 16 -4 -5 -5 -17 -1
1532180080107478 7 5 -9 -11 -4 -2 -7 1
1532180080138395 -14 -18 -43 11 5 2 0 1
1532180080153356 9 10 3 5 -4 3 13 2
1532180080183275 10 57 -11 9 8 5 4 21
1532180080198235 10 -24 -6 -1 -1 0 -8 2
1532180080213196 -15 -1 2 -5 -4 -5 24 -15
1532180080228157 -5 -5 20 12 7 3 4 -4
1532180080258075 8 15 17 -3 6 32 26 -5
1532180080287996 6 13 -9 0 1 -16 -4 -10
1532180080317915 -2 -1 -14 -9 -8 -7 4 -10
1532180080340854 -2 4 38 2 -2 0 -9 -3
1532180080355814 6 -12 -3 -4 -4 -3 -61 -1
1532180080377755 -2 4 -8 -7 -2 3 25 -1
1532180080400694 13 6 -7 5 5 5 -4 -4
1532180080422635 8 23 4 8 6 5 19 17
1532180080460534 -11 5 -12 1 0 5 10 -48
1532180080482475 -11 5 -2 -7 -2 2 86 16
1532180080506411 3 10 8 2 -5 -6 0 13
1532180080543312 -12 -19 -11 -3 3 -1 -12 1
1532180080566252 -3 -4 -9 7 -3 -2 3 -2
1532180080627089 -3 12 29 -10 -5 -5 1 -2
1532180080648032 11 46 16 14 -6 -6 28 -4
1532180080670971 0 -10 -19 13 5 4 -4 0
1532180080685932 -16 -28 3 4 2 3 2 -11
1532180080715852 19 6 6 6 3 0 2 22
1532180080737793 -51 -49 6 4 -2 3 -5 -12
1532180080790651 4 15 9 3 0 -8 -52 -3
1532180080820571 -1 11 7 10 6 3 7 -2
1532180080842513 5 2 9 -5 -1 3 39 2
1532180080857473 15 6 -2 -19 -5 -4 2 3
1532180080880411 -5 7 3 14 6 2 21 2
1532180080903350 -27 -43 -4 -16 -4 -1 5 -5
1532180080933270 13 -4 -7 0 -5 -5 8 0
1532180080955211 2 -4 12 14 -2 -3 -8 3
1532180080970171 6 9 -24 -14 -8 -2 7 -2
1532180080993110 -25 -9 27 7 0 -1 4 -1
1532180081015051 -2 -43 36 -2 -1 -2 -5 2
1532180081037990 6 12 11 2 1 -1 5 3
1532180081052965 13 7 9 10 3 3 8 4
1532180081082869 4 32 -22 -7 -3 -7 8 -7
1532180081105808 -9 6 -11 -11 -2 -4 -8 -6
1532180081135742 -9 1 -30 0 1 -1 1 -4
1532180081158667 -7 3 -6 -4 2 7 16 1
1532180081210528 -3 9 14 -47 -14 -5 2 -1
1532180081240448 11 19 12 8 1 0 7 6
1532180081270369 5 3 -1 4 -1 -2 -3 5
1532180081315248 1 5 21 7 0 0 1 0
1532180081347163 -8 -56 7 -9 -1 -2 -2 -3
1532180081375088 6 25 26 2 -1 -2 -2 1
1532180081390048 -4 0 -8 -3 -1 1 1 -1
1532180081412987 -11 -42 -7 2 2 0 -1 -1
1532180081442907 -5 -89 -7 1 -3 -3 -3 -2
1532180081510726 12 43 -2 4 1 4 1 2
1532180081577547 -3 17 1 1 1 1 0 -1
1532180081623424 -7 6 3 -3 0 -1 1 2
1532180081690246 -11 16 -16 -5 -1 3 2 2
1532180081773024 18 4 -17 1 1 -2 -2 1
1532180081795963 1 24 -7 4 -2 -2 -3 -3
1532180081847824 -17 62 -17 -6 -1 -1 0 -2
1532180081885727 1 -19 -15 23 2 -3 0 0
1532180081952544 -5 -7 -5 -1 0 0 3 -17
1532180081967504 -12 33 17 -6 -11 10 -7 -37
1532180082014379 4 -36 -28 -2 -2 -14 4 13
1532180082043301 -8 4 25 -16 5 12 10 9

1532180082080202 -5 45 -8 2 -3 7 -4 -8
1532180082103142 2 37 19 15 4 5 6 0
1532180082162981 -1 -14 -1 -3 -3 -2 -1 2
1532180082192902 0 3 -18 5 3 2 2 2
1532180082207862 9 -30 -3 -8 -3 0 0 3
1532180082245760 -5 4 4 19 2 2 -1 -2
1532180082267701 -7 2 -8 -2 0 -1 -2 -1
1532180082329536 -3 10 8 0 -1 -2 -6 -10
1532180082350480 0 1 -11 3 2 -3 -1 -2
1532180082411318 -2 3 3 0 -2 -1 -1 0
1532180082440246 -3 2 -6 -2 -1 -1 -1 -1
1532180082486124 0 5 15 -2 -2 -3 0 -2
1532180082508065 0 -7 -12 7 1 -7 0 1
1532180082545927 -2 2 1 1 -2 0 -1 -1
1532180082568878 -4 -7 -4 1 0 3 1 -1
1532180082582823 1 2 -6 -12 -3 -1 0 1
1532180082621719 -4 2 0 -3 -1 -1 0 -2
1532180082636679 2 -9 -11 -16 -6 -5 -2 0
1532180082657623 -3 -8 -7 -5 -1 -2 -2 0
1532180082688544 -1 -8 -13 -11 -3 -9 -1 -1
1532180082718468 4 -11 -7 7 3 0 2 1
1532180082740402 -1 -6 -6 -2 -2 2 -1 -2
1532180082794258 -1 9 9 -2 -1 0 0 -1
1532180082811211 2 -3 -5 -1 0 -7 -2 -1
1532180082853099 2 13 0 -2 -4 -4 -1 0
1532180082927900 -2 -28 -30 -4 0 -3 0 -2
1532180083010678 -2 -28 -30 -4 0 -3 0 -2
1532180083032620 -2 -11 -1 -4 -1 -9 -1 0
1532180083070533 8 10 0 -4 -8 50 1 20
1532180083124375 -6 12 -3 1 1 -25 7 -5
1532180083162278 6 2 -30 -6 -3 -11 -3 0
1532180083213137 0 -2 10 7 3 2 -1 -9
1532180083250038 2 -16 -13 -8 -5 3 -1 -4
1532180083281953 -3 -13 8 -4 -4 -3 -4 -1
1532180083362737 1 6 28 8 5 2 1 0
1532180083377697 -2 4 35 16 2 2 1 0
1532180083439532 1 0 -42 15 2 1 0 1
1532180083460476 -3 -2 17 2 7 3 0 -1
1532180083505356 0 0 -24 -17 -2 0 1 -1
1532180083550237 -1 3 17 3 1 1 -2 0
1532180083573175 0 -6 40 -6 0 0 0 2
1532180083633015 0 0 -2 4 3 -2 0 0
1532180083670913 0 10 3 -2 -3 -1 -2 -2
1532180083707815 0 -4 -88 -7 -3 -3 -4 -1
1532180083722774 -1 3 16 6 -2 -2 2 1
1532180083737735 -2 11 -20 0 -7 1 -1 0
1532180083767654 -2 0 -11 -14 5 -2 0 -2
1532180083782614 1 -3 -4 7 0 1 -2 0
1532180083805553 -3 -2 4 3 0 3 -2 0
1532180083828500 -1 -4 -4 -6 -7 -5 -2 -1
1532180083850433 -1 -2 5 4 8 2 1 -1
1532180083873372 0 -1 -8 -7 -6 -1 -1 1
1532180083895313 -2 -5 -5 -2 -1 0 -1 0
1532180083918252 0 4 24 6 2 2 1 -1
1532180083955153 0 14 14 -13 -2 -1 -2 0
1532180083970113 -1 -4 -3 2 0 0 -1 -1
1532180084023969 -2 0 5 -4 -6 -4 -1 1
1532180084037932 -1 5 -25 -9 0 -1 0 -1
1532180084067852 1 2 7 7 9 1 0 1
1532180084105750 0 -1 -18 2 1 1 -1 -1
1532180084120710 0 -1 2 2 0 2 0 -1
1532180084135671 -1 -3 -10 4 2 1 1 1
1532180084150630 0 7 5 0 -2 -3 -2 -1
1532180084172571 0 -2 8 -3 8 0 1 -1
1532180084187532 -1 10 12 -5 -3 -2 -2 0
1532180084218449 -3 -7 -10 -4 -3 -1 -1 -1
1532180084248369 0 4 -1 1 -9 -2 -1 -1
1532180084278289 -1 -2 -12 -7 27 1 0 -3
1532180084300231 -2 3 18 -2 -7 -2 -3 -1
1532180084347105 -1 -2 12 -6 -4 0 0 0
1532180084360070 -2 -11 -9 -5 2 -1 1 -1
1532180084384006 1 18 41 1 -1 -1 -2 -1
1532180084427889 -5 7 8 0 1 -1 2 -2
1532180084465788 6 -1 4 5 3 0 3 -1
1532180084480748 -3 1 5 -3 1 0 0 2
1532180084502688 -3 8 0 -1 -1 -1 0 -3
1532180084517649 0 0 -1 -4 -1 0 -3 -3
1532180084578486 24 -25 -10 -1 -1 -3 0 0
1532180084600428 -10 -1 3 0 1 -2 -2 5
1532180084638326 -2 -12 14 1 -1 2 2 1
1532180084660268 -1 -7 -8 1 0 2 -1 -2
1532180084684204 -4 8 7 1 1 -1 -2 -1
1532180084720108 -4 0 -6 2 1 -1 2 2
1532180084750027 -5 -81 -21 -4 -1 0 2 1
1532180084795904 -5 -13 4 -5 -4 -3 -4 -4
1532180084825839 5 45 -4 1 0 -1 -2 0
1532180084847766 -1 11 14 -2 0 -1 -3 2
1532180084877686 3 -13 -2 2 0 -1 0 1
1532180084900625 1 37 10 4 -1 -1 -1 0
1532180084924562 -10 -37 21 -4 -1 -1 -1 -1
1532180084952487 -14 -39 -85 -4 -3 -3 0 -2
1532180084969442 5 13 18 -2 -3 0 0 1
1532180084990384 2 -16 -9 1 3 2 -1 5
1532180085013324 3 13 19 -1 -2 -1 0 -4
1532180085035264 -3 -8 15 -4 -4 -1 0 -2
1532180085050225 3 20 19 -2 -4 1 -1 1
1532180085065185 -4 -7 29 1 2 2 -1 -2
1532180085088123 -3 -5 -11 -2 -2 -2 -1 -1
1532180085126022 -4 21 0 0 -1 -1 -1 2
1532180085147963 1 -10 8 6 3 0 -1 -1
1532180085177883 -5 -11 -19 1 0 1 -1 1
1532180085200822 15 8 -6 -5 -2 -1 0 1
1532180085222770 3 3 4 -2 -3 -2 -2 -1
1532180085245702 -2 -29 -35 -4 -3 -1 -1 -3
1532180085267643 -12 10 -6 -10 -8 -5 -3 -2
1532180085282603 2 -12 20 7 -1 -1 -1 -2
1532180085313521 2 -23 -4 0 5 0 1 1
1532180085327483 -5 -4 -3 -6 -5 -2 -2 -3
1532180085350422 -1 15 -3 -9 -4 -2 -1 0
1532180085365382 -2 -4 1 -2 0 0 2 -2
1532180085388321 2 -11 -2 -6 -5 -3 -3 -1
1532180085410262 -7 -20 -24 -5 0 -1 -2 -3
1532180085425221 14 19 19 2 -1 0 -2 3
1532180085448161 -18 -30 -17 -17 -4 -2 -3 -8
1532180085470102 6 31 1 -9 -8 -4 -4 -6
1532180085493041 2 7 -7 -7 -2 1 2 3
1532180085515979 29 33 23 15 2 1 6 8
1532180085552886 -2 -15 -18 -2 -5 -1 2 1
1532180085582801 1 4 13 5 2 3 19 5
1532180085627680 -17 21 8 7 -4 -3 1 -6
1532180085657601 -5 8 -9 9 7 4 -2 -1
1532180085672560 -4 11 10 -19 -6 -3 -1 2
1532180085695499 9 13 55 -12 -4 -3 24 6
1532180085742374 -17 -6 28 -9 3 -1 6 -2
1532180085770307 1 -2 2 5 -2 15 51 15
1532180085800219 3 -12 5 3 -1 -8 4 4
1532180085815180 -4 -1 -29 1 6 -8 -71 8
1532180085845099 -5 6 -13 5 -2 -14 29 -8
1532180085860059 -7 -1 -99 -14 -6 -11 20 12
1532180085889978 -11 3 25 5 -8 -1 25 0
1532180085912918 0 -21 -8 -2 4 12 -9 8
1532180085935870 1 26 25 -12 -8 1 -8 3
1532180085950817 -1 -21 -3 -3 7 8 14 7
1532180085972758 -4 15 9 -11 -1 -1 40 0
1532180086010657 -10 -18 11 10 7 -7 -19 -18
1532180086062518 1 8 -2 0 2 6 -58 3
1532180086138315 -20 -27 -17 -18 -3 0 68 -5
1532180086160256 11 14 -13 -5 -1 -1 -20 7
1532180086190177 0 -9 17 8 -4 -7 -26 -6
1532180086235056 16 33 13 5 6 3 -1 6
1532180086257995 8 1 -12 31 9 10 94 7
1532180086296891 -2 85 53 0 -2 -3 -42 -2
1532180086340774 5 34 72 2 4 4 -19 -1
1532180086400614 22 -37 -27 -11 3 3 -14 28
1532180086415573 1 7 15 4 1 1 6 -4
1532180086453487 -4 4 -5 2 2 5 -8 -5
1532180086513312 2 11 23 7 2 4 44 2
1532180086535253 -3 -14 -8 55 11 7 29 2
1532180086610054 -4 -5 -20 -8 0 3 4 -2
1532180086625013 2 -13 -39 -18 1 1 -13 -1
1532180086692832 7 5 5 -8 -2 -2 -4 -9
1532180086731728 -6 9 -2 5 3 2 12 30
1532180086767632 0 -4 -12 0 1 2 -2 -10
1532180086790571 -5 1 -1 -2 -6 -1 17 5
1532180086828479 -9 -38 20 1 1 2 -11 -1
1532180086858390 3 20 1 -15 -6 -8 -13 -3
1532180086888310 2 14 2 1 -2 -1 -7 -2
1532180086925211 -9 -1 17 8 2 1 3 -2
1532180086940171 -2 7 16 -2 0 -1 -47 -1
1532180086993030 -2 7 -3 -10 -3 -2 23 0
1532180087045888 -6 -4 3 -4 2 1 26 0
1532180087098747 -8 -20 -1 -11 0 -1 -3 -1
1532180087157589 -10 -10 1 0 -6 -5 -8 -7
1532180087248347 19 27 54 11 1 -8 10 -2
1532180087285248 -3 -6 -16 -19 -2 3 10 -2
1532180087330127 -3 4 -14 -6 3 5 19 -4
1532180087405926 -5 -8 -3 9 1 2 15 0
1532180087442827 -1 12 37 8 -1 -3 11 -4
1532180087510645 4 -2 -8 0 -2 1 -12 2
1532180087555525 -1 -7 3 -1 -1 -1 -7 -1
1532180087577466 0 0 -3 4 10 5 13 2
1532180087631323 -3 -2 9 5 0 -1 -43 -1
1532180087698143 -1 -15 5 -5 -1 -2 -19 -5
1532180087743024 3 8 35 10 6 1 -59 -2
1532180087787904 -3 -15 -12 -7 0 1 4 2
1532180087802864 -14 -9 -17 -3 5 8 -1 4
1532180087862703 6 8 3 10 4 -1 -12 3
1532180087922544 3 32 8 -20 -5 -2 -3 -6
1532180087954459 -4 0 4 25 7 6 -28 1
1532180088005322 -6 -3 12 21 3 2 3 -1
1532180088043221 -4 -2 -16 -5 -5 -2 9 -2
1532180088095083 14 -5 28 4 0 3 -4 9
1532180088132981 8 11 1 -1 -5 -6 -36 -59
1532180088170879 3 8 6 2 3 -2 -103 7
1532180088200800 8 18 -4 -5 -7 -11 12 0
1532180088245680 -11 -13 -5 -16 0 5 39 12
1532180088276597 -14 -2 19 3 -5 -5 -1 -7
1532180088320480 4 16 1 -5 -6 -3 0 -1
1532180088350400 -7 -11 -17 -12 -6 -1 19 -2
1532180088374336 -2 -8 -15 -8 0 2 0 0
1532180088403259 -2 16 -6 -7 -7 6 15 8
1532180088440160 -9 -10 -1 6 0 0 26 -13
1532180088507978 -11 -16 5 0 8 4 -33 -11
1532180088560850 -12 -10 12 -2 -4 -5 13 -6
1532180088627658 -1 0 3 5 1 -1 -13 -5
1532180088702462 2 20 1 -13 -28 -7 5 1
1532180088733375 7 -28 4 -17 8 -1 -12 1
1532180088763295 -2 13 -1 2 6 -7 -88 1
1532180088793215 -7 -4 54 21 10 5 8 0
1532180088830116 -7 4 10 6 7 1 26 1
1532180088845081 9 22 -21 1 2 -4 -23 -3
1532180088890954 -6 -22 1 -1 0 -2 6 -4
1532180088912896 -2 -14 -7 -1 1 4 13 1
1532180088942816 8 48 38 12 5 2 -26 -2
1532180088972736 -2 21 7 -11 -6 -7 -11 -3
1532180089017616 -1 -5 -17 -4 2 -2 17 -1
1532180089032575 7 0 -13 5 15 4 -7 4
1532180089093425 3 -5 -11 0 0 3 23 -1
1532180089123333 -16 -53 -6 -27 -6 -8 -12 -3
1532180089153270 7 7 -20 10 6 8 35 8
1532180089190154 8 9 0 -6 -3 -2 1 0
1532180089205114 -12 -8 20 -11 -2 2 21 -3
1532180089243013 16 12 -8 6 -1 -1 -12 3
1532180089287893 -5 -6 15 -11 0 2 8 0
1532180089332773 -1 -1 1 -3 -1 -1 -8 0
1532180089347733 -3 -4 -3 0 0 -1 3 -1
1532180089385632 -3 -4 -5 -2 -3 -3 0 -2
1532180089400591 1 -9 -4 -1 -1 -2 1 0
1532180089423545 0 8 -3 4 1 -1 2 1
1532180089453450 0 0 -3 1 -1 -3 1 1
1532180089475392 2 69 9 -3 -1 -2 1 0
1532180089505311 -4 -68 -14 -1 0 1 0 -2
1532180089535231 -2 -33 -15 -7 -1 0 -1 1
1532180089550191 3 0 21 7 0 1 2 2
1532180089580112 0 -15 9 -5 -3 -3 -1 0
1532180089624992 0 3 9 3 2 6 1 -1
1532180089647929 -1 12 27 -3 -1 0 0 0
1532180089670869 -1 17 4 2 -1 -3 -1 0
1532180089707770 -1 -2 7 0 -2 -1 -2 -1
1532180089737690 -1 -24 -7 -5 1 1 -5 -3
1532180089790549 -1 -10 -31 -8 -3 1 0 0
1532180089813487 -10 -16 -12 1 -1 -1 0 -3
1532180089835429 -2 -16 -10 -10 -4 -2 -2 -2
1532180089858367 -1 -26 -8 -3 -1 -1 -1 0
1532180089888287 1 22 2 -8 2 -1 -1 -1
1532180089910228 -1 -21 4 1 -2 0 -1 0
1532180089955108 -1 -58 -30 -6 1 -1 -1 -1
1532180089985028 4 19 57 -9 -3 -3 0 0
1532180090015945 2 50 59 7 3 -1 -2 2
1532180090037887 2 -21 63 1 0 0 -1 1
1532180090052847 2 -5 -10 2 3 2 3 -21
1532180090067807 6 15 -17 -5 -4 -6 2 55
1532180090105706 -10 -10 -14 1 -1 0 -12 -42
1532180090127647 3 3 -26 5 6 13 -3 17
1532180090157567 7 -6 -10 0 6 -25 10 5
1532180090172527 20 59 4 0 -1 0 -5 15
1532180090218405 3 6 -40 -8 -3 -7 -6 12

1532180090248325 5 -31 -78 9 6 -3 -2 14
1532180090270266 -3 -33 -34 6 0 -5 -4 -3
1532180090293204 1 9 15 -28 -9 -6 -3 1
1532180090338084 -5 -3 -24 -25 -9 -7 -3 4
1532180090353044 -8 -41 -2 25 9 1 3 1
1532180090375985 3 7 7 -12 -5 -3 -1 5
1532180090405903 -1 1 5 -8 -3 -3 0 1
1532180090450784 -3 -2 -13 -20 -6 -3 -1 -3
1532180090480703 -3 -4 -3 -8 -5 -2 -1 -1
1532180090495663 -3 1 -4 -4 -3 -3 -3 -5
1532180090533562 2 10 25 -2 -1 -1 -2 -7
1532180090555503 -1 3 -2 -3 0 1 0 -6
1532180090593402 -2 -2 6 1 -1 1 -1 -3
1532180090615343 0 -8 -12 -2 -1 0 1 -3
1532180090645268 -5 9 -9 -5 1 -1 1 2
1532180090660223 -1 -7 8 3 -1 -1 -3 -1
1532180090683161 0 0 1 -5 -2 0 2 -1
1532180090713081 0 -2 -3 1 -1 1 0 1
1532180090735024 1 1 0 0 -1 -1 -2 0
1532180090749982 -1 9 1 -3 1 0 -1 0
1532180090765940 1 -8 -22 1 -1 0 0 0
1532180090795869 0 -15 -16 -6 -1 0 0 0
1532180090810821 -3 1 5 0 -4 -1 3 0
1532180090825780 1 -5 1 4 0 -1 -1 0
1532180090847722 0 3 1 0 2 1 0 -3
1532180090862682 1 -5 -22 1 1 -1 2 1
1532180090900587 -3 -4 -4 -1 0 -1 0 -1
1532180090930507 -2 -15 -7 -4 -4 -3 -4 -4
1532180090945467 0 -9 -6 -3 -1 1 0 1
1532180090970400 -2 -2 5 0 1 -2 -1 -1
1532180090983366 1 7 -3 0 -2 1 -3 -2
1532180091013286 0 -6 -2 1 1 3 -1 -1
1532180091043237 -5 -9 -6 0 0 0 2 -29
1532180091065193 0 -16 -13 1 0 0 -3 -2
1532180091080138 4 -10 -3 3 -1 -3 1 6
1532180091103076 0 29 22 18 6 1 -2 -4
1532180091125018 -1 19 1 4 2 0 -5 -1
1532180091155935 0 6 3 -3 -2 -4 -1 -1
1532180091170895 1 7 5 -5 -2 -1 -1 2
1532180091207796 -1 -1 -5 -5 0 -1 -1 0
1532180091222756 1 6 9 -1 0 -2 -3 -1
1532180091252677 0 4 9 -1 -1 0 2 1
1532180091305535 -1 7 1 -2 -2 -1 1 1
1532180091335455 3 9 6 -1 -2 1 -1 2
1532180091374351 1 6 9 -6 -2 -1 -2 -1
1532180091395295 -3 2 -33 -12 -3 1 2 0
1532180091433193 -1 -9 -89 5 1 2 1 3
1532180091470099 -3 -47 -8 -10 -2 2 -1 -2
1532180091500015 -1 11 34 -1 -13 -11 0 20
1532180091530949 7 18 -16 -4 -3 36 10 38
1532180091560852 -9 9 -3 -1 -2 5 -1 -23
1532180091597753 7 12 21 4 4 -42 9 16
1532180091627689 2 -10 -42 -1 3 2 1 2
1532180091650612 -1 -21 -12 -4 -2 1 -2 -8
1532180091672553 7 45 -63 -6 -2 14 -1 -10
1532180091702474 -6 31 80 -1 -3 2 -3 -3
1532180091725412 -1 -24 -14 1 -2 6 -2 -4
1532180091763311 0 -3 4 -2 -2 -1 1 -2
1532180091800212 0 1 33 14 2 -1 -2 -1
1532180091815172 -1 9 -54 4 6 4 0 -1
1532180091838110 -2 -10 19 7 3 0 -1 0
1532180091860052 0 -8 27 4 -4 -1 -1 -2
1532180091897951 4 -1 0 18 -38 -9 -1 3
1532180091920890 -6 3 20 -16 -4 3 0 1
1532180091935849 5 -4 2 -9 -26 -8 -3 -3
1532180091980730 -2 0 8 -27 -6 -3 -1 -1
1532180092002670 -2 -6 -1 12 -1 -1 0 1
1532180092047551 -3 6 -31 -7 10 3 2 -2
1532180092085449 1 1 1 -3 -10 -1 0 0
1532180092138322 4 9 9 -4 -2 -1 -3 -1
1532180092175209 -2 -6 12 -3 -8 -4 -2 -1
1532180092199149 1 0 -3 4 20 5 0 2
1532180092213108 -3 2 -3 8 5 0 0 -1
1532180092228070 1 2 35 0 -4 2 -2 0
1532180092250009 8 15 7 10 6 3 2 2
1532180092272948 0 21 34 -1 11 3 -1 -2
1532180092295886 -3 -24 1 -11 -1 -4 -1 0
1532180092317828 -1 -2 -33 6 -4 0 1 -1
1532180092355727 1 2 23 9 3 -2 1 1
1532180092377668 -5 -14 11 8 5 20 3 -1
1532180092407588 0 12 -20 -13 -5 -15 -3 -1
1532180092438505 -2 -39 -13 -14 -11 -9 0 1
1532180092475406 -3 -2 -15 5 3 1 -3 0
1532180092490367 -3 -9 -17 -14 1 -18 -5 -1
1532180092520287 1 -6 -10 -3 -3 -3 -2 1
1532180092588105 -1 7 10 -2 -5 -12 -6 -2
1532180092603065 -1 -3 -3 -5 -5 0 1 -2
1532180092647945 -1 4 -8 0 -3 0 0 0
1532180092662905 -1 0 -6 -4 0 5 1 1
1532180092685847 4 5 -8 1 0 3 0 0
1532180092707796 7 3 4 -4 -2 -2 -2 3
1532180092722745 -6 -10 -9 -11 -3 -2 -2 -4
1532180092745684 7 -4 -4 -2 0 -4 0 1
1532180092767625 7 3 -3 16 2 3 3 6
1532180092790564 -8 1 -3 6 -1 -2 1 -5
1532180092805524 -7 6 22 0 0 -1 -1 -1
1532180092827465 1 8 18 8 1 2 -1 -1
1532180092843423 3 16 34 4 -1 -3 0 0
1532180092865364 -12 2 -1 1 -3 1 -2 -5
1532180092895284 -2 -6 6 -7 -4 -3 -4 0
1532180092910244 -9 -19 -38 -5 -2 0 -2 -4
1532180092933182 5 2 17 0 -2 -1 2 1
1532180092985044 7 -7 11 -3 -1 -3 -2 -1
1532180093007996 -2 5 -17 -3 2 -4 0 -1
1532180093022943 -8 -16 -11 1 -2 6 0 -1
1532180093037903 -1 7 6 2 -1 -2 -2 -2
1532180093067822 0 -5 8 1 -2 2 1 1
1532180093082782 -7 -79 15 -7 -3 -4 3 2
1532180093120681 3 -4 -1 -1 1 2 1 12
1532180093135641 5 31 15 -1 -1 -1 1 1
1532180093180521 -6 27 23 0 0 1 1 -10
1532180093195481 -3 2 -1 -3 -1 -3 -3 -5
1532180093218420 -6 -15 -9 -4 -3 -2 3 8
1532180093270281 3 0 18 0 0 -1 -1 -5
1532180093293219 -10 -5 0 0 1 2 0 -7
1532180093323140 3 12 6 1 0 -1 -5 -4
1532180093338100 13 -2 -6 -1 0 -1 0 4
1532180093368020 -5 -4 -2 -2 1 2 -1 0
1532180093389961 -1 -5 5 1 0 1 0 -2
1532180093405918 2 6 0 -2 0 0 2 1
1532180093427860 -7 -22 -12 0 0 -2 -2 -1
1532180093457779 -10 1 -4 -1 -3 -5 -3 -3
1532180093481716 7 24 5 0 1 1 1 -1
1532180093502660 -2 -5 3 -4 -4 -5 -4 -4
1532180093517619 -1 -18 -3 -3 -3 -1 -3 -3
1532180093540558 -2 6 3 -3 -2 0 0 1
1532180093570494 -1 -24 -5 2 1 -1 0 0
1532180093585438 2 7 3 -2 -4 -2 5 8
1532180093600398 4 6 -2 4 3 2 -2 -2
1532180093623337 1 -3 -3 -2 -1 -3 -1 -2
1532180093645278 -5 -29 -4 0 0 -1 0 -2
1532180093668217 -1 -22 0 1 2 3 -3 -3
1532180093683177 3 8 -11 13 7 1 1 1
1532180093713097 2 14 -2 -5 -4 -4 -2 0
1532180093735038 -3 -14 -4 5 2 2 -1 -3
1532180093765956 0 24 2 0 2 3 2 1
1532180093780916 4 4 -4 -11 -6 -5 -2 1
1532180093795875 -1 -6 -5 0 2 2 -1 0
1532180093825796 1 5 -2 2 -2 -1 -1 1
1532180093862697 -4 -5 -7 -4 -2 -3 -1 -3
1532180093877657 -1 -5 0 22 2 0 1 0
1532180093900595 -4 -4 7 -9 -3 -1 -1 -1
1532180093922537 4 0 -15 -1 -3 -2 -1 0
1532180093937497 -8 -5 0 -1 -1 -3 -26 1
1532180093960436 0 2 2 -6 -2 4 -6 1
1532180093990355 1 -4 -4 1 2 2 -22 3
1532180094005315 2 -3 -4 -19 -7 0 42 1
1532180094035235 -16 -1 20 25 5 -1 27 -6
1532180094050195 15 3 -8 -6 1 -1 36 5
1532180094103054 12 1 4 -8 0 4 -46 2
1532180094147934 -3 30 30 1 -2 -25 -15 -9
1532180094162894 8 -4 15 14 1 64 14 20
1532180094194809 -21 36 37 46 6 -23 15 12
1532180094215753 -1 26 20 -11 -6 19 30 -2
1532180094237694 2 -9 0 -18 4 33 18 11
1532180094290553 16 25 8 9 4 1 -11 0
1532180094328451 14 -1 16 9 2 1 -10 -4
1532180094343411 -7 -23 -10 -25 -11 -4 11 -6
1532180094380313 7 19 26 22 4 -1 -23 -3
1532180094403262 7 25 41 -8 -1 0 -7 3
1532180094418211 -5 -10 -17 -13 -4 -11 2 -3
1532180094455117 4 -2 -5 33 9 6 1 3
1532180094478051 1 -7 -8 -21 -2 20 19 2
1532180094501987 -13 -14 43 5 5 -18 -15 -3
1532180094537891 -10 -2 -29 -18 -12 -4 -4 -5
1532180094552867 11 13 14 7 0 21 43 10
1532180094582771 -5 -21 -3 32 9 0 -14 -4
1532180094612691 10 10 2 -2 9 -1 -17 3
1532180094642611 -3 4 24 -17 -3 -1 -11 -2
1532180094657571 9 24 24 60 13 3 -14 2
1532180094680510 -23 -53 -43 -35 -8 0 13 -6
1532180094703448 2 7 -22 -11 -6 -5 -9 1
1532180094740350 -11 -29 -9 -5 1 -4 2 -1
1532180094770270 -2 26 32 0 1 6 2 -3
1532180094808169 -16 17 15 5 5 5 5 3
1532180094823137 12 27 5 4 -1 0 -25 9
1532180094876003 2 -5 -9 -6 -3 1 26 -1
1532180094920867 16 20 1 9 8 10 74 3
1532180094950787 17 26 -28 -24 -7 -1 7 2
1532180094980707 -9 -36 -3 -6 -3 -6 -41 -9
1532180095025587 -21 -28 3 -14 -7 -6 1 -10
1532180095085427 -9 2 44 13 2 1 -10 1
1532180095145267 1 -18 -29 5 8 11 4 0
1532180095235027 4 21 19 6 10 10 1 7
1532180095400584 14 15 15 26 14 6 12 4
1532180095415544 0 18 -17 0 2 0 -4 -1
1532180095460424 4 14 33 0 -1 0 0 1
1532180095595064 -7 0 12 -1 1 1 4 5
1532180095640942 5 14 3 15 10 5 -27 4
1532180095701789 14 31 -2 33 5 3 -2 7
1532180095805502 0 5 14 6 5 3 -3 2
1532180095873336 -11 -33 -37 -3 0 -2 -5 -6
1532180095903240 4 3 5 2 2 0 -3 0
1532180095972057 3 6 -8 0 0 -2 -6 -1
1532180096007960 -6 2 3 1 -5 -5 -6 -1
1532180096075779 -4 -5 -9 0 0 3 1 -3
1532180096127640 -13 -2 -29 -24 -4 3 15 -1
1532180096165539 2 -9 6 1 -1 0 -7 -3
1532180096195459 0 3 6 4 -1 -1 -7 -2
1532180096210419 -3 3 -3 -3 -7 -6 -17 -2
1532180096300179 -2 -6 -10 -6 -5 -2 -8 -1
1532180096338078 3 -6 -7 5 1 -2 -19 0
1532180096367997 -1 5 -15 -10 -6 -5 1 1
1532180096427838 9 34 6 3 3 2 -12 7
1532180096472718 1 14 8 1 -2 1 24 5
1532180096502637 9 -1 -5 -3 -11 -4 46 9
1532180096517597 4 -9 15 4 -6 -11 -45 -14
1532180096540536 10 19 -18 -4 -3 -5 -27 1
1532180096570456 -25 -40 -31 -24 -3 -2 -6 -6
1532180096608355 15 13 24 6 -4 1 5 2
1532180096638275 3 7 17 0 3 3 5 1
1532180096668195 -9 -16 3 9 -3 -2 -5 0
1532180096690135 4 1 -17 12 4 0 2 0
1532180096722051 -13 -88 -61 -10 -5 0 1 -3
1532180096750973 -5 43 37 -8 -6 -9 -4 0
1532180096787874 0 7 33 -6 -4 -7 -64 2
1532180096810813 -7 14 4 -4 -4 -2 -4 6
1532180096855693 -7 -10 7 6 1 1 15 -6
1532180096877635 -4 4 39 21 -1 -2 -10 -1
1532180096945453 9 40 38 -13 -6 -6 -6 1
1532180097020259 15 16 15 1 -3 -3 -2 4
1532180097050183 -2 -39 -7 8 2 1 -12 -1
1532180097110013 -18 16 0 -1 5 9 5 1
1532180097162872 5 -8 -7 -3 -5 -8 -56 -3
1532180097177832 -1 -1 -4 4 4 -3 -2 -2
1532180097230690 -3 4 23 15 5 -2 -1 -5
1532180097267592 -9 -5 -6 -3 -1 4 19 2
1532180097290530 -14 -13 -48 -23 -4 -6 -20 -3
1532180097312472 -5 -31 -21 -20 -7 0 11 -3
1532180097350371 -8 3 -10 0 0 2 7 -3
1532180097388269 4 -11 -30 -3 -3 -2 13 0
1532180097425186 -4 -1 -2 6 7 6 0 -2
1532180097440130 -15 -39 -15 -7 -1 -1 -7 -6
1532180097470051 -13 -7 18 15 3 0 -10 0
1532180097492989 1 21 -12 3 1 5 72 2
1532180097515928 1 28 9 -4 0 -4 34 4
1532180097552829 7 3 4 -4 4 5 0 2
1532180097567789 -29 -23 -28 -3 0 0 -10 -7
1532180097590728 4 7 -31 -12 -11 -9 9 -2
1532180097650568 6 14 0 -11 -6 0 82 6
1532180097672509 -6 -2 15 -20 -4 -2 -18 -3
1532180097733346 -14 22 -7 5 -3 -3 -26 -7
1532180097770248 6 27 3 10 10 7 2 2
1532180097815128 4 -11 -2 6 -2 5 85 3
1532180097860008 -4 0 -2 3 0 -4 -51 -2
1532180097875964 -1 -5 -6 1 5 -3 17 1
1532180097897907 7 4 -5 -3 2 1 17 1
1532180097920845 -15 -22 -29 3 -2 -4 -19 -3
1532180097950765 7 3 5 12 3 1 8 2
1532180097987666 19 29 4 8 2 -1 -4 2
1532180098017597 7 -1 -35 -5 1 2 36 10
1532180098032546 -8 -13 14 8 2 2 -4 1
1532180098055485 -7 -10 5 -4 -1 0 0 -4
1532180098070445 -7 4 63 19 1 0 -2 -1
1532180098093384 1 -10 -22 3 2 -1 5 0
1532180098130285 -4 -11 -15 -4 -2 1 -6 -2
1532180098153224 -4 15 6 8 2 2 0 -2
1532180098175170 -9 -37 -19 -4 -2 0 -1 -3
1532180098205085 -2 -19 -3 0 -3 -1 -3 -1
1532180098229021 4 13 4 3 0 8 3 2
1532180098250962 -8 2 6 -6 -7 -7 -4 -3
1532180098265922 4 12 0 0 1 -5 -1 1
1532180098302824 1 46 7 -2 -2 -1 -1 0
1532180098332743 -4 -41 -1 -2 -2 0 -3 -2
1532180098362663 -3 -48 -16 -15 -4 -2 1 -2
1532180098415522 0 34 15 1 -1 1 -1 1
1532180098445442 4 -28 -21 -2 -1 -2 0 2
1532180098468381 2 59 51 -3 -2 2 -1 2
1532180098505282 -3 26 14 -2 4 -1 0 -1
1532180098535202 -5 4 -16 -17 -4 1 0 -2
1532180098565121 -8 -1 -6 8 3 -4 1 -1
1532180098610002 -3 6 -17 6 8 1 0 -2
1532180098640919 0 13 -1 4 0 -2 -1 0
1532180098662861 2 -18 9 4 -1 2 0 -2
1532180098700760 -5 -6 -1 -4 -2 -1 0 -1
1532180098745639 25 51 20 9 5 -12 -9 -17
1532180098767581 -17 2 6 -13 -7 -2 -28 -60
1532180098797501 2 3 -10 -3 -6 -19 19 41
1532180098813458 0 -44 -48 0 4 13 9 -9
1532180098828418 1 -55 54 -13 -5 29 7 6

1532180098865319 0 -31 -30 -18 -3 14 1 0
1532180098880280 5 39 77 29 5 22 -4 -15
1532180098895239 -4 -30 -52 -10 -5 2 -8 -11
1532180098940120 -8 -1 -21 -15 -6 10 -3 -1
1532180098955079 -1 -29 -22 1 0 1 3 5
1532180098986012 -6 8 -26 -7 -4 4 1 -5
1532180099015922 3 -25 -26 -7 1 0 2 3
1532180099052824 9 14 4 1 3 -1 -2 1
1532180099082744 -1 12 11 -2 -2 -5 3 2
1532180099105682 0 -5 -8 0 -1 4 5 14
1532180099127636 -1 8 5 -1 -1 -2 -1 1
1532180099150562 8 5 -6 -3 -3 -2 1 1
1532180099172545 0 -14 -20 4 4 -2 0 -3
1532180099187505 -4 -15 -12 -9 -4 -3 -1 1
1532180099210444 -4 0 5 2 -2 -2 -2 -4
1532180099225404 -3 18 9 1 3 1 -2 0
1532180099240364 0 29 24 0 0 -2 0 0
1532180099263302 4 7 -11 0 -2 0 1 2
1532180099285244 -4 -22 -18 -4 -1 0 -1 -1
1532180099300204 -5 -6 9 2 -1 0 -1 -2
1532180099330124 1 -2 -1 -1 -1 0 2 3
1532180099368022 -6 -7 -14 -2 -1 -2 -1 -4
1532180099442821 4 10 1 7 0 3 0 0
1532180099465761 -1 3 6 -2 -1 0 0 -2
1532180099495681 -1 1 -1 0 -1 0 0 -2
1532180099540561 2 11 6 -4 1 0 -2 -2
1532180099562502 -2 7 10 1 -2 0 -1 -2
1532180099585441 -3 -22 -7 3 0 -1 0 1
1532180099615360 7 11 30 -6 2 -2 0 3
1532180099645289 -2 -2 -4 2 2 -2 4 2
1532180099660249 -10 -22 1 0 -3 -1 -1 -4
1532180099690169 0 -16 -11 3 0 0 1 0
1532180099723098 9 19 21 -4 -2 -2 4 21
1532180099735048 -5 -5 6 7 1 2 2 -1
1532180099765966 0 -2 -19 -4 2 14 1 -1
1532180099787907 4 -7 -5 2 10 7 -11 12
1532180099810847 5 -29 -11 0 0 5 3 -1
1532180099825806 0 -20 -10 2 8 -35 4 34
1532180099847754 -9 10 -11 -4 -2 -73 -22 -27
1532180099862708 -4 4 10 -3 -5 45 2 12
1532180099892628 2 0 4 3 11 38 2 -20
1532180099922548 -3 26 19 0 3 -2 -1 4
1532180099998345 1 -7 10 1 2 4 7 32
1532180100065166 0 1 14 2 0 -2 -1 -4
1532180100088105 1 4 8 27 17 6 1 -4
1532180100132984 0 0 -10 11 3 0 1 2
1532180100162905 0 2 -23 0 -4 -2 0 0
1532180100200804 -1 -4 1 -1 1 -1 1 -1
1532180100215764 -1 -16 -1 -7 -3 -2 -1 -2
1532180100230724 -1 -13 -34 8 3 -2 1 -1
1532180100245684 1 -5 30 9 6 -1 -2 -1
1532180100282584 2 12 3 4 4 1 -1 -1
1532180100305524 -1 3 -11 -5 -8 0 0 1
1532180100327465 2 17 23 14 4 1 1 0
1532180100343423 -2 -13 -19 -17 -1 -1 -2 -1
1532180100373342 1 7 53 18 5 -2 1 2
1532180100403263 1 4 15 6 7 1 2 0
1532180100418221 -4 0 8 -13 -1 0 -2 0
1532180100440174 0 2 -8 -1 -3 -1 -2 -1
1532180100478062 -1 -2 9 0 -3 -3 0 -3
1532180100501001 -2 -8 4 -14 -3 0 0 -1
1532180100515960 -4 -4 -13 -12 1 1 -2 -1
1532180100552872 -2 2 2 2 2 3 0 -1
1532180100575801 2 15 18 -10 -3 -2 -2 1
1532180100605721 1 -4 -24 -3 -7 -4 -2 -1
1532180100620681 -2 6 -12 -28 -3 -1 -1 1
1532180100665561 0 -2 20 5 -6 -3 0 -1
1532180100695480 3 16 35 4 1 -2 -3 0
1532180100778259 0 10 17 5 3 5 3 -2
1532180100815161 -2 3 -3 9 5 0 -1 -1
1532180100876011 0 5 12 -3 -1 -1 1 -1
1532180100912899 -2 -14 -21 -5 -6 -1 0 -1
1532180100980718 2 5 34 6 3 1 1 0
1532180101011636 0 -7 -16 1 -1 -1 -2 -2
1532180101085438 8 -1 -3 -3 -1 1 1 1
1532180101108377 3 6 -1 3 4 1 1 2
1532180101153256 7 -8 -2 1 -1 0 -3 -1
1532180101175198 6 -12 -29 -4 -4 -3 0 2
1532180101213097 -18 9 6 3 2 1 -1 -3
1532180101228057 4 0 4 0 -1 -1 -2 -1
1532180101272936 7 -9 25 -3 -3 -3 1 6
1532180101295875 16 -16 3 -2 -2 -1 0 3
1532180101355715 16 2 7 3 3 2 1 -2
1532180101407577 -18 17 10 1 0 -1 1 -3
1532180101437496 -23 31 -7 -2 2 0 5 9
1532180101484371 15 -78 -23 -1 -1 -1 6 13
1532180101513294 -12 46 8 -3 -4 -1 -2 -29
1532180101528254 8 35 21 -1 0 0 7 27
1532180101588094 11 66 16 1 -5 -1 3 5
1532180101626001 -4 -34 -3 1 0 -3 -1 0
1532180101647934 -15 17 23 2 -1 2 -1 -6
1532180101685863 5 -12 -6 -3 0 0 -5 -1
1532180101724759 -2 6 -6 -3 -2 -1 0 1
1532180101760663 -5 -37 -22 -2 -2 -2 2 -1
1532180101828494 6 0 12 -1 -2 -3 -2 0
1532180101880342 -1 -5 -6 -2 -2 -1 2 1
1532180101895303 6 3 5 2 2 0 -1 1
1532180101948162 -1 -12 -6 0 -1 -2 0 -2
1532180101978081 -5 -7 3 -1 -2 -1 -1 0
1532180102001026 2 14 9 -1 -1 -1 -1 0
1532180102037922 -1 19 -3 -2 -3 -1 0 -1
1532180102060860 1 0 -1 1 1 1 0 -3
1532180102097761 -3 -25 -4 -4 -5 -2 -2 -3
1532180102120701 8 17 -1 6 -3 -1 -1 2
1532180102157601 11 11 1 0 1 1 -1 2
1532180102189516 18 -10 0 -4 2 1 10 7
1532180102225420 9 -12 3 6 -2 2 51 5
1532180102240380 -5 4 0 13 3 -2 -13 0
1532180102285259 -14 8 11 -8 -4 -5 -53 -13
1532180102315180 -19 -24 -12 -14 3 5 -45 -1
1532180102368039 -11 -1 -5 -8 3 4 -13 -6
1532180102465777 16 28 7 -14 -5 -7 -8 6
1532180102705137 -1 -7 0 4 3 0 -8 -1
1532180102743035 7 11 -2 -6 -2 1 -27 1
1532180102817836 -5 6 4 2 2 0 18 0
1532180102832796 -11 4 0 -21 -9 -4 -45 -3
1532180102863714 8 4 14 4 1 0 47 -1
1532180102885654 -8 -35 -5 -6 -1 0 1 -2
1532180102915574 12 31 11 0 -6 -7 0 -2
1532180102946493 -4 -10 7 0 -1 -2 -12 4
1532180102990374 -8 -14 -4 5 -3 1 21 -1
1532180103005335 -9 -7 -4 -10 -4 -8 -14 -2
1532180103035255 22 42 0 4 0 -2 7 2
1532180103080134 -11 -15 14 38 8 6 12 -2
1532180103118033 29 54 22 33 10 7 -8 9
1532180103139974 -3 9 14 1 0 1 1 1
1532180103192833 -3 -18 -10 -2 4 3 -38 1
1532180103224765 -21 -80 -40 -9 6 2 -29 -3
1532180103260651 -3 -14 -11 -3 -5 -5 -14 15
1532180103282607 21 36 9 4 5 -2 -60 -6
1532180103305546 -12 -22 5 1 -6 -14 -8 -14
1532180103358404 27 20 -23 -4 -3 -4 19 5
1532180103388324 2 1 4 -17 -3 1 20 -2
1532180103403284 -4 -14 3 32 11 4 6 -2
1532180103425225 0 19 30 14 3 2 2 -2
1532180103463124 17 21 28 23 6 4 -30 7
1532180103493045 2 -6 -16 6 -2 2 37 0
1532180103530943 -4 5 6 6 3 2 10 -3
1532180103590782 2 4 -19 -10 -10 -5 -9 -1
1532180103635663 13 -4 -9 -4 2 -2 -54 14
1532180103672565 -4 2 1 9 5 3 76 -19
1532180103755343 3 -6 18 23 6 14 16 7
1532180103778282 7 16 -25 -6 0 3 10 2
1532180103830142 -7 -17 25 4 4 7 32 -3
1532180103870036 -10 16 30 14 1 0 -15 -6
1532180103905940 0 2 -3 0 3 1 11 1
1532180103950820 1 5 23 9 5 3 -13 -1
1532180103972762 -2 3 -45 -2 -2 -3 -2 -1
1532180103987721 2 -6 -13 -13 -2 1 17 1
1532180104047562 0 3 -10 -4 2 2 8 2
1532180104085460 -4 -11 10 5 1 -3 3 -1
1532180104100420 0 -1 3 -6 -4 -1 9 -5
1532180104139316 7 9 -6 -4 -2 -1 -5 0
1532180104183199 0 -3 1 -1 -1 -5 -36 -4
1532180104213119 -5 -5 -19 1 0 -1 11 1
1532180104236058 -2 -2 10 5 0 -1 -14 0
1532180104250020 1 -6 1 -2 -2 -2 2 0
1532180104325818 2 -1 10 -5 -12 -49 -21 -1
1532180104347759 1 0 -7 10 -6 27 54 3
1532180104370698 3 7 5 5 -2 -8 -21 -3
1532180104407599 -2 -3 7 3 -4 -4 -44 -3
1532180104437519 -4 3 -9 -11 -4 0 4 -1
1532180104453475 3 -10 -14 -2 2 -4 6 -3
1532180104483396 -18 -42 -15 -6 -2 1 10 -2
1532180104498356 0 -9 8 -6 -3 4 -11 36
1532180104520298 5 -25 1 0 2 1 -11 16
1532180104535258 -2 9 -3 -6 -1 2 -23 -13
1532180104558195 -7 11 -1 -2 1 -10 -25 -10
1532180104580137 6 19 -9 -2 -5 -4 -15 0
1532180104603077 16 2 0 -10 3 5 42 2
1532180104625017 -10 -25 -23 3 9 4 33 -4
1532180104647956 -16 -47 21 13 -1 0 -4 -6
1532180104677877 6 15 46 49 9 4 -1 1
1532180104700815 8 10 -4 -5 -10 -2 22 6
1532180104722756 -1 -2 -17 -14 -4 -3 -8 -3
1532180104745694 -6 -20 15 -1 0 -2 1 1
1532180104775615 -13 -15 0 -6 0 -1 29 0
1532180104805534 1 -22 4 2 1 4 2 12
1532180104827476 -9 -25 -13 -3 0 -1 -13 -5
1532180104850414 -9 -9 -5 -8 -4 2 18 3
1532180104865375 4 16 6 6 1 -1 -21 -1
1532180104895295 6 14 7 0 -2 -2 1 -22
1532180104910255 -18 -26 -19 -16 -3 0 22 3
1532180104933193 -13 3 12 9 7 0 -4 -2
1532180104963114 -3 6 -51 -21 -8 -4 13 -4
1532180104993033 4 -12 -4 3 1 3 15 2
1532180105030932 -16 -6 -44 -7 -5 -3 8 -6
1532180105067833 2 -19 5 -3 1 3 2 -1
1532180105082793 -7 -9 -11 -5 2 3 -8 -2
1532180105105732 1 -13 -13 2 2 1 1 -1
1532180105127673 7 17 -11 -12 -6 -8 0 -2
1532180105165572 29 -15 -22 -8 -6 -1 -45 30
1532180105195497 -9 -5 9 4 0 -1 10 4
1532180105225411 -10 7 -8 -7 -3 -7 11 -14
1532180105278287 -11 3 11 -12 -12 -8 14 -12
1532180105300212 9 19 6 -5 -2 2 33 2
1532180105323151 -4 0 18 12 3 0 1 -2
1532180105353070 -14 -25 -34 -15 1 3 4 -5
1532180105375012 16 3 -36 -9 -8 -8 -1 2
1532180105405929 16 54 5 -12 -10 -9 26 -3
1532180105435865 -19 -36 -12 -7 -4 -4 -34 -10
1532180105450809 6 24 3 -2 3 0 43 2
1532180105465769 -4 -5 3 -5 -3 1 -27 -3
1532180105510649 -3 -28 -21 -10 -11 -4 16 0
1532180105525609 2 11 -1 -12 -5 -5 -20 -7
1532180105555529 -10 -12 10 5 -1 -2 -6 -5
1532180105585449 -11 -53 -53 -16 -4 -3 -6 -1
1532180105600409 5 54 59 33 6 3 -9 -5
1532180105630329 3 9 -2 4 7 6 -3 0
1532180105645289 1 -4 -15 -7 -4 -1 -17 -8
1532180105668228 -2 -12 -49 11 3 9 11 -20
1532180105683187 2 30 38 -4 -5 -7 -7 19
1532180105698148 -1 -24 -42 -3 1 -2 34 -8
1532180105720089 -10 -21 -1 -6 -1 3 -8 9
1532180105743028 19 29 4 -2 -5 -3 4 12
1532180105757988 7 6 -10 -3 -1 -5 -61 -4
1532180105780926 -12 -34 -29 -9 1 4 14 6
1532180105802882 -18 -22 19 1 2 3 4 -6
1532180105825806 -5 -5 44 5 2 1 -2 4
1532180105847747 10 23 53 88 13 3 30 -1
1532180105885647 18 -10 10 -25 -7 -4 -4 3
1532180105915566 -3 -13 -42 -12 1 -2 30 2
1532180105945486 3 -4 3 14 4 4 5 4
1532180105968425 -4 -8 -16 0 2 5 3 0
1532180105998345 1 4 10 14 1 -3 0 0
1532180106020287 2 32 0 -1 -1 -1 3 0
1532180106035246 -8 -60 -11 -4 -2 0 -3 -2
1532180106058185 -1 -28 -4 -2 -5 -4 -2 0
1532180106080126 3 55 -10 -2 -6 -4 -2 0
1532180106125007 2 30 10 2 2 4 2 1
1532180106155923 0 23 2 -5 2 -3 5 2
1532180106177865 0 -21 -1 3 0 -1 -6 -1
1532180106192825 3 -14 -7 0 2 8 2 2
1532180106230724 -12 -43 -25 -1 -1 2 0 -2
1532180106267625 0 -11 -40 3 0 0 -1 0
1532180106290564 5 39 31 4 -3 -3 -1 -1
1532180106320484 6 -6 8 -7 0 -3 2 1
1532180106350404 -4 5 30 -2 3 0 0 1
1532180106373342 0 30 42 31 6 -1 -1 -1
1532180106403262 -10 9 -10 4 -1 3 0 -3
1532180106425204 -3 -20 -24 -1 1 0 3 3
1532180106440163 -2 -39 20 0 2 2 -1 -2
1532180106472078 -2 -11 28 -3 0 -4 -1 0
1532180106493022 -8 -32 -5 -3 -1 0 -2 -3
1532180106522942 -1 -24 3 -1 -3 -5 6 4
1532180106552865 11 -49 -5 -3 -4 43 23 53
1532180106582782 9 -24 -17 -3 -3 -14 1 31
1532180106605737 10 -43 8 7 4 -16 2 62
1532180106627662 -16 -38 26 4 -6 -61 -9 -22
1532180106665561 12 28 -53 -7 -4 8 -14 3

1532180106696478 9 21 -2 13 4 10 9 15
1532180106725420 3 -27 -33 9 0 11 2 3
1532180106740408 -6 10 26 3 3 -1 -2 -3
1532180106793267 -3 -12 22 -1 0 5 -7 2
1532180106823187 1 19 20 -12 -6 -7 -2 -1
1532180106838147 -2 -6 -25 -2 -2 -5 -4 -4
1532180106868066 -3 -16 -13 0 1 0 1 18
1532180106890009 5 12 10 4 2 4 -1 -2
1532180106912947 3 -5 -14 -1 0 3 0 2
1532180106935886 -23 0 -15 0 0 -2 0 -3
1532180106965805 -6 -5 -3 -1 -1 0 1 -1
1532180106987746 6 -1 -3 -4 0 3 0 -3
1532180107002707 -6 4 27 1 -1 -3 -2 -3
1532180107032627 -5 -15 -9 4 2 1 0 0
1532180107056574 3 -7 -32 -3 -3 0 1 3
1532180107070525 -3 -20 24 3 -1 1 -2 -3
1532180107093464 -3 0 -6 -1 -1 -2 -2 -5
1532180107108424 2 -9 -8 -3 -2 1 -5 -5
1532180107130365 1 -4 -13 -3 -2 0 -1 -2
1532180107153304 8 -3 -14 -3 0 0 0 -1
1532180107183229 3 -7 -5 0 1 0 -1 2
1532180107198184 -1 -18 2 1 -1 -3 0 -1
1532180107213144 -7 0 4 2 0 1 -4 -4
1532180107243063 -3 -11 -1 -2 -2 -2 1 0
1532180107265005 5 2 10 -3 -1 -1 0 -1
1532180107280962 -2 8 -32 -6 0 2 1 1
1532180107295936 3 -7 3 3 2 1 4 4
1532180107332824 -6 -27 4 0 -2 -2 -2 -3
1532180107381693 4 0 -3 -4 -4 -4 0 2
1532180107422584 -4 -32 -26 -6 -6 -15 -7 -8
1532180107438541 -7 0 -6 6 10 75 24 77
1532180107475443 5 -19 -2 -4 -7 -2 -8 7
1532180107490402 2 0 5 6 0 -25 1 -20
1532180107513341 1 10 -19 3 9 35 -2 -19
1532180107535283 -5 31 38 2 -4 12 -4 -24
1532180107550242 -16 20 -15 -5 -6 -19 -2 -7
1532180107573181 -1 -20 72 34 9 0 7 14
1532180107595122 3 -25 -68 -40 -9 -8 1 -4
1532180107618061 -1 5 -53 -6 -4 -10 -1 5
1532180107662949 -2 -11 18 5 3 -2 1 -1
1532180107677901 0 -12 -25 12 4 1 2 2
1532180107700840 0 11 -29 -13 -5 -3 -1 -1
1532180107715800 1 -16 3 -4 0 -2 -1 0
1532180107730760 0 0 24 6 1 2 -1 -2
1532180107752703 -3 3 27 1 0 -6 -2 -1
1532180107790600 -2 -3 -15 -6 -6 0 -1 1
1532180107805567 -1 -41 -7 14 2 0 0 1
1532180107828506 0 -5 -24 1 -4 -2 -3 0
1532180107850439 3 12 -25 -22 -6 -1 -2 0
1532180107873378 0 -3 -10 -6 0 -3 0 1
1532180107903299 0 29 11 3 0 1 1 0
1532180107918258 -2 -3 -4 11 4 0 0 -1
1532180107940200 -1 0 15 7 -1 1 0 0
1532180107963149 3 3 1 -3 -2 0 1 0
1532180107978098 -1 7 8 -11 -3 -1 -3 -1
1532180108000040 -1 7 8 -5 -2 0 1 -2
1532180108022979 0 2 4 13 5 1 1 1
1532180108052907 0 -1 1 7 4 2 -2 -1
1532180108067858 1 2 -8 -12 -4 1 0 -1
1532180108099780 1 9 19 13 0 -3 0 0
1532180108150637 0 6 8 -7 -7 -3 -2 -1
1532180108181555 -1 15 0 -1 -1 0 -1 -2
1532180108195517 -1 -4 -10 0 0 1 1 1
1532180108210477 -4 3 -2 -15 9 -3 -2 -3
1532180108233416 1 -1 4 2 -10 -3 0 1
1532180108256354 -2 -2 -12 -1 -3 1 -1 -1
1532180108270318 -1 1 24 10 7 4 1 0
1532180108293256 -1 2 -3 16 3 -2 0 1
1532180108315197 0 -6 12 28 5 5 1 1
1532180108345117 0 -3 -15 -20 -12 -3 -2 -1
1532180108397975 0 3 4 -1 1 0 0 0
1532180108442855 1 9 -5 -6 -6 -4 -2 -2
1532180108457815 1 3 9 0 1 0 2 1
1532180108495714 0 -2 -9 -6 -3 -2 -1 0
1532180108525634 1 0 8 24 14 4 0 0
1532180108562535 -3 7 10 26 13 3 -2 0
1532180108578494 -3 -18 -22 -10 -5 -1 0 0
1532180108615394 0 12 9 -8 -5 -2 0 0
1532180108638333 1 -10 -20 -2 -2 0 -1 0
1532180108675234 -13 3 11 -7 -6 -4 -1 -6
1532180108698173 2 13 15 -2 -3 0 -1 0
1532180108743053 -1 -15 -8 -3 -1 -1 0 -1
1532180108766005 -1 -1 -6 -2 -2 1 0 3
1532180108802894 0 -1 14 2 -3 -3 -2 -1
1532180108840791 -9 2 -7 1 1 0 1 -2
1532180108900631 -3 4 5 0 -2 -2 0 -1
1532180108945511 -1 -11 0 3 1 2 0 -3
1532180109005351 -6 -8 0 -2 -4 -2 -2 -3
1532180109058210 1 -44 -6 -4 -1 -2 8 10
1532180109103091 -5 -37 -4 -4 -1 -2 1 0
1532180109133010 5 30 29 1 -1 0 0 2
1532180109162930 6 34 -5 -1 -1 0 -1 -2
1532180109177890 3 -13 2 1 0 -1 0 0
1532180109215789 -9 -23 -14 -1 -1 -1 0 -1
1532180109245709 -4 -19 -6 -3 0 1 1 -1
1532180109290588 0 7 8 -4 -2 -1 -2 -2
1532180109305548 0 8 7 5 -3 -3 -1 -1
1532180109343447 -1 4 -6 -6 -4 -2 -2 -2
1532180109365389 1 26 0 8 3 -1 0 -1
1532180109418247 -1 -25 1 1 -2 -1 -1 1
1532180109463127 -8 10 -3 -5 -5 -3 -3 -2
1532180109485069 -1 -20 -8 0 -2 0 -1 -1
1532180109522967 -10 -26 -4 1 -3 -1 -1 -1
1532180109552888 4 -6 -14 -16 -2 -4 -1 1
1532180109567847 -3 14 6 2 0 0 0 -3
1532180109590791 -4 18 7 -1 -2 -1 -2 1
1532180109627687 -4 24 -5 -4 6 1 -1 0
1532180109643645 -3 1 -5 -1 -1 -1 4 2
1532180109672567 -7 -15 -14 -19 -8 -2 6 -3
1532180109687527 17 1 7 0 0 -2 -5 2
1532180109710466 -8 3 -13 0 2 -1 2 -8
1532180109733404 -8 9 0 -16 -4 2 -5 -4
1532180109763324 5 -1 -8 -2 -2 -1 4 0
1532180109802258 -14 13 -6 -10 -1 0 5 -8
1532180109845106 21 5 0 0 0 2 18 11
1532180109905954 -8 15 -1 -6 -1 -10 8 -18
1532180109935878 -23 -22 -14 -9 2 6 34 8
1532180109980743 -10 -16 -14 4 -1 -6 -40 -9
1532180110017644 29 13 9 16 0 11 43 16
1532180110040583 7 -2 -2 -6 -6 -5 26 6
1532180110078482 -1 10 22 -3 -2 -3 6 4
1532180110100423 2 -5 -15 1 -1 0 14 2
1532180110130343 -7 -17 -8 1 0 -3 -26 -6
1532180110153282 0 5 38 3 0 -2 -19 -2
1532180110175223 -2 3 -16 3 3 12 -5 3
1532180110190183 -12 -5 -4 0 1 2 17 -3
1532180110213122 -1 -2 8 -3 -4 -5 -5 0
1532180110237058 5 6 8 -5 -4 -4 -9 4
1532180110258002 -9 4 10 -7 2 6 10 0
1532180110280951 0 6 -5 6 4 0 31 -4
1532180110302882 2 -11 -13 -19 -9 -5 1 -3
1532180110317841 -15 -25 -12 -4 2 0 -7 -6
1532180110355741 3 7 0 -10 -4 0 -20 1
1532180110385660 -15 -13 -11 2 4 1 53 0
1532180110415580 8 8 -8 11 -1 -1 5 0
1532180110445500 2 9 6 0 3 0 -25 -2
1532180110475421 -2 -11 -3 -4 -1 1 3 1
1532180110513320 -2 -14 -12 -3 0 1 1 2
1532180110535260 -10 -17 -33 -23 -8 -3 -7 -6
1532180110550220 -18 -13 7 14 12 10 8 3
1532180110565180 -5 52 28 7 0 0 -6 2
1532180110595100 17 -6 6 6 -4 -3 -11 -1
1532180110639980 -4 -28 -10 -8 -3 -3 31 -9
1532180110685858 -18 -2 -3 -2 -1 1 5 -7
1532180110722759 -13 -15 -8 -4 -2 -3 -29 -6
1532180110767639 -5 -26 -39 -22 0 3 20 0
1532180110790577 15 24 17 -2 2 0 0 3
1532180110820497 2 -2 -17 -18 -3 -2 -44 -2
1532180110835457 -6 16 11 7 3 3 -4 1
1532180110865378 -1 -11 -18 2 1 1 5 -1
1532180110880338 -8 -13 -18 -7 -7 -5 -16 -2
1532180110918237 -7 -3 13 9 11 7 7 -1
1532180110933196 -15 -24 -2 -3 -6 -6 31 -3
1532180110970097 5 -11 -10 1 0 0 8 16
1532180111022956 -2 1 -1 0 3 4 20 12
1532180111075815 9 17 -15 -10 -2 1 15 4
1532180111105735 26 22 -11 -13 -9 -2 3 2
1532180111157596 -7 -14 -13 -4 -6 0 31 -2
1532180111180534 -3 10 11 22 1 2 -10 -1
1532180111195495 -8 -3 -19 -22 -6 -3 -42 -5
1532180111255335 2 3 7 -2 1 1 20 1
1532180111270295 -5 2 6 9 -4 -6 21 -3
1532180111338113 3 1 20 15 3 0 15 3
1532180111390972 -1 -1 -2 -7 -4 -4 -10 -2
1532180111412913 1 0 1 0 1 -1 -3 1
1532180111435852 -1 -2 0 4 -3 -3 -10 1
1532180111465772 3 2 3 1 1 -1 -1 2
1532180111502673 2 -13 -8 -6 -3 -4 2 -2
1532180111517633 1 -1 0 2 -2 -1 1 -1
1532180111540572 -7 -3 -9 5 4 2 4 -3
1532180111555532 0 0 -1 -2 2 7 20 4
1532180111577473 1 -2 0 -3 1 -3 -18 -2
1532180111593431 3 4 1 1 -3 -8 -90 -3
1532180111623350 -2 5 5 1 0 0 9 1
1532180111638310 2 4 5 1 0 2 7 0
1532180111653271 0 -1 13 -5 -2 -1 29 0
1532180111683190 -4 -10 5 1 1 -3 9 0
1532180111698150 8 16 -7 -12 -4 -4 -1 0
1532180111713115 -5 -6 -18 -12 -3 -1 11 -1
1532180111750012 1 -1 4 -4 1 7 22 -1
1532180111795889 -6 1 3 7 -1 8 -9 -1
1532180111832791 1 6 -4 0 -2 -3 -24 1
1532180111862711 2 -4 -27 -8 -3 -2 -1 -2
1532180111892630 5 9 11 -5 5 6 6 3
1532180111922550 1 7 -6 -18 -9 -2 8 -1
1532180111945489 -6 -4 2 0 1 6 14 7
1532180111968428 2 -6 6 -4 -7 -5 4 3
1532180111983388 -3 3 -7 -2 2 1 -31 -9
1532180112005329 3 2 6 0 -5 -7 -18 1
1532180112028268 -24 -31 14 -17 -8 -6 3 -8
1532180112058188 -6 -10 25 13 1 -4 3 1
1532180112103068 -2 -7 7 -5 0 0 6 2
1532180112132988 33 32 -20 -15 0 0 0 5
1532180112170886 5 2 10 14 0 -2 20 -1
1532180112200806 -4 4 15 2 -7 -6 -12 -3
1532180112230726 11 23 7 1 0 1 -21 1
1532180112252668 -13 13 7 13 7 6 -16 -6
1532180112267628 6 -29 6 3 -1 1 4 7
1532180112305530 6 26 0 5 1 1 75 -3
1532180112328465 -9 -6 2 -6 -4 -6 -22 -19
1532180112350406 -22 -9 11 -13 -2 2 -2 -8
1532180112380326 -7 -20 -35 -22 -8 -4 -14 -3
1532180112403265 -1 2 3 7 -2 0 -5 -3
1532180112425206 -9 -20 -11 5 0 3 39 -1
1532180112455126 5 -4 -25 6 -1 -3 0 -1
1532180112472088 12 16 6 8 -4 -5 11 4
1532180112486049 -3 -7 -6 -11 -5 -5 -10 -2
1532180112522945 -1 -3 -5 -2 -4 -2 -1 3
1532180112545883 5 16 1 10 1 -2 5 -12
1532180112575803 -15 -4 -14 -3 4 3 -74 -7
1532180112612705 10 18 2 -1 -1 4 15 -1
1532180112650604 -8 6 -16 -24 -9 -3 -1 -2
1532180112680523 -7 -29 -29 -3 -6 -3 12 -1
1532180112695483 -17 -10 0 -12 -5 -3 -3 -5
1532180112710444 7 -5 -13 3 -1 7 10 7
1532180112725404 -11 8 16 -15 -4 0 7 0
1532180112740364 3 11 36 -3 4 11 14 3
1532180112778262 2 16 2 6 8 6 5 1
1532180112800203 -3 16 15 5 2 2 6 1
1532180112860059 -11 21 3 -4 -1 -3 -6 -3
1532180112882982 -3 -47 -32 -6 -1 1 -10 -1
1532180112927864 2 -7 -13 -9 -3 -3 -1 3
1532180112942823 -4 1 3 -9 1 2 32 -2
1532180112965761 -1 1 21 0 -8 0 103 7
1532180113002662 18 27 6 6 8 9 -7 2
1532180113017622 5 10 -23 -34 -12 -9 -8 -3
1532180113040561 -6 -14 -1 -10 -4 -4 -1 -1
1532180113062502 1 -2 17 16 14 12 7 6
1532180113078459 -28 -44 -15 -5 4 7 9 -1
1532180113100408 -7 -9 -2 11 4 3 8 -3
1532180113123339 -5 12 18 8 3 0 -8 -3
1532180113138299 5 1 -14 -5 -22 -10 1 3
1532180113175201 15 16 -1 4 0 1 12 3
1532180113213099 3 -4 2 -2 -1 -3 -1 0
1532180113250001 3 0 -5 -2 3 3 3 -1
1532180113287899 -5 -7 -3 -1 1 2 5 -1
1532180113302859 -4 39 15 4 -1 -2 2 -3
1532180113332779 -9 1 2 -20 -4 -2 -2 -4
1532180113370678 0 -57 -7 -15 -2 -1 0 0
1532180113400598 -1 -59 -3 0 0 0 1 0
1532180113430518 -2 -43 6 1 1 12 3 1
1532180113460438 -3 -37 0 0 2 6 1 -2
1532180113513297 -3 22 -31 -4 -2 -6 -3 -2
1532180113565158 2 -3 -68 4 2 2 -1 1
1532180113595078 3 -6 12 -4 -2 12 0 0
1532180113618017 1 -7 11 -5 2 3 0 1
1532180113640955 0 48 43 27 7 -6 -2 -1
1532180113686833 3 -1 21 -3 0 2 3 0
1532180113707776 -5 -7 23 -7 -3 1 -1 -2
1532180113745674 -1 -2 6 -3 2 -1 -1 1
1532180113782577 0 -40 -86 -7 1 0 1 1
1532180113828454 -4 -1 -8 -10 -3 -5 -3 -1
1532180113859371 2 -13 -2 -2 3 -2 -9 15
1532180113880315 3 67 -42 -4 -5 -19 -19 51
1532180113895275 10 19 25 0 -6 27 53 15
1532180113918214 3 2 3 2 -3 -16 -11 25
1532180113963093 0 -21 -41 -7 -5 5 10 56

1532180114007974 -14 16 68 2 -1 7 -7 -26
1532180114052868 -3 26 65 6 -2 -2 -3 -6
1532180114082774 -11 -14 -15 -6 -3 5 -1 -5
1532180114135632 -1 6 -4 5 3 1 0 -1
1532180114172534 -12 -2 -4 0 1 0 5 4
1532180114203451 -2 0 -6 5 0 0 -2 -4
1532180114248331 0 5 2 -2 0 -1 -1 -1
1532180114263291 -1 2 11 21 6 1 -2 -1
1532180114293211 0 -3 -7 -4 -1 -5 -1 0
1532180114315152 -1 -12 -8 -4 0 1 -1 -1
1532180114353051 0 -5 -17 -7 -1 1 -1 -1
1532180114374992 4 -14 -6 2 1 -1 -1 0
1532180114412891 -2 2 -9 -3 -3 -1 1 -1
1532180114435832 0 -15 -13 -2 -2 2 1 2
1532180114450790 2 25 6 -1 -1 -4 -2 -1
1532180114472731 -3 -50 -14 1 0 -1 1 -2
1532180114510630 -10 -29 -8 -2 1 -2 -1 -3
1532180114525590 -2 19 1 0 0 -1 -2 -1
1532180114562491 5 -3 -6 0 1 2 -1 1
1532180114578448 -1 1 -2 7 -1 1 0 -1
1532180114600391 5 -1 3 3 2 2 -1 2
1532180114653249 0 4 -1 -3 -1 -3 0 -1
1532180114675190 -6 26 8 -3 -3 -1 -2 -2
1532180114713088 0 -6 -1 0 -1 -4 -1 -1
1532180114735030 1 -9 -8 -3 1 -1 0 0
1532180114773937 -2 -6 -3 2 -1 -1 0 -1
1532180114802847 -3 -2 -4 -1 -1 1 -1 -1
1532180114855707 -3 1 2 2 2 0 0 0
1532180114907568 -3 -2 -2 -3 0 0 -1 -2
1532180114937488 -2 -2 0 -1 -3 -4 -2 -3
1532180114998326 -3 -13 -20 -1 1 0 -2 -1
1532180115020267 -2 -15 29 -11 -5 -3 -2 0
1532180115080117 1 -14 1 2 0 -8 -2 -2
1532180115103046 5 20 -11 5 3 8 3 46
1532180115140944 11 52 5 7 23 -77 0 15
1532180115162886 4 26 9 4 5 20 11 -5
1532180115215744 -12 -43 -4 -1 -6 21 -4 -22
1532180115245664 2 -6 -13 -6 -8 14 -1 -9
1532180115297525 4 9 -45 2 -1 5 -1 0
1532180115335430 1 8 5 -2 2 1 -1 -2
1532180115365344 -2 2 -6 -11 0 1 -2 -2
1532180115433174 -3 30 20 5 -1 0 -2 -3
1532180115463083 -1 -1 2 -4 3 1 -1 -3
1532180115507963 -2 -6 15 13 3 1 0 -2
1532180115539878 -2 -10 -15 0 1 2 1 0
1532180115590741 1 6 2 -9 -1 -3 -1 -1
1532180115650581 -2 -7 13 9 -5 0 -3 0
1532180115710421 1 -4 6 4 4 2 2 2
1532180115748320 -2 -1 -17 -14 -8 -4 -1 -2
1532180115770261 -2 3 17 11 2 -2 -1 -2
1532180115853040 1 -3 -8 0 8 2 2 0
1532180115874981 -4 -7 6 -7 -12 -5 -4 -2
1532180115912880 1 -2 1 15 7 3 2 1
1532180115950778 3 -17 -18 -10 -8 -6 -4 0
1532180116034561 -1 1 10 8 -15 0 2 0
1532180116130299 0 4 -3 4 16 2 0 0
1532180116168197 -3 -7 -5 2 -3 -1 0 -1
1532180116213077 -3 -2 5 -3 -1 0 -1 -2
1532180116242997 -1 -4 1 0 3 1 0 1
1532180116265936 -1 4 -7 3 -1 0 0 -2
1532180116280896 1 -10 -2 0 1 0 -1 -1
1532180116302851 2 6 6 -1 -2 -3 -2 0
1532180116325776 -3 -5 -3 -7 2 2 1 1
1532180116347717 1 12 12 5 0 -1 -2 -2
1532180116370656 -4 -8 -19 1 -1 0 -1 -2
1532180116385616 -3 0 1 2 -2 -1 0 0
1532180116415536 -4 -8 -1 1 1 0 -1 -2
1532180116437493 -1 9 11 2 0 -3 -3 -2
1532180116453434 0 -9 -24 -3 -1 0 -1 -2
1532180116468394 -10 14 13 5 0 -1 0 -2
1532180116498314 -4 -7 -11 0 -1 2 -1 0
1532180116513274 14 2 -14 -3 -1 0 0 1
1532180116550176 0 -6 -41 2 -1 0 1 1
1532180116573115 0 -8 -21 -4 0 0 1 -1
1532180116588074 14 9 -2 -1 -5 -2 -4 2
1532180116603035 -9 -59 36 1 -3 -1 0 -5
1532180116617994 -8 -16 -8 -3 -1 -3 -3 -5
1532180116648912 1 16 9 4 0 0 1 -3
1532180116670853 -11 9 -7 0 1 1 0 1
1532180116700773 -8 -32 -28 -4 -1 -2 0 -1
1532180116722714 -3 -27 -8 -1 -1 -1 -10 -13
1532180116752636 1 1 3 1 2 1 3 2
1532180116783564 -5 -7 -6 -3 -3 1 -3 -2
1532180116813474 -3 12 -5 -1 0 -1 -7 -10
1532180116828432 8 27 -5 -5 -4 -3 -1 -2
1532180116850372 -11 -85 -16 1 1 1 -1 2
1532180116880293 -1 4 6 3 2 0 -3 1
1532180116895253 5 -10 5 0 -1 0 3 3
1532180116918192 -1 23 9 -3 -2 0 0 2
1532180116948112 3 -3 7 2 1 0 -4 -3
1532180116970053 -4 6 -3 -2 -3 -2 0 1
1532180116992992 -2 -16 2 0 0 1 0 0
1532180117007952 -6 17 -3 0 -2 -1 -4 -5
1532180117030890 -1 -7 -4 -3 -1 -1 -2 -4
1532180117052832 2 15 -5 1 0 0 1 2
1532180117067791 -1 18 2 1 1 0 0 2
1532180117090730 3 -48 -5 -11 -5 -3 -4 -2
1532180117112672 10 35 5 -20 -8 -5 -9 -2
1532180117127631 0 14 5 5 4 3 3 2
1532180117150570 10 -5 1 -5 -2 -2 -1 4
1532180117189466 -1 5 -13 0 -1 0 -9 -3
1532180117210410 7 -15 2 3 2 0 -8 0
1532180117233349 2 -38 -4 1 -5 -4 -3 -2
1532180117248309 1 6 -4 -4 1 0 -2 -1
1532180117270250 6 -9 9 7 -1 0 -2 2
1532180117293189 -2 -9 2 -4 -1 2 1 -1
1532180117308149 2 34 -3 -2 -2 -1 -3 0
1532180117338069 6 29 -1 -6 1 0 -2 1
1532180117360010 6 -9 -8 -14 -5 -2 0 0
1532180117376965 -6 3 11 22 2 2 1 -2
1532180117414863 3 -16 10 15 0 -1 -1 1
1532180117435808 -17 6 1 -6 2 3 0 -2
1532180117457760 4 -3 13 12 4 1 1 1
1532180117487669 -1 -17 3 23 3 -1 -3 0
1532180117510607 -4 9 -10 -14 -4 -3 -1 -4
1532180117532549 -7 -4 4 5 0 0 10 -1
1532180117570447 12 11 -4 -7 4 4 0 0
1532180117585407 -1 15 -20 -1 -1 -1 -27 1
1532180117615342 -7 -5 -9 -15 -8 -3 -3 -3
1532180117653226 -5 -35 -18 -16 -7 -10 6 -4
1532180117698106 -23 -17 -9 15 5 7 37 -2
1532180117728026 -12 -35 9 -10 -3 -3 16 -22
1532180117810805 -20 21 7 8 2 3 5 -6
1532180117827759 3 -24 10 -4 -3 -10 42 3
1532180117877626 2 -19 -33 -6 -4 -2 32 4
1532180117907546 5 -17 -45 -7 -1 -17 66 8
1532180117990325 11 22 37 6 -3 -6 -9 35
1532180118065125 12 7 13 3 1 1 -28 6
1532180118095045 2 31 -29 -4 -1 -1 2 1
1532180118140926 -7 -1 -5 -15 -9 -4 1 -1
1532180118170842 -11 -14 27 30 7 3 12 -1
1532180118209738 3 8 -74 -16 0 1 2 -3
1532180118230682 -2 -3 4 -24 -11 -7 -5 -4
1532180118282543 2 22 71 2 -1 0 -4 1
1532180118298501 -1 -63 -43 -12 -3 -2 31 11
1532180118320442 0 16 -10 -4 -4 -3 -15 2
1532180118404232 13 21 6 2 0 1 10 0
1532180118433141 10 3 24 4 -2 -3 -4 1
1532180118560800 -1 -9 10 11 1 -1 -2 -1
1532180118605679 -15 -48 8 -14 -9 -6 -4 1
1532180118650559 -1 22 29 2 -3 -4 -1 -1
1532180118703418 -3 22 25 4 4 -3 -26 -2
1532180118726357 -6 1 -11 -10 -9 -7 -16 1
1532180118815119 4 7 -14 -6 3 1 -42 0
1532180118876954 3 -4 -12 -10 -5 -2 7 1
1532180118890917 -4 -10 -9 -7 -2 -1 -23 -3
1532180118927818 1 8 -2 -3 -2 -3 0 -1
1532180118957737 0 -10 -4 -3 -5 0 -8 0
1532180118995636 -1 -3 -9 2 -2 -4 -10 -1
1532180119017578 0 -2 -6 -1 -2 -3 -23 -3
1532180119063455 3 3 0 -4 -5 -1 15 0
1532180119115316 3 7 15 7 -1 0 -7 0
1532180119145236 0 0 -1 -8 -3 -2 0 0
1532180119175156 -1 -5 -13 -6 0 2 6 1
1532180119205076 -1 2 2 2 -2 -1 14 -1
1532180119235998 4 4 -14 15 0 -3 -15 0
1532180119265913 11 20 11 -1 -5 -4 10 1
1532180119310793 -4 20 -1 0 3 4 -1 -13
1532180119325754 -2 1 -6 -2 -6 -3 -4 9
1532180119347695 -3 11 7 3 -2 2 31 -5
1532180119370634 -20 -41 -11 -22 -14 -11 23 1
1532180119385607 -31 -38 -12 5 4 4 84 4
1532180119415514 15 2 24 12 0 -1 -14 0
1532180119438452 1 5 15 68 11 -3 -16 -5
1532180119462388 19 25 -3 8 7 3 -14 6
1532180119483332 22 48 21 2 0 -1 -46 -1
1532180119513252 17 17 -6 -5 1 -1 15 2
1532180119535194 3 12 -9 21 2 -2 -1 -1
1532180119550154 6 1 -26 -22 -11 -6 -1 0
1532180119588052 11 9 -3 15 17 15 14 20
1532180119603013 -9 13 0 0 2 2 -9 -34
1532180119640911 4 -28 0 -1 -6 -7 -31 23
1532180119655871 7 -4 1 2 3 1 -19 14
1532180119677812 9 3 2 0 -2 0 11 0
1532180119700758 3 -13 -31 18 4 0 8 0
1532180119715711 -9 -15 -4 1 -1 -6 -7 -3
1532180119760591 6 19 -11 -5 -4 -4 19 -2
1532180119775551 -4 14 55 25 0 -4 -17 -7
1532180119797492 1 1 2 -3 0 1 -12 -2
1532180119820431 -3 -16 -43 -8 -7 -7 -19 -2
1532180119835402 -17 -37 -37 -14 -3 -1 -7 1
1532180119858329 17 -19 39 10 1 0 16 1
1532180119880271 9 21 4 7 2 0 35 5
1532180119903226 -22 -67 17 11 6 6 6 -23
1532180119925151 5 33 -18 3 6 6 24 3
1532180119948090 5 13 -12 2 2 -2 -21 5
1532180119970031 -15 -26 -16 -12 2 5 42 -9
1532180119992970 6 -2 -19 16 3 4 38 0
1532180120015908 -8 -28 -52 -10 -3 0 -27 -2
1532180120030868 -8 5 21 9 3 0 -11 -1
1532180120052809 -8 -4 7 2 -4 -1 -5 -1
1532180120075748 -8 -3 2 5 2 1 66 1
1532180120112649 -5 -44 -32 7 0 0 -20 -2
1532180120135588 5 33 31 13 2 2 -15 2
1532180120151546 -3 17 -7 -6 -6 -3 -14 -3
1532180120180468 10 -4 -17 -5 6 8 17 6
1532180120195428 18 56 20 8 7 5 -4 13
1532180120233326 11 8 5 4 6 7 24 -2
1532180120263247 -6 -16 -19 -11 -7 -3 -52 -1
1532180120308126 -16 -24 47 24 4 5 -23 -3
1532180120338047 0 -2 -5 2 0 8 12 -1
1532180120359988 -4 -22 -7 -9 -2 5 -10 -6
1532180120382926 15 21 -9 -10 -6 -7 3 5
1532180120397887 -7 19 12 -15 -4 -1 -3 -3
1532180120420825 5 2 -9 7 7 4 8 1
1532180120450745 2 2 26 12 8 4 -2 -1
1532180120487647 -5 -2 4 -8 -10 -8 32 1
1532180120517567 -8 -16 3 -11 -4 -2 -26 14
1532180120540505 -2 9 -1 0 -2 -3 -17 -15
1532180120563444 23 27 -4 -1 -4 -8 18 36
1532180120578404 21 4 4 1 1 -3 -36 27
1532180120600345 -6 -15 13 8 0 1 4 -6
1532180120623284 -13 -1 -35 -9 -3 -4 -69 -19
1532180120638244 -3 12 9 1 -1 -1 -6 -7
1532180120675145 -14 -11 -18 10 12 8 -6 -12
1532180120698084 3 25 -36 -9 -2 -3 27 1
1532180120728004 -2 -5 -9 -8 2 7 35 -4
1532180120757924 -12 -24 -9 -4 2 5 -3 1
1532180120787844 5 0 -16 -3 -6 -5 -24 -6
1532180120832724 -7 -4 6 3 2 0 -8 -3
1532180120877604 6 -8 -4 0 0 -1 7 0
1532180120930462 1 -4 0 -1 0 8 57 -2
1532180120955403 0 3 1 -1 -2 -4 -24 -8
1532180120983321 -1 7 3 2 -1 -3 -32 20
1532180121058121 -1 -8 -4 -1 1 -2 -9 0
1532180121147881 -6 34 11 -9 -5 -5 -5 -7
1532180121207721 -8 -37 15 2 1 0 0 -3
1532180121252605 3 31 38 -5 -3 1 0 2
1532180121269571 5 85 13 -14 -6 -4 -1 0
1532180121305460 -3 -53 -15 -9 -2 -1 -1 0
1532180121320420 -3 -46 2 4 -1 0 0 -2
1532180121365300 -3 -24 0 4 2 -1 -1 -1
1532180121388238 6 39 24 3 1 0 -1 0
1532180121425140 3 29 12 11 2 -1 1 3
1532180121448078 0 -24 -17 7 9 2 1 1
1532180121470020 1 -38 -9 1 -3 1 0 -2
1532180121500936 9 53 3 -6 -4 -5 -2 1
1532180121560777 0 -38 -23 4 3 -1 -1 -1
1532180121582718 2 13 5 -6 -6 -1 0 -1
1532180121627598 0 2 18 -9 0 -2 -1 0
1532180121665497 13 47 29 6 4 0 12 17
1532180121680457 -2 13 -5 -6 -3 3 -6 -7
1532180121710377 -10 4 -7 3 1 -1 -7 -48
1532180121733316 14 4 -27 -4 4 92 48 47
1532180121785177 -11 -7 -27 -5 -7 11 -31 -3
1532180121817092 2 -2 -84 -2 5 -26 22 21

1532180121920814 -2 14 34 9 -7 -11 -11 -11
1532180121957716 -4 -1 1 0 2 4 9 7
1532180121987636 2 26 41 7 0 0 1 6
1532180122017555 2 3 4 -5 -4 -7 -1 -5
1532180122056451 -7 -25 56 -3 -2 -5 -3 -8
1532180122093353 -6 -5 41 -1 -2 2 -5 -4
1532180122108313 0 -5 -23 0 0 -1 -3 -1
1532180122153193 1 -4 -6 0 1 1 -1 1
1532180122175134 0 -1 -7 -2 -2 0 -1 -3
1532180122235972 -2 0 -1 -2 1 2 -1 3
1532180122347708 1 7 -1 -3 -1 -1 -1 -1
1532180122407549 -3 -5 4 -2 0 -1 0 1
1532180122445448 2 2 -1 1 -3 -1 -2 -2
1532180122498331 3 4 -7 -3 -1 0 -2 6
1532180122528251 -4 -25 -9 -1 0 2 -1 -3
1532180122565153 2 0 5 -2 -3 -1 1 -1
1532180122588114 -4 -26 37 3 3 -2 -1 1
1532180122640973 -1 31 33 6 3 7 1 32
1532180122692834 1 32 -2 -1 0 38 0 -50
1532180122707794 11 -7 -2 -5 -6 -53 31 0
1532180122760652 5 -5 -14 2 -3 -78 -40 14
1532180122797554 -17 -33 -12 7 -1 -6 -15 -24
1532180122820492 -7 18 -97 -11 -11 -19 -22 -1
1532180122873351 1 -12 49 -7 -4 -4 -7 0
1532180122903271 2 -15 23 27 8 0 -2 5
1532180122955133 -3 -9 22 7 2 -3 -5 -3
1532180122978071 1 15 23 5 4 -1 -1 1
1532180123007991 -1 -13 18 -4 -4 -2 -2 -1
1532180123037911 0 7 -1 -9 -2 -3 -3 0
1532180123060850 -1 8 -2 0 -1 0 0 -1
1532180123082791 -2 -4 -53 7 -1 -1 -1 -2
1532180123112722 -1 1 12 9 -2 1 1 0
1532180123142631 -3 -13 13 -8 -3 2 2 1
1532180123165570 -2 -1 3 10 1 -1 -1 -2
1532180123180530 3 17 41 -4 3 0 0 1
1532180123210449 0 -23 -52 33 14 1 2 2
1532180123233388 0 3 26 0 -1 1 2 -1
1532180123279266 -1 5 22 -6 4 0 0 0
1532180123308188 -4 -19 -13 -8 -2 -1 -1 -1
1532180123330129 0 4 15 -7 -4 -4 -1 2
1532180123376007 -3 0 -10 3 -19 -2 -1 -2
1532180123412908 -2 21 11 6 2 4 1 1
1532180123450806 2 12 -7 -8 -1 -1 -2 -2
1532180123472748 0 -1 -4 -12 -10 -7 -3 -1
1532180123487708 1 10 29 -15 5 -7 1 1
1532180123540567 0 -7 -9 3 -1 7 2 0
1532180123562508 -2 5 7 -1 -6 0 3 1
1532180123585446 -3 0 -4 -6 -5 -5 -1 -1
1532180123608385 1 1 -22 -12 -14 -7 -3 0
1532180123653266 1 17 17 2 4 0 1 1
1532180123690167 0 1 -7 6 -1 -2 -1 0
1532180123757986 0 -2 2 -4 -8 -1 0 -3
1532180123795884 -3 -6 -7 1 -2 -2 -2 0
1532180123817826 -7 -3 -14 4 5 2 2 -2
1532180123855724 -1 0 5 -2 2 1 -1 -1
1532180123870684 -4 1 3 3 2 0 1 0
1532180123885644 3 7 6 3 0 -2 0 2
1532180123915563 1 4 2 0 -1 -1 0 -1
1532180123953477 0 -3 -3 -2 -2 -3 0 0
1532180123968423 -6 -9 2 4 -1 -2 1 -2
1532180124005324 1 5 -9 -7 -4 -2 -3 -1
1532180124028263 -12 7 0 -5 -1 0 0 -4
1532180124043223 -14 -4 4 3 2 0 -2 -5
1532180124073143 -10 -1 1 3 1 -3 1 -4
1532180124095084 1 9 -2 6 -2 -1 -2 -1
1532180124140961 1 -7 2 -1 -3 1 1 2
1532180124177863 14 -23 -34 -1 -4 -2 -2 1
1532180124200801 10 -3 23 1 0 0 7 8
1532180124215762 14 -6 -21 -4 0 0 -2 0
1532180124237702 -10 12 0 2 2 2 -1 -5
1532180124260641 -1 -15 -2 0 0 1 -2 -6
1532180124283580 -13 -48 17 -2 -1 -2 3 0
1532180124305538 -3 3 0 1 1 0 -1 1
1532180124343419 6 19 14 0 1 1 1 7
1532180124365361 -2 33 14 -1 -1 0 0 -2
1532180124397286 15 5 0 -2 -1 0 -1 -3
1532180124425201 3 22 -1 1 -3 -1 1 0
1532180124448139 4 3 -8 -1 -2 -1 0 12
1532180124470082 -11 -12 -3 2 2 0 -2 1
1532180124507980 -10 -9 7 2 0 1 -2 -3
1532180124530919 -3 -34 7 1 1 -2 -2 1
1532180124553858 -2 -22 2 -3 1 -1 0 -2
1532180124590759 6 30 3 0 1 0 1 1
1532180124605719 11 41 9 -2 -3 0 -1 1
1532180124627660 -4 -6 0 -5 -2 -3 -3 -3
1532180124642620 0 -13 -20 0 -1 1 0 0
1532180124665559 -3 -14 -2 2 2 -2 -2 -2
1532180124695479 0 -29 -9 -4 0 1 2 -1
1532180124718417 3 18 -1 4 -2 0 0 2
1532180124733377 -5 37 4 3 1 -1 0 -1
1532180124748337 1 42 -1 1 -2 -1 0 -1
1532180124793217 -10 -36 1 8 3 3 -2 -2
1532180124808177 2 -6 0 0 -5 -2 -1 -3
1532180124830118 -3 -9 2 -3 -12 -5 -1 -1
1532180124860038 -7 -28 -11 -16 -3 -1 -1 1
1532180124874999 7 17 0 -31 -14 -3 6 2
1532180124897937 -11 -19 -8 3 1 -2 -4 -5
1532180124927857 14 8 10 12 5 2 0 3
1532180124965756 -7 7 -10 -9 1 -3 -7 -4
1532180124980715 -6 -9 24 43 4 1 -5 -2
1532180125002657 0 -40 2 -2 5 2 2 1
1532180125040556 4 8 -1 -9 0 0 0 1
1532180125062497 2 8 5 -2 -3 -2 -1 3
1532180125085436 2 -9 -1 1 7 2 0 -1
1532180125115355 7 7 0 -5 -7 -3 -4 2
1532180125138295 -8 -20 -19 -12 -7 -1 -1 -4
1532180125153255 2 -3 -17 0 2 1 -1 0
1532180125198134 5 13 17 6 1 1 2 0
1532180125228054 -8 2 5 -12 -7 -6 -7 -2
1532180125257975 -29 -2 -5 9 3 1 2 -2
1532180125272935 2 -6 -5 17 -1 -5 10 -4
1532180125287894 4 3 -13 3 -1 3 36 7
1532180125310833 -50 -21 -5 4 1 -4 -2 -20
1532180125340753 14 -2 -14 -1 -1 4 58 13
1532180125370672 9 19 -22 11 -3 -4 -30 1
1532180125392615 -38 24 58 -7 -1 1 -9 -2
1532180125407575 17 17 25 -9 -6 -4 -12 9
1532180125438492 -1 -12 3 5 3 0 35 -9
1532180125460433 -5 6 -2 -6 -4 -2 -14 -2
1532180125490353 11 14 8 -4 -1 -4 0 0
1532180125505313 -4 0 -4 7 4 5 -20 -4
1532180125535233 3 -12 5 1 0 0 -13 -3
1532180125565153 -2 0 -8 -2 -5 -1 -12 2
1532180125588091 4 18 6 5 8 0 -8 -7
1532180125618012 -3 -4 -13 -12 -8 -3 10 -4
1532180125640950 -12 -18 -4 1 -10 -7 19 -6
1532180125670870 -13 -11 -19 -7 0 -2 -4 -5
1532180125700791 -1 -11 33 -2 6 5 36 -2
1532180125715750 8 12 11 1 -3 -2 -8 -1
1532180125737692 -1 11 0 -11 -1 2 -3 4
1532180125752652 -2 13 4 1 -2 0 -2 0
1532180125790550 1 22 15 -14 -2 1 16 1
1532180125820470 15 -37 -23 14 -1 -1 -12 3
1532180125850390 -2 15 -27 -5 -13 -10 -7 -6
1532180125865350 7 24 -15 -5 -1 -1 -2 5
1532180125895270 -9 -11 8 -5 -1 -4 -3 -6
1532180125986027 -5 0 -6 3 6 4 0 -13
1532180126015948 2 7 -3 5 2 -6 -5 -2
1532180126060827 3 -25 22 26 4 5 8 5
1532180126090748 5 -22 -10 -1 2 1 6 2
1532180126127649 2 -19 -25 4 -2 -2 0 3
1532180126173542 -1 12 -4 0 -1 -4 -12 -2
1532180126218406 -18 -3 6 4 -3 0 21 15
1532180126293206 2 -7 -8 -10 -5 -4 -4 -1
1532180126338086 8 12 -6 -2 -2 2 8 3
1532180126368005 14 24 11 -3 2 7 35 7
1532180126450785 -5 -6 -1 3 -2 -4 -7 0
1532180126480705 1 4 -3 -1 -4 -5 -6 1
1532180126510624 -3 -4 -2 0 2 3 2 0
1532180126532566 -1 -4 -2 -2 0 -1 18 -3
1532180126570465 1 0 -5 7 5 2 -13 -1
1532180126593403 -4 0 -2 -5 -4 -4 -3 -4
1532180126638284 -10 9 19 6 0 0 -13 -2
1532180126668203 -2 -2 -9 -4 -4 -6 -14 -4
1532180126720065 -2 -6 -6 -3 0 -2 -16 0
1532180126765942 2 -5 0 0 1 2 8 2
1532180126802843 -4 -4 -10 -1 0 -2 -7 -4
1532180126817802 2 -2 -8 -6 -3 1 25 -1
1532180126877643 -2 -5 -2 -3 -2 -3 -19 1
1532180126892606 -15 2 2 8 0 1 18 -2
1532180126922524 -7 -8 -4 -8 -3 -2 -1 -4
1532180126937483 1 -1 -3 -3 -4 -3 5 -2
1532180126968401 0 -6 -15 0 -2 0 10 1
1532180126990342 13 -29 -23 -2 0 1 48 1
1532180127005302 -13 24 8 3 1 0 -11 -1
1532180127020262 2 11 9 -1 0 -1 -3 -4
1532180127035221 -11 -2 18 0 -3 -1 -16 -5
1532180127095062 -11 3 -5 -8 -5 -8 -24 -6
1532180127110022 6 3 12 11 8 5 12 4
1532180127132961 22 24 -22 7 1 1 4 9
1532180127155899 9 18 -7 -8 -5 1 15 3
1532180127177840 16 34 25 14 -2 -3 -11 7
1532180127200778 6 -1 34 -4 -5 -4 -7 3
1532180127222720 -9 7 11 -17 -5 5 28 -1
1532180127245660 4 -11 42 23 5 2 2 1
1532180127267600 5 9 4 -5 -6 -6 -6 -1
1532180127305499 -14 -14 -11 -3 1 1 14 2
1532180127335419 -3 -4 -9 -6 -2 -3 -12 -3
1532180127366337 -5 -1 15 14 7 4 -24 -1
1532180127418198 10 -3 -33 26 9 8 8 6
1532180127433158 19 24 38 16 5 1 -5 4
1532180127470059 6 6 -13 -4 -4 -4 -3 -3
1532180127508955 7 31 5 2 -1 0 7 1
1532180127522917 -13 5 13 -6 -1 2 19 1
1532180127560817 9 -3 0 3 -3 -5 -11 0
1532180127582757 16 41 16 5 1 1 -1 0
1532180127620656 -23 -12 6 15 10 11 33 -3
1532180127642597 15 32 9 -8 -7 -9 -24 -1
1532180127688492 -1 10 7 -3 -4 -5 4 -1
1532180127733355 -9 -19 -14 -5 -4 -1 -13 -3
1532180127755296 7 9 -14 4 3 5 8 2
1532180127778235 -7 -12 34 7 0 4 5 -1
1532180127815136 1 44 17 -5 -6 -5 3 -3
1532180127838075 1 -2 -10 3 1 2 -9 -2
1532180127853035 -7 12 33 -5 -3 -4 -3 -2
1532180127898912 -4 -37 -14 0 1 3 -3 -4
1532180127927835 -9 7 8 -1 -3 -6 -6 -1
1532180127965734 22 10 2 5 -4 -6 -5 -2
1532180128032555 -12 -32 -2 -2 -6 -8 -11 -8
1532180128063478 -5 -18 -15 -13 -4 -2 -7 -1
1532180128108352 0 -19 48 6 3 3 3 -2
1532180128130294 -9 35 4 -8 -6 -2 1 0
1532180128168193 -3 -20 -6 -14 -3 -2 2 -5
1532180128190134 -9 47 36 6 -4 -6 -22 2
1532180128235014 6 -31 -10 4 6 -1 -10 -7
1532180128257952 19 22 -23 -1 2 4 1 10
1532180128295851 -11 -8 24 3 -3 0 -6 -5
1532180128355691 -5 -14 2 14 -5 -4 4 -5
1532180128377633 -41 -50 -19 -15 0 4 -5 -13
1532180128407552 12 6 -7 -2 4 4 4 5
1532180128430491 0 -3 -5 12 3 4 3 1
1532180128468389 -12 -5 6 -5 -5 -7 2 -3
1532180128505291 -1 -3 -4 -4 -2 2 7 0
1532180128550171 1 3 -8 -2 3 2 2 1
1532180128595051 -2 -22 -7 1 -1 20 0 2
1532180128617990 1 11 0 0 -1 1 0 0
1532180128649920 -2 -11 -6 2 0 -13 2 -1
1532180128670847 2 29 6 -2 0 8 0 0
1532180128715728 2 34 7 -1 -1 -8 -1 0
1532180128745648 6 5 17 6 2 1 -2 1
1532180128775568 3 37 -18 -5 -1 1 -7 -5
1532180128850368 1 23 29 8 -2 1 1 -3
1532180128897243 11 -14 5 -5 -2 -2 -4 -1
1532180128970048 -5 14 -23 6 2 0 0 -2
1532180129022906 -3 -4 -23 -10 -6 -4 -2 1
1532180129052827 3 -12 -19 0 1 -1 -1 0
1532180129105685 1 48 28 0 2 -17 -2 0
1532180129142587 10 12 -1 -1 -7 12 5 0
1532180129195446 1 11 69 -27 -12 -15 6 14

1532180129257280 -8 -28 -84 4 -1 -7 5 16
1532180129278224 2 -4 26 22 7 7 -1 7
1532180129338063 3 -28 7 24 7 8 4 1
1532180129367984 4 21 3 0 -1 -8 -1 -2
1532180129406880 0 5 4 7 3 -4 2 2
1532180129495654 -2 -2 -6 3 2 -9 -9 -6
1532180129615334 1 2 7 -3 -2 -2 -2 -1
1532180129638273 -5 -14 -7 -1 2 1 -2 -3
1532180129690135 -4 -21 -9 -13 -5 0 0 1
1532180129705095 1 4 0 3 1 1 -2 0
1532180129735015 1 6 3 0 1 -2 0 -1
1532180129765932 1 2 -2 5 1 0 2 2
1532180129780891 -1 -16 -2 1 0 0 2 0
1532180129810812 0 6 -5 3 1 0 0 -1
1532180129832769 -1 -3 -4 -1 0 -1 -3 -1
1532180129855692 -3 -17 -8 -3 0 0 -2 -1
1532180129877634 0 1 11 -1 -1 -1 0 0
1532180129892593 1 -3 -12 -6 -3 0 0 -1
1532180129907553 3 -10 -4 -4 1 2 1 0
1532180129923511 -2 -7 21 4 2 2 1 0
1532180129953430 4 4 -4 -2 -1 -1 -1 -1
1532180129975372 -1 -2 -6 1 -1 0 -1 -3
1532180130050172 -3 10 -18 -11 -2 -12 -4 -3
1532180130065132 4 -10 -8 -4 -2 -1 2 2
1532180130117990 9 -64 -27 -8 -5 -20 -2 17
1532180130162622 5 57 2 -2 -1 16 4 -9
1532180130185561 -13 -85 -8 -2 -3 -25 -5 -4
1532180130230441 3 -2 5 -2 -7 -17 5 1
1532180130275321 2 13 -41 14 1 7 3 8
1532180130305241 -6 -54 48 -9 -5 -11 -1 0
1532180130425934 1 -4 -3 -13 -6 -9 -5 -3
1532180130462819 -2 -16 8 13 2 0 0 -2
1532180130477780 -4 -6 7 16 -2 -1 -1 -1
1532180130537627 2 -14 -51 24 11 3 4 4
1532180130575526 -3 5 4 -8 -5 -1 -3 -2
1532180130590501 1 7 16 -11 -7 -4 -4 -1
1532180130635366 1 -2 -12 -2 4 -30 -9 0
1532180130688224 -1 -1 2 -4 -2 17 1 -1
1532180130710166 -1 -2 -4 -3 1 9 0 0
1532180130770006 -2 3 -1 19 -2 1 -3 -1
1532180130792944 -3 -10 -10 -1 -5 5 -1 -3
1532180130830843 -2 -7 0 10 5 3 -1 -2
1532180130852784 0 -2 -25 -11 -2 0 0 -1
1532180130882704 -1 1 6 3 6 3 1 0
1532180130905643 2 2 7 3 2 2 1 1
1532180130927584 -2 -8 -1 22 5 1 0 0
1532180130965483 1 -16 -5 6 5 0 -2 1
1532180130980443 -3 -8 -1 -10 -6 -2 -3 -3
1532180131003381 -1 1 0 -4 -4 -5 -2 3
1532180131018341 1 -8 11 -4 1 1 0 -1
1532180131048261 -1 13 15 0 -5 -2 1 -2
1532180131078181 2 -7 -18 4 1 0 1 2
1532180131093141 -1 1 -1 3 0 1 -1 -1
1532180131108102 -4 -8 -30 -8 1 2 -3 0
1532180131138021 -1 -4 -7 0 -3 -4 -3 -1
1532180131167941 0 7 8 -6 -4 -1 1 -1
1532180131197861 -2 -3 -1 -4 2 -1 1 0
1532180131212821 -2 -2 -2 -1 1 0 -2 -2
1532180131227781 1 13 1 -4 -3 -2 -2 -4
1532180131250720 -1 -1 -8 -2 -2 -3 -3 -1
1532180131265680 -2 -19 -22 -1 3 0 -1 -1
1532180131296597 4 0 -1 0 1 0 -1 2
1532180131310560 -1 -1 3 -1 0 0 0 0
1532180131333499 1 -7 -6 -4 -2 -1 0 0
1532180131355440 0 11 1 1 -2 -2 -2 -1
1532180131378378 1 0 3 -3 -1 -1 -2 -2
1532180131393338 -3 -4 0 -1 0 -1 -2 -2
1532180131415280 2 -5 4 -1 -3 -2 -3 0
1532180131430240 -1 4 -3 -6 -3 -1 -3 0
1532180131445200 -2 -22 -17 -5 -3 -3 -4 -2
1532180131475126 1 16 -2 4 3 -1 2 -1
1532180131498059 12 2 5 2 -1 -3 -1 3
1532180131520997 -4 2 11 -2 -2 1 -1 -2
1532180131572859 -2 33 24 5 2 2 1 0
1532180131617738 -10 6 62 -10 0 -1 -1 -4
1532180131640695 -4 -12 2 0 -1 1 0 1
1532180131686554 0 -8 -24 2 1 1 -4 -5
1532180131715477 -4 13 -11 0 -1 0 1 -3
1532180131730437 16 -11 -1 -3 0 0 0 1
1532180131768336 -6 4 -20 3 -2 0 3 10
1532180131790277 6 11 -5 0 2 -1 -2 -1
1532180131820197 -4 1 23 4 -1 0 -1 -7
1532180131850117 3 8 19 -1 -3 -1 0 4
1532180131873056 -3 -7 0 -5 -3 -1 -4 -4
1532180131896991 4 -15 -3 -1 -2 -2 -2 5
1532180131910955 4 27 7 0 0 -1 0 2
1532180131932896 -4 3 -7 0 0 1 -3 1
1532180131962816 8 5 -5 -1 0 0 -1 0
1532180131977776 0 35 18 0 2 0 2 5
1532180132022656 -2 -6 -5 0 -2 -1 -1 -2
1532180132045595 2 -26 -2 1 -1 -1 6 10
1532180132075522 3 -12 -27 -2 -1 -1 1 1
1532180132090475 -9 -13 3 2 0 1 -2 -5
1532180132121392 -3 -13 4 2 1 -2 -2 0
1532180132143333 -3 0 9 -3 -2 -1 1 0
1532180132165275 -2 34 19 -4 -1 0 3 0
1532180132203173 6 19 0 -3 0 2 1 7
1532180132226122 1 -2 -1 -5 1 2 -1 -1
1532180132255034 -6 -16 -21 -4 -1 -2 -2 -2
1532180132277973 -4 -11 -2 -11 -4 -3 0 0
1532180132292933 -2 14 -3 3 3 1 -3 -4
1532180132330832 2 30 9 7 3 -2 0 1
1532180132352794 3 -14 11 11 4 1 0 2
1532180132367733 2 9 7 9 1 1 0 -1
1532180132397652 3 3 -6 -11 -6 -1 1 -1
1532180132420592 -5 6 4 0 -4 -1 1 -1
1532180132450512 -7 2 -3 -1 -2 -2 -2 -1
1532180132473450 0 -11 -2 -5 -3 -1 0 -1
1532180132488410 -5 -3 -6 -4 1 0 -1 0
1532180132518330 4 4 1 5 2 -2 1 1
1532180132548250 -1 -5 -5 -5 2 3 1 1
1532180132563210 4 6 -2 -2 0 1 0 0
1532180132585172 0 2 2 -3 -3 -3 -2 -1
1532180132623069 0 11 -10 7 3 0 0 -1
1532180132652989 8 11 23 -1 1 2 1 3
1532180132705847 -5 -16 -16 -2 -1 -2 -1 0
1532180132720808 10 2 10 -3 5 3 12 4
1532180132742751 0 9 -7 14 5 2 0 1
1532180132780648 9 2 16 13 3 4 17 6
1532180132810568 -5 -11 -2 6 3 -1 13 -6
1532180132840488 -5 6 15 4 2 -5 2 -6
1532180132863442 3 -5 -5 -22 -7 -1 15 1
1532180132893346 5 3 8 15 0 -4 -12 -1
1532180132915287 -21 -12 -7 15 4 -1 -26 -8
1532180132930247 -7 6 16 8 1 -1 -4 2
1532180132953186 -21 -9 -55 -10 -3 -10 -9 6
1532180132983106 0 -14 -29 0 1 0 11 1
1532180132998066 -14 47 49 6 2 4 18 2
1532180133027986 2 -18 -3 -5 -3 -3 1 5
1532180133065885 11 -13 2 -7 1 6 20 5
1532180133110765 14 8 9 2 0 -1 0 0
1532180133147666 6 15 10 0 3 4 16 -1
1532180133222466 -1 17 -13 6 0 -4 -10 1
1532180133246402 -2 -8 -3 -10 -6 -1 -1 6
1532180133290285 2 8 11 7 2 1 7 -5
1532180133313224 -20 -34 3 -8 -5 -5 -5 -12
1532180133373063 -20 -25 -7 0 1 -2 -1 -8
1532180133410962 -5 -3 -18 17 2 0 43 -2
1532180133440882 2 22 50 9 3 0 -9 -2
1532180133477783 -2 -41 2 5 2 1 -2 2
1532180133492744 -4 -23 -27 -11 -1 0 0 -5
1532180133515682 2 15 23 -1 2 2 -2 -1
1532180133584498 18 27 -5 -1 -3 -2 -12 17
1532180133628381 -6 -10 -1 3 0 1 1 5
1532180133688221 -22 -15 -4 -16 -5 -5 14 -7
1532180133718140 -13 -21 13 -3 0 0 -11 -5
1532180133755042 -5 5 18 -2 -2 -1 -8 1
1532180133800919 4 2 -7 -3 -3 1 -9 1
1532180133822860 2 -15 4 -1 0 1 33 2
1532180133852781 -1 1 -21 2 -4 -6 -12 -4
1532180133875719 14 7 4 3 5 1 -14 2
1532180133897660 9 21 7 4 8 7 0 -4
1532180133927580 -1 -12 8 5 2 -2 -13 -2
1532180133950519 0 15 1 -2 -1 -1 8 0
1532180133980439 -7 0 4 -1 -1 -7 -71 -3
1532180134040280 -1 -2 -7 -18 -6 -4 -2 -4
1532180134078178 1 16 13 -3 -3 -2 12 -2
1532180134115079 15 30 15 11 4 -1 -11 1
1532180134160956 6 0 -2 5 -2 -8 -21 -2
1532180134197858 -2 -6 2 1 5 5 5 -1
1532180134265676 -8 5 9 5 3 0 41 -3
1532180134349452 -1 4 0 1 4 2 1 0
1532180134393335 2 7 5 2 -3 -3 -1 1
1532180134438214 -10 0 17 -1 1 2 10 3
1532180134462151 -2 -4 4 2 -2 -2 -3 -4
1532180134499053 -3 -5 2 4 1 -1 -1 -1
1532180134527975 7 5 -5 -5 -2 -2 -26 2
1532180134557896 -4 -4 -3 -4 1 0 -4 2
1532180134595794 2 0 9 -7 -7 -4 5 1
1532180134655634 7 2 -7 5 -4 -4 -3 1
1532180134670594 6 10 2 2 -1 -6 0 0
1532180134685554 -3 7 0 4 2 1 33 0
1532180134715474 -10 -6 -15 -16 -3 -2 -18 -6
1532180134745394 -6 -9 8 10 6 3 -1 1
1532180134760354 1 -3 8 6 4 3 6 1
1532180134775314 3 17 20 -11 -6 -3 -4 -1
1532180134790274 -4 -19 -7 0 -2 1 0 0
1532180134805234 8 34 7 13 6 2 -11 -3
1532180134859090 -15 -26 -25 -2 -3 -2 7 1
1532180134880033 0 -19 -12 -5 -2 -1 3 -2
1532180134917932 16 34 18 5 7 7 6 7
1532180134940871 -1 -5 16 7 -2 -5 -11 -7
1532180134992732 -41 -41 -37 -19 -10 -9 0 -12
1532180135060551 7 18 5 -2 0 -1 -3 3
1532180135082492 -8 -14 -8 -1 -6 -4 -17 -5
1532180135120390 -4 14 -8 4 2 -1 -1 -4
1532180135135351 4 4 1 -8 -7 -7 3 -7
1532180135150311 -2 10 -9 -2 -2 3 -6 14
1532180135173249 0 -3 1 -4 3 -2 -18 17
1532180135188210 8 28 2 5 -2 1 33 -4
1532180135233090 -17 -27 -22 -4 0 -1 -8 -1
1532180135255031 10 11 -11 -11 3 1 7 -5
1532180135292930 1 -12 -67 -28 -5 -2 -3 -1
1532180135322849 19 40 25 7 -1 -1 -4 0
1532180135352779 4 -4 22 36 7 -2 1 2
1532180135390668 2 48 31 8 -1 -3 -5 2
1532180135412609 -9 -19 -11 -8 -9 -6 0 14
1532180135427570 9 12 2 7 4 3 -5 -42
1532180135451505 9 0 1 -7 -3 1 26 1
1532180135503367 7 -9 -7 -7 -4 -9 -33 1
1532180135572183 -4 5 9 3 -3 -3 -7 -11
1532180135609084 -8 -13 -2 23 0 -4 -4 -10
1532180135653964 -9 -28 3 3 4 1 -13 -8
1532180135675905 20 24 -23 8 0 -4 -3 2
1532180135735760 8 -3 -16 2 -3 -3 -3 14
1532180135787607 10 14 -2 -4 -8 -7 -8 12
1532180135825505 -2 2 -14 -7 1 -1 -7 -16
1532180135863404 -16 -13 -15 1 -5 -9 -8 -18
1532180135908284 -17 -14 -6 -21 -1 0 -4 -5
1532180135945185 -3 5 4 -7 -4 -5 11 0
1532180135968124 4 27 2 1 3 3 1 0
1532180136005025 -3 16 -10 -14 -5 -4 -8 -14
1532180136027964 -18 3 -6 -9 -4 -5 -9 -7
1532180136065862 11 -12 2 5 5 3 17 4
1532180136087804 -6 7 3 0 0 -1 -32 -4
1532180136132684 -10 -9 6 1 -2 -1 3 2
1532180136155623 0 6 7 9 5 4 26 0
1532180136194519 -29 -20 -33 -43 -11 -11 -15 -11
1532180136223441 27 25 14 22 5 1 1 8
1532180136253361 -3 -12 41 14 7 7 10 2
1532180136275302 0 0 16 -11 -10 -3 9 1
1532180136305227 -1 -8 -23 -10 0 1 6 4
1532180136335143 19 29 4 9 0 -2 10 2
1532180136403959 -3 5 0 -6 -2 0 4 1
1532180136432881 1 -2 -4 -2 -1 -1 -1 -1
1532180136455820 1 -7 -2 1 1 1 1 0
1532180136485739 -1 33 3 -2 -2 -1 -1 -1
1532180136510674 -5 -14 -3 1 -2 0 -1 0
1532180136530620 0 -16 1 -1 -1 1 -2 -2
1532180136553560 -1 -7 -2 -1 -3 -1 -2 -2
1532180136575500 -4 -25 -5 -3 -2 0 1 0
1532180136605420 -2 39 7 -2 1 1 -1 -1
1532180136628359 7 53 21 0 -1 -1 0 0
1532180136643318 -2 11 0 1 -2 -2 -1 0
1532180136688198 0 -4 0 1 -3 -4 0 0
1532180136703159 4 10 7 3 -2 -2 -3 0
1532180136725100 -3 -1 -8 0 -3 -2 -1 -2
1532180136740059 3 44 6 1 -1 -1 -3 -3
1532180136769980 1 1 2 -6 -1 15 3 1
1532180136792918 2 -19 -10 34 14 4 1 2
1532180136807878 2 -22 -24 -2 4 1 2 1
1532180136845777 3 -16 -5 6 2 4 2 -1
1532180136943516 -3 1 -8 -2 -3 -3 -1 0
1532180136965457 -5 -4 -122 -4 1 1 5 4
1532180136988395 -5 -3 -20 -5 2 -1 2 0
1532180137018316 -2 -17 5 -1 -3 3 4 3
1532180137048236 6 52 -2 8 8 -22 -4 63
1532180137078155 -59 -51 -40 -13 -9 -7 -14 -17
1532180137108076 -5 -26 89 6 -1 -2 5 -14
1532180137123035 15 -22 -60 -10 3 -1 -1 21
1532180137137996 0 4 -45 -7 -4 8 -7 -13

1532180137167916 5 -14 -20 11 3 -1 -1 6
1532180137190854 -7 -8 37 -16 2 3 1 -12
1532180137212796 12 16 -44 -3 -2 0 0 4
1532180137227756 6 33 -15 -7 -1 1 1 8
1532180137242716 -2 -4 -4 4 3 6 0 -7
1532180137273503 1 5 -6 -6 0 0 -3 -1
1532180137288463 -7 43 58 -4 1 0 0 -5
1532180137325365 -6 7 -46 -11 -6 -2 0 -3
1532180137370243 4 -5 1 5 1 12 -2 0
1532180137385204 -2 1 -6 -1 2 1 -4 1
1532180137408162 -5 -23 -6 16 1 -1 -6 -4
1532180137430121 -1 12 -9 -3 -1 2 0 -3
1532180137445081 -5 -6 2 0 1 1 0 0
1532180137468020 0 1 1 0 -2 2 2 0
1532180137490958 1 7 5 0 -2 -1 -1 1
1532180137520878 2 17 7 8 1 0 -1 0
1532180137542820 1 2 -4 -6 -2 -3 1 1
1532180137565759 3 6 3 -5 -4 -1 -1 1
1532180137595627 0 -5 -7 -4 -1 1 -1 -1
1532180137617569 0 -7 -13 5 0 0 0 -1
1532180137655467 0 3 -9 -8 1 0 -1 0
1532180137678405 -1 2 -2 -4 1 -5 0 -1
1532180137693365 -2 -1 -3 -2 -3 -2 0 -1
1532180137723286 1 -3 -15 -7 0 0 -2 1
1532180137753214 2 5 -2 4 0 -1 0 1
1532180137776145 -1 -11 1 -4 -2 -3 -2 1
1532180137798085 -5 -1 8 22 8 7 3 1
1532180137821024 -1 5 -2 -5 -3 -3 -2 -1
1532180137835985 -3 -4 5 6 2 0 -1 -1
1532180137865905 2 13 6 -3 0 -1 -3 0
1532180137880865 2 13 -1 -2 -3 -1 0 0
1532180137955665 0 -4 -8 5 2 6 -1 0
1532180137985585 -6 -5 7 2 0 -2 0 -5
1532180138023483 -1 2 -3 -2 -2 -1 -2 -1
1532180138045425 4 13 7 0 0 -2 0 -1
1532180138075344 -2 1 -2 0 0 0 1 -1
1532180138098283 2 17 3 1 1 1 -1 -2
1532180138120225 0 -6 1 0 -3 0 -3 -1
1532180138150144 -1 -11 -10 -4 -3 0 0 0
1532180138188043 -2 0 -2 -2 -2 0 -2 -1
1532180138217963 1 -4 11 -1 2 0 0 0
1532180138255900 -5 -5 -1 -3 0 -1 -1 0
1532180138270860 1 -19 -8 0 -2 -1 -1 -1
1532180138292801 0 14 13 1 1 1 -2 -2
1532180138307761 0 -5 5 1 1 -1 0 -1
1532180138322736 -2 -3 -1 -2 -3 -2 -1 -1
1532180138337697 1 -1 -1 -1 -1 -1 -1 0
1532180138360635 0 3 0 -1 -1 0 -2 0
1532180138383574 -1 -5 -4 -2 -2 -2 0 -3
1532180138397536 -1 -8 -20 -2 -1 -1 1 0
1532180138420475 -2 15 14 0 0 0 -1 -3
1532180138443414 -1 3 0 0 -2 0 0 0
1532180138465355 -2 11 4 0 -1 0 -2 -2
1532180138504252 -1 4 6 1 -1 -1 -1 0
1532180138518214 -1 6 0 0 -2 1 -2 1
1532180138555115 -1 9 19 -12 -3 -2 1 1
1532180138578053 -8 -17 58 -7 -5 -22 -2 -3
1532180138600992 5 25 -29 -2 6 -11 5 5
1532180138630919 -9 -61 -53 -9 -3 30 2 -4
1532180138652869 -14 -26 -33 -9 -15 85 -10 -17
1532180138675799 4 -23 -25 -4 -6 -12 -4 10
1532180138712700 -6 -2 -28 8 2 16 -9 3
1532180138750599 0 -11 19 7 6 -10 2 -13
1532180138787524 3 32 126 -6 -8 4 -3 0
1532180138818418 -3 -36 -96 -22 -4 -12 1 -7
1532180138855318 2 3 12 5 0 -1 2 1
1532180138878258 1 3 -4 11 1 -4 -1 1
1532180138908179 7 1 18 -3 8 2 0 2
1532180138930119 -9 1 -12 9 8 0 0 -2
1532180138960039 -2 5 18 -12 -3 1 -2 -1
1532180139021874 0 -6 5 1 8 -1 0 0
1532180139050797 -1 6 -4 -1 2 -1 -2 0
1532180139087698 0 2 5 4 -14 -3 0 -1
1532180139102658 -2 3 26 -5 8 2 0 0
1532180139125596 0 6 8 6 -2 -2 -1 -2
1532180139148534 1 1 -29 2 4 3 -1 0
1532180139179453 -1 25 17 -11 1 1 -2 -3
1532180139193424 1 -7 -29 -6 -12 -5 -3 0
1532180139215356 2 5 22 -4 4 1 -1 -1
1532180139245276 -4 -9 -47 3 -4 1 1 0
1532180139275196 2 11 4 -11 43 8 1 1
1532180139313095 2 5 5 -85 112 66 8 6
1532180139343015 2 -2 12 21 9 -1 -1 0
1532180139388892 -4 -19 -23 44 6 6 2 0
1532180139403852 0 2 -26 -18 -16 5 3 0
1532180139425793 6 -4 -13 -7 -14 -5 0 1
1532180139455713 2 -2 2 -2 -9 -4 -2 -1
1532180139500594 5 4 0 -3 31 9 2 2
1532180139530513 -1 -1 18 8 5 0 1 -1
1532180139545474 -3 -2 -8 -3 -14 -4 -1 -4
1532180139575394 1 7 -14 -3 -26 -6 -2 -1
1532180139613292 2 9 -6 16 15 6 1 0
1532180139628252 2 2 -35 -8 -11 2 0 0
1532180139673132 -1 2 18 -5 2 0 -2 0
1532180139695074 -2 12 22 8 4 0 -1 -1
1532180139718012 -6 1 -4 2 4 16 0 -2
1532180139740951 6 -3 -4 1 1 -7 -1 2
1532180139777852 -8 6 1 3 2 -2 0 -1
1532180139807772 1 -28 -21 -9 -3 -1 0 1
1532180139830710 2 -1 -5 -2 1 -1 1 3
1532180139860631 -2 2 -2 -5 -2 -5 -2 -2
1532180139875591 -2 11 9 -3 -2 0 -1 1
1532180139897531 11 2 11 16 6 1 2 3
1532180139913490 1 -1 -17 -3 -2 -3 -1 -1
1532180139928449 0 8 10 2 0 -1 0 -2
1532180139950391 3 -1 -8 -2 0 0 2 1
1532180139980310 1 3 0 0 0 -1 0 -1
1532180139995271 0 -18 2 -3 -1 -1 1 0
1532180140033169 -4 7 8 -7 -5 -3 -2 0
1532180140048129 -11 1 -16 -9 -1 0 0 -2
1532180140063089 -4 -7 2 0 1 -1 -3 3
1532180140085032 1 -12 -15 0 1 1 0 -1
1532180140130908 -9 7 6 -9 -2 -1 1 -5
1532180140160828 4 31 -15 -16 -10 -5 -5 -6
1532180140182769 -16 24 17 1 -1 1 -1 -9
1532180140220668 28 -25 -16 1 -1 -2 -1 7
1532180140250588 1 8 6 5 2 0 -2 -6
1532180140287489 -12 -14 -10 -1 2 2 4 -3
1532180140303446 -13 6 1 1 0 1 -3 -6
1532180140326386 3 -6 -8 -2 0 1 1 3
1532180140355308 -16 8 5 6 4 0 -2 -2
1532180140370269 -10 -5 -4 0 -1 -2 -3 -4
1532180140400188 9 -3 -7 0 0 0 1 0
1532180140438087 9 -1 4 1 0 0 0 4
1532180140453047 -8 -8 -7 3 1 4 2 0
1532180140489948 -4 -6 -6 -1 -20 -5 -4 0
1532180140512887 2 -3 0 -2 6 -2 -2 -3
1532180140535826 -2 3 1 -4 5 -2 -4 -5
1532180140565745 0 -41 -12 -7 0 2 3 3
1532180140595666 -2 -47 -31 -8 0 -1 -2 -2
1532180140617607 1 -4 -4 -9 -2 -1 2 5
1532180140655505 3 11 5 7 3 0 -1 1
1532180140670465 -1 -16 -3 4 4 1 1 1
1532180140693404 0 30 3 4 8 0 0 0
1532180140730305 -5 -4 9 2 -3 -1 -2 -1
1532180140775185 -6 -25 4 -10 8 -1 -2 -2
1532180140798124 -1 5 -8 -3 -2 -2 0 0
1532180140813084 -3 -3 4 0 -6 -1 0 -1
1532180140843004 -13 -4 -11 -13 -10 -3 -3 -4
1532180140872924 -1 4 2 -2 6 -1 0 1
1532180140895863 3 -5 -3 7 -11 2 -1 3
1532180140917804 -4 -38 -4 15 0 -3 -1 -1
1532180140932764 1 3 -7 9 1 0 0 1
1532180140955703 -3 -4 -9 -13 -3 -2 -2 -3
1532180140970662 2 5 11 2 0 2 0 2
1532180140992604 -6 2 -7 -12 1 0 0 -2
1532180141038480 -23 -34 -32 -33 -9 -4 -3 -8
1532180141075383 5 23 16 7 0 0 0 -1
1532180141105303 12 23 34 13 -5 -1 -1 1
1532180141143201 -1 2 8 -3 4 3 -2 0
1532180141165142 10 18 -46 15 4 1 -3 2
1532180141203041 13 -24 -39 2 10 12 34 -1
1532180141225979 17 12 69 5 -5 -9 -19 2
1532180141247921 24 24 10 11 6 9 11 25
1532180141270860 -10 19 -39 -11 -5 -1 -9 1
1532180141292801 -2 -17 35 -7 -8 -10 -11 -10
1532180141337681 -2 -8 -7 8 -4 -1 24 -4
1532180141375580 -22 6 -4 11 9 0 -9 -24
1532180141405500 -20 6 23 5 3 15 34 6
1532180141443398 10 -14 -29 0 2 -5 -42 4
1532180141458358 -2 -5 24 31 7 2 22 2
1532180141510220 -4 26 31 -4 1 3 3 -3
1532180141540140 1 2 -14 14 6 5 22 6
1532180141563078 -5 -7 3 2 2 -2 0 4
1532180141578038 4 -5 -11 -23 -9 -6 -47 -3
1532180141622918 24 55 -1 4 1 6 -3 3
1532180141637878 -40 -49 5 -6 -3 -5 -2 -11
1532180141675777 -5 -42 -1 11 1 0 -9 0
1532180141712678 0 8 -9 -6 -5 -7 -14 -3
1532180141750577 3 51 35 7 1 0 5 0
1532180141772518 -12 55 6 0 6 8 2 -6
1532180141818396 -7 21 -8 12 8 0 -13 -2
1532180141834352 -14 -90 -14 0 -3 0 20 -5
1532180141870257 6 -23 -7 -7 -4 -2 1 3
1532180141900177 9 -28 -6 -5 -7 -1 -3 19
1532180141915136 -6 -10 -9 3 -3 -7 13 -7
1532180141960017 -6 6 6 -2 -3 -4 -6 -3
1532180141990934 19 2 5 39 5 2 -5 6
1532180142020854 8 23 16 -10 -6 -5 -5 0
1532180142035815 19 12 -13 -3 0 -3 -7 4
1532180142057756 -2 -28 -20 7 4 6 13 -1
1532180142080694 -2 11 4 3 4 8 4 -3
1532180142095654 5 16 31 -18 -8 -6 1 -2
1532180142125574 -18 80 7 0 8 6 0 -3
1532180142155494 -19 -75 0 5 7 5 34 1
1532180142208353 6 7 -10 -9 -5 -8 0 4
1532180142223313 -6 -19 -8 -7 -3 -1 -9 -24
1532180142268193 18 14 -3 2 3 3 13 8
1532180142313073 17 21 21 -6 -6 -4 8 6
1532180142335014 -4 7 29 22 2 0 5 2
1532180142380891 -7 7 1 -5 -4 4 21 -4
1532180142425772 -11 -38 -22 -6 0 -2 -14 -1
1532180142455691 1 5 23 -4 0 0 -1 2
1532180142530491 -12 -47 -18 -6 -3 -9 -46 4
1532180142605291 0 6 -1 -2 -6 -6 6 -1
1532180142650171 -7 -1 14 5 1 2 21 -7
1532180142712006 -17 -22 -23 11 1 1 5 -2
1532180142755889 0 22 -2 -5 -1 -6 -9 -1
1532180142830689 5 -39 -9 2 -1 -8 -6 -4
1532180142890529 -8 -34 -1 -4 0 -2 18 -1
1532180142980288 8 47 3 4 3 6 -8 0
1532180143025168 4 19 12 0 -1 9 25 1
1532180143115926 4 18 20 14 1 -4 -34 -3
1532180143190726 5 -14 -12 -6 -2 15 -49 -3
1532180143212667 -1 -14 13 8 0 -1 -7 1
1532180143227627 -26 3 -16 -10 -3 -2 -3 -7
1532180143265526 3 5 -4 2 -2 -2 25 -3
1532180143295458 -3 -26 -4 -10 -2 -2 11 16
1532180143318384 13 11 6 -6 -10 -7 -30 4
1532180143378224 1 -1 17 6 7 3 -5 2
1532180143393184 13 14 -34 -10 2 4 6 5
1532180143408144 -20 -36 -30 -19 -3 1 0 -1
1532180143445046 4 12 -1 15 10 6 -4 1
1532180143482944 11 23 13 -5 -9 -6 -8 3
1532180143505883 -4 -4 33 10 0 -4 -42 -2
1532180143527825 -6 -14 6 2 3 -3 -26 -4
1532180143572704 -2 -75 -8 2 0 -3 -5 -24
1532180143595643 16 21 3 -1 -4 -5 1 0
1532180143625562 8 19 9 9 0 -5 2 -6
1532180143648502 -3 11 19 7 2 1 6 3
1532180143678422 10 10 49 25 7 3 -20 -2
1532180143700362 -13 -17 -12 -8 -4 -4 -7 -7
1532180143715323 -4 6 -2 6 3 -1 -4 -1
1532180143768182 -12 24 39 -22 0 3 43 -7
1532180143783141 -4 -41 1 21 6 5 13 2
1532180143813062 -4 -22 -14 -7 -8 -6 -5 -3
1532180143842981 -6 -8 -15 -8 2 4 -9 -2
1532180143880880 -2 -81 -23 -2 4 4 4 -1
1532180143902822 10 3 -12 -6 6 4 -38 0
1532180143917782 15 29 7 0 -5 -1 8 1
1532180143940721 -6 17 11 3 -3 -3 37 -5
1532180143992581 -8 -6 18 -34 -7 0 -7 1
1532180144015520 -4 -23 -16 -2 -3 -8 -12 -3
1532180144030480 -1 5 -2 -4 -9 -6 -7 -2
1532180144045440 -7 1 -41 2 1 1 -8 2
1532180144075360 5 11 -11 -1 -2 -1 -3 3
1532180144090319 -8 -27 8 -7 2 3 -3 -5
1532180144120240 -1 -38 -23 -14 -4 -3 -16 2
1532180144150160 3 19 8 -5 -3 -5 -6 -1
1532180144173099 -4 13 7 4 -1 0 9 -2
1532180144211000 6 8 -16 -2 0 2 8 -2
1532180144225957 -15 -4 -6 -10 -8 -6 -21 0
1532180144240917 -21 -34 -8 -13 -7 -6 -2 -6
1532180144262859 -23 -47 -41 -22 -7 -5 -13 -7
1532180144285816 17 4 -48 -19 -6 0 14 5
1532180144300757 -11 -20 33 38 12 8 0 2
1532180144330678 9 4 2 2 2 1 12 4
1532180144345637 -7 -14 16 31 3 1 21 -3
1532180144367579 12 16 -10 18 2 -2 -6 -1
1532180144390518 0 9 -32 -30 -5 -4 -5 -3
1532180144420438 -4 -48 -19 -5 -1 -3 -23 -2
1532180144450358 2 33 6 2 -8 -8 2 1
1532180144480278 -8 19 -7 -4 -9 -6 7 -3
1532180144503216 11 25 19 14 12 10 6 1
1532180144518176 4 19 7 8 -5 -7 -35 0
1532180144540117 -28 -35 16 -10 -7 -7 0 -6
1532180144563055 2 -7 -13 -8 0 -1 0 0
1532180144585995 -6 -1 -25 -18 -4 -2 5 -7
1532180144607936 8 9 -1 6 2 1 0 2
1532180144630875 -30 0 16 2 -5 -6 -44 -10
1532180144660795 9 14 0 -8 -3 0 -2 0
1532180144682736 -2 -7 12 10 2 1 9 0
1532180144720635 -3 -12 4 23 4 1 1 -1
1532180144735595 -2 13 11 -6 -3 -2 -1 0
1532180144773493 4 9 -2 -3 -2 0 4 2
1532180144810395 -4 -6 2 3 5 3 2 -2
1532180144825355 -5 -32 -21 -1 -2 -2 -3 -1
1532180144848293 -2 -49 -7 -4 1 3 -1 1
1532180144863253 -8 -55 -2 -2 -1 -2 0 -3
1532180144893173 3 18 5 1 0 1 1 2
1532180144923093 4 -3 -4 0 2 2 1 1
1532180144953013 -7 4 12 -3 -2 -3 -2 -7
1532180144997894 -8 -23 -3 -4 -2 -2 -2 -1
1532180145012854 6 10 -8 9 4 1 3 6
1532180145057733 -1 9 2 0 1 -1 1 5
1532180145087664 0 -32 -18 -9 -5 -3 -1 -1
1532180145118570 1 17 2 -4 -4 -3 -2 1
1532180145132556 5 15 3 -2 -3 -1 0 0
1532180145170432 -2 21 42 8 5 1 0 -2
1532180145185392 -2 0 25 17 3 -1 -1 1
1532180145200353 1 -18 -20 -10 -2 -1 1 0
1532180145223324 1 4 20 3 -1 -2 -2 -2
1532180145245232 3 15 -31 -1 -3 -1 1 1
1532180145268171 -3 -12 -71 15 1 -3 -1 -1
1532180145283130 1 6 -37 10 3 1 1 -1
1532180145305072 -5 -19 56 4 -2 0 -7 -6
1532180145342978 1 12 35 0 -1 -1 2 4
1532180145372890 0 22 2 6 1 0 2 1
1532180145402845 7 -8 3 -3 -2 0 7 19
1532180145425749 -9 1 7 -4 -1 -8 1 -4
1532180145447691 -5 19 13 -2 1 0 -16 11
1532180145477610 14 14 -15 -3 -2 35 41 37
1532180145507531 5 -20 -14 -4 -1 -13 -3 -33
1532180145530469 2 -8 5 -22 -11 1 4 0

1532180145545429 2 5 38 10 3 10 1 -3
1532180145568368 0 -22 23 -21 -2 8 1 0
1532180145583328 1 -17 28 10 4 9 -3 -3
1532180145605269 -2 3 -11 -7 -3 -5 -1 -10
1532180145620229 4 13 -15 8 1 -1 -2 1
1532180145635189 -1 5 -36 3 1 1 0 -2
1532180145650149 2 -2 27 37 9 4 1 2
1532180145665109 1 3 15 -2 -1 0 4 10
1532180145688048 -5 -2 -13 -1 -1 2 -1 1
1532180145709989 -2 -6 -6 -1 -1 0 -3 2
1532180145733498 -3 -10 6 22 10 6 0 -1
1532180145755439 5 1 0 -1 0 -2 -1 18
1532180145770399 -4 -15 -2 -4 -3 -3 -3 0
1532180145793338 1 3 -3 -2 -2 -2 3 4
1532180145815280 2 -21 -4 -1 0 0 -4 -9
1532180145838218 -2 -2 -2 2 -2 3 -1 -4
1532180145860159 -2 2 1 0 -2 0 0 -2
1532180145883098 -1 -7 -3 -1 0 -2 0 3
1532180145905040 -1 -6 -13 -1 -1 -2 1 2
1532180145920997 -3 -11 -9 5 -1 -1 -2 -1
1532180145935956 -2 -10 14 -12 -1 1 1 -1
1532180145957897 1 15 10 2 -1 -2 -1 -2
1532180145987818 -2 -17 -9 -4 0 0 -1 0
1532180146002777 0 8 -4 1 2 1 1 -2
1532180146017754 0 7 6 2 -1 -2 -1 -1
1532180146055638 2 5 6 -2 -1 0 0 0
1532180146070597 0 -6 -1 -1 -2 -2 4 5
1532180146100516 1 -11 -14 -3 -2 0 0 -1
1532180146130437 -1 -37 -6 -1 -2 -2 -2 0
1532180146160356 0 -16 -8 0 -1 0 -1 -1
1532180146175317 0 0 0 1 -1 0 0 -1
1532180146190277 1 -11 6 -1 -3 -2 0 -1
1532180146206234 -5 -42 -12 -4 -3 -1 -1 -3
1532180146228175 -4 -25 -6 -12 -5 -3 -1 0
1532180146243135 -1 -5 -26 -1 2 2 1 0
1532180146273054 -4 -31 -33 0 -1 0 1 1
1532180146295993 5 33 -71 4 5 3 0 2
1532180146317935 7 40 64 7 0 16 -1 0
1532180146340874 4 53 50 -1 -8 -22 -7 28
1532180146362815 10 -58 25 1 -3 63 0 1
1532180146377790 4 -13 27 4 -2 -35 -1 -37
1532180146407695 0 11 -10 -4 -5 -39 -14 -2
1532180146437615 1 -3 1 3 1 -14 7 -32
1532180146452580 3 13 -36 -3 0 10 -2 1
1532180146475514 -8 14 -52 -13 -1 -1 3 20
1532180146513412 0 -1 49 -14 -9 -3 -4 -7
1532180146543333 1 1 -12 9 3 2 1 6
1532180146573253 -2 -3 -4 -2 3 0 0 3
1532180146595194 -3 -15 17 8 3 1 -1 1
1532180146610153 -3 5 19 0 1 0 1 2
1532180146625114 2 -5 10 18 7 1 2 3
1532180146655042 0 6 -54 -4 -5 -2 -2 -3
1532180146685950 -1 -6 -40 -13 -3 -1 -1 2
1532180146715871 0 -7 24 20 3 1 1 -1
1532180146745791 1 -4 -33 -14 0 0 0 2
1532180146775720 -4 9 -5 -7 -3 -2 -1 -1
1532180146828570 -1 -1 -1 2 0 -1 -2 -2
1532180146850511 1 17 27 8 4 1 -1 0
1532180146903370 0 -8 -20 6 0 -1 0 0
1532180146925312 0 -3 -26 -11 -4 -1 -3 0
1532180146940271 1 11 3 -14 -4 0 1 1
1532180146970191 -2 -2 -6 5 6 3 1 -2
1532180146985151 -2 -5 -1 9 7 1 0 -1
1532180147016068 -3 -3 -1 6 -7 -5 -4 -1
1532180147038010 16 -11 -24 10 -1 -1 -1 -1
1532180147075908 -1 13 5 -5 -2 -2 -1 2
1532180147105828 0 6 14 -14 -3 -2 1 -1
1532180147142729 -9 -3 12 4 0 -1 -2 0
1532180147195587 0 -2 8 -1 3 4 0 1
1532180147217529 -3 1 16 4 -1 1 0 -3
1532180147248446 1 -14 4 7 17 2 -1 0
1532180147263407 -1 4 25 -5 -4 -4 -1 -2
1532180147293327 2 5 8 0 -2 -2 1 3
1532180147323247 -1 2 -1 -1 -2 -1 -1 -1
1532180147345188 0 1 5 3 -1 -2 -2 1
1532180147375108 0 5 -6 0 -3 0 -1 0
1532180147398046 2 -5 -5 -4 1 1 0 0
1532180147420994 -2 4 -18 1 6 3 0 0
1532180147436946 -1 0 2 -4 -3 -3 -1 0
1532180147457887 -3 -1 1 0 -1 0 -2 0
1532180147480825 -1 -7 -4 -2 -1 -2 -1 0
1532180147502773 1 0 -2 -3 1 2 1 0
1532180147540665 -2 -11 -6 -9 -5 -2 -1 -5
1532180147562606 0 15 11 11 2 0 1 0
1532180147592528 -1 3 -2 0 -4 -2 0 0
1532180147608484 2 -6 -6 -2 0 -1 1 -1
1532180147630425 -1 -15 -25 -3 -3 -2 0 0
1532180147660345 -9 3 -6 -2 1 1 1 -1
1532180147706223 -8 10 1 4 2 -1 -2 -2
1532180147758084 1 -13 -8 -3 -2 0 -1 1
1532180147870783 -11 21 6 -1 0 1 -6 -4
1532180147885742 7 8 -2 3 0 1 1 2
1532180147900703 -11 9 6 -2 -4 -3 1 16
1532180147938601 4 20 -9 -1 1 -2 7 23
1532180147960543 1 -13 26 2 -1 -2 -9 -11
1532180147983491 1 -14 15 -1 -2 1 2 -18
1532180148013401 6 9 -15 -4 -2 1 -5 2
1532180148028361 6 15 -5 0 -2 -1 -4 1
1532180148058281 3 -26 -34 -1 0 -1 3 -2
1532180148073242 6 -2 6 1 0 2 5 15
1532180148103171 4 19 -2 0 1 0 1 0
1532180148125103 -15 1 -13 -4 0 -1 -2 -3
1532180148170980 0 21 18 -5 -6 -3 -1 0
1532180148200900 4 -10 16 4 3 1 -1 -2
1532180148230820 3 34 16 5 1 1 -1 -1
1532180148267721 -1 8 1 2 -6 -2 0 -1
1532180148297641 -1 4 2 1 -8 0 -1 -1
1532180148335540 0 -5 -6 -4 0 0 0 -1
1532180148350500 -6 -36 -16 -4 5 1 -1 -1
1532180148380420 -5 -7 4 0 7 1 -1 -2
1532180148395380 0 16 10 4 24 5 2 0
1532180148410340 0 39 5 -8 -13 -5 -1 -2
1532180148425300 0 11 -5 -1 0 -2 0 -1
1532180148455220 -1 0 7 -1 -11 -3 -2 0
1532180148470180 1 -17 -4 -4 -11 -5 -1 0
1532180148508079 11 12 0 -2 -6 -2 -1 -1
1532180148530020 0 -25 -22 5 4 1 1 0
1532180148575897 -2 5 3 4 -2 -1 0 0
1532180148605817 -6 -15 -7 -9 2 -2 -1 -1
1532180148657678 13 12 4 -9 -2 0 1 2
1532180148680617 -4 2 2 -1 -4 -2 -1 -3
1532180148695577 2 9 1 6 2 0 1 1
1532180148710536 4 12 15 4 -1 1 -1 1
1532180148808276 -15 -1 -15 -14 -5 1 10 -4
1532180148845177 2 5 3 -6 1 -6 0 -2
1532180148875097 19 17 35 51 16 5 -30 11
1532180148927956 2 22 43 14 -1 2 25 -2
1532180148950894 13 -4 11 10 5 0 -2 18
1532180148980814 -4 -39 -8 9 1 0 -42 0
1532180149010734 -1 -5 -9 -7 -5 1 27 -4
1532180149078566 2 14 15 0 1 7 -30 -6
1532180149115454 -3 26 15 -4 -6 -4 -6 -3
1532180149169312 6 1 -16 -4 -2 2 -22 1
1532180149205214 -5 -19 -4 -11 -4 -5 -10 -2
1532180149250093 2 22 -4 -13 -8 -8 -20 -4
1532180149317912 33 52 1 19 7 2 17 8
1532180149332872 -8 -16 3 7 -6 -5 -3 -4
1532180149370772 -8 -34 -62 -44 -18 -8 -13 -6
1532180149452552 -8 -46 -14 -1 10 5 -34 2
1532180149483470 -1 16 -6 1 -4 -5 -8 0
1532180149498430 -1 10 -2 1 -1 -1 4 -1
1532180149529348 -7 -7 -22 -3 -7 -10 -14 -37
1532180149565251 -1 7 -9 -3 -7 -5 -13 24
1532180149603150 4 4 -11 0 -4 2 26 11
1532180149775689 8 45 35 -2 4 6 4 2
1532180149805609 -4 -8 -1 3 -4 -1 2 1
1532180149865449 9 -10 -7 5 -2 -1 -44 0
1532180149888387 0 -10 -3 -1 0 -4 -7 -4
1532180149910328 4 14 1 1 3 7 28 -1
1532180149940249 -12 -14 -12 1 -1 -1 -9 1
1532180149963187 -10 -8 20 -6 -3 -2 68 -4
1532180149993107 3 12 -13 -6 -1 -6 -23 1
1532180150015048 12 14 10 11 3 -2 23 -2
1532180150031018 -7 -8 9 3 3 0 -19 0
1532180150045966 -9 -5 -7 -4 -3 2 31 1
1532180150075886 4 2 10 11 9 5 12 4
1532180150120766 9 11 -18 -16 -7 -6 -10 -5
1532180150165646 -3 -21 -26 -4 0 -1 -44 0
1532180150202547 3 -12 -43 8 1 1 4 1
1532180150255406 -11 -4 -20 6 6 3 39 -2
1532180150285326 3 -6 -6 0 -7 -9 -32 -6
1532180150315246 -11 -22 -9 -9 -3 -4 7 0
1532180150360129 -8 -26 -2 -24 -4 0 24 -3
1532180150398024 -2 -11 -1 9 0 0 55 1
1532180150435939 -1 -5 -21 -16 -7 -4 -35 -2
1532180150465843 4 10 -5 1 1 3 0 1
1532180150480803 -1 8 -6 3 6 6 -2 4
1532180150510723 -3 -6 -5 3 1 1 -2 0
1532180150532664 3 2 3 0 -3 -3 8 -1
1532180150555603 1 -5 -6 -3 0 1 -5 0
1532180150570562 0 5 8 20 1 0 -1 3
1532180150608467 2 -2 -6 -9 -2 -3 -4 -3
1532180150645363 -4 -3 -3 -5 -2 -2 11 -5
1532180150675283 -2 5 5 -1 -4 -5 2 -1
1532180150715177 -1 7 1 1 -1 1 -8 -4
1532180150743101 -5 4 8 -1 2 1 16 -2
1532180150780002 2 -10 -4 -5 -2 1 17 -2
1532180150795960 -1 -1 1 2 2 2 -11 -1
1532180150840840 -2 1 -11 -7 -5 -2 -7 -2
1532180150862781 1 5 -13 7 2 -1 8 1
1532180150892712 -1 -7 -8 -2 -1 1 -7 1
1532180150922622 6 34 -1 -6 1 4 4 0
1532180150945560 8 13 7 4 -6 -4 26 1
1532180150969496 -6 -2 -18 -17 -3 -2 4 -4
1532180150990440 9 11 2 5 1 -1 -20 0
1532180151005401 -6 -8 3 6 5 4 1 -6
1532180151020361 -2 -6 7 8 1 -2 -21 -7
1532180151043298 -3 -19 -5 -3 -5 -3 -12 7
1532180151095160 9 -2 -1 -13 -4 0 -21 3
1532180151125080 8 5 1 -4 -3 -1 -3 1
1532180151140041 -9 -13 4 -1 -3 -3 4 -3
1532180151155998 5 5 14 22 9 9 1 6
1532180151185918 -13 -43 -42 -10 -2 -3 -10 -3
1532180151207859 8 4 -16 7 2 4 -3 2
1532180151230798 -2 22 9 -6 -2 3 7 2
1532180151260717 -7 39 13 -9 -7 -8 0 -8
1532180151282659 -12 -29 -9 -8 -4 -2 -15 16
1532180151297619 2 4 12 6 1 1 -6 -11
1532180151320558 -1 -8 -14 -5 -1 2 -3 3
1532180151350478 7 4 -1 -1 -2 -3 3 4
1532180151365438 -11 -16 -8 -5 1 0 -55 10
1532180151395357 13 13 4 -2 -2 -12 -6 3
1532180151440238 -18 -32 -1 -22 -6 0 12 -7
1532180151470158 4 6 16 6 0 -2 7 -1
1532180151485119 -11 1 -11 -18 -8 -7 -11 -8
1532180151508055 12 3 -15 -1 -1 -4 4 4
1532180151545955 4 3 -12 -2 -5 -4 4 2
1532180151575875 4 0 10 -1 3 1 -7 1
1532180151597816 -8 3 18 5 1 0 -14 -8
1532180151612776 1 -5 -14 -3 2 2 -5 6
1532180151650675 8 -7 7 -3 -4 -1 -7 12
1532180151665634 -7 -13 4 3 0 -8 -57 -7
1532180151703533 -3 -17 -11 -10 -4 0 4 3
1532180151748413 3 -13 36 33 9 2 -1 9
1532180151778333 10 8 28 1 -4 1 0 0
1532180151800275 2 -11 -29 5 3 6 -8 5
1532180151823213 1 9 23 -7 -11 -11 -2 -3
1532180151860115 5 26 31 10 6 6 -7 1
1532180151883053 14 113 35 3 -8 -11 -25 -12
1532180151904995 -29 7 -17 -13 -7 -9 -46 -3
1532180151942894 -10 -29 -12 -10 -4 -5 -6 0
1532180151957853 -15 -36 1 5 4 10 49 7
1532180151996750 13 -6 2 -10 -5 -3 -5 1
1532180152025672 15 31 29 17 1 -1 0 3
1532180152063571 13 -1 -9 1 -3 0 12 4
1532180152100472 -7 -5 6 -6 -4 -9 -10 -8
1532180152123411 -1 8 -3 14 3 1 -8 0
1532180152138371 -6 -9 -5 8 1 2 -3 0
1532180152175286 15 10 -4 1 1 2 -9 5
1532180152190232 2 7 -13 -9 0 -2 1 1
1532180152220152 0 5 12 -1 -2 -1 -3 -3
1532180152265032 0 -21 -6 1 2 1 1 1
1532180152295949 0 11 -7 -3 -1 -1 -1 0
1532180152310909 -13 -66 -14 -4 -2 0 -1 -2
1532180152332851 8 21 10 0 -6 -7 -1 0
1532180152355789 1 51 5 -3 -6 12 1 3
1532180152377730 5 4 2 1 1 -7 -1 0
1532180152422611 4 -23 -9 3 3 -2 1 1
1532180152452541 0 -12 -16 -1 0 -1 0 1
1532180152475469 3 -3 15 6 3 8 -3 0
1532180152505389 0 -8 0 -1 1 7 3 4
1532180152537303 0 19 1 22 3 -3 -2 -1
1532180152565229 -1 3 -2 -22 -8 5 -1 1
1532180152595149 2 6 21 4 -2 -4 -2 -2
1532180152618088 -4 -13 -17 18 6 1 -1 -2
1532180152633048 -11 6 1 -3 1 0 -1 -5
1532180152655986 -4 -26 -46 9 -1 -2 -1 0
1532180152692887 2 6 9 2 -2 -3 -1 -1
1532180152745746 1 30 4 7 0 1 1 1
1532180152805587 -7 30 15 -5 -5 -22 -14 -40
1532180152820547 -15 -3 -3 3 5 47 9 -22
1532180152835507 15 36 12 3 1 -13 17 35
1532180152858445 10 27 -4 5 7 -2 -14 -17
1532180152873405 -2 -11 -58 -9 -7 -12 -5 -3
1532180152895346 -3 -37 48 -9 -4 -7 3 8
1532180152918285 2 37 -18 1 -7 -12 -4 9

1532180152933245 4 23 -110 2 0 1 4 3
1532180152955186 3 -16 -30 26 17 4 0 -3
1532180152978124 -4 -13 -24 -16 -7 -1 -1 3
1532180153002061 2 12 50 14 2 -2 -1 0
1532180153015027 4 20 6 -1 -1 -3 -1 5
1532180153037965 1 -2 -29 -5 -5 -1 -4 -2
1532180153060904 -9 -2 -20 -4 -3 2 -1 -3
1532180153090823 -1 -6 -12 18 10 2 1 2
1532180153105784 3 -5 -10 0 1 -5 0 0
1532180153127725 -3 3 0 -6 -4 -1 0 -1
1532180153142685 -1 1 -1 1 0 6 3 2
1532180153172605 -5 -14 -8 0 2 3 -2 -6
1532180153210503 3 -10 -13 1 -2 -1 -1 -1
1532180153225464 -4 -5 -6 -6 -2 -7 -1 -1
1532180153248402 -4 -15 -11 -1 0 -2 -1 1
1532180153270344 -1 -12 -5 0 1 -2 -1 -2
1532180153293282 0 -2 5 1 -1 0 -2 -1
1532180153315223 1 -9 -12 5 3 4 2 1
1532180153330184 -1 1 -7 -1 -2 -2 -3 -4
1532180153360104 3 2 3 -1 -1 -3 -3 -1
1532180153391027 -2 -1 16 0 -1 -6 0 -1
1532180153420941 0 -16 0 -2 -1 -1 1 0
1532180153435901 -6 2 -28 -3 -3 0 0 0
1532180153450861 0 5 -9 4 2 -2 1 2
1532180153480781 -1 -10 -5 0 1 1 -3 -1
1532180153495740 -2 -45 -11 -1 -2 2 1 1
1532180153526659 -1 0 -7 1 0 -2 -2 -2
1532180153563560 1 10 8 5 1 3 -1 0
1532180153579517 2 4 2 -3 -2 -4 0 0
1532180153608439 1 26 17 0 -2 9 2 2
1532180153630381 -2 -7 -16 -1 -1 2 2 0
1532180153653320 -2 -23 -19 -8 -3 -3 -3 -4
1532180153668280 -4 -4 -11 1 0 -1 -1 -2
1532180153690221 -3 -3 -12 3 4 0 1 0
1532180153705181 2 -5 -5 0 -1 -1 1 1
1532180153735101 1 -7 0 -1 0 -1 0 1
1532180153766020 1 -3 -8 -9 -2 0 1 1
1532180153780978 0 1 5 -2 -3 -2 -2 -2
1532180153810898 1 -14 -33 -2 -2 -3 -1 1
1532180153840817 4 17 -1 7 2 3 2 0
1532180153870744 -17 15 12 -2 0 -1 0 -4
1532180153892685 -8 -35 14 -1 -4 3 1 -2
1532180153915977 -2 -46 -41 -4 2 -2 -1 -4
1532180153945896 0 11 -5 4 -1 -1 2 3
1532180153967837 1 -11 -19 0 -2 -1 0 1
1532180153990996 -5 1 -17 -4 -2 0 -3 -2
1532180154005947 0 25 -12 16 7 2 1 0
1532180154027888 15 23 -23 -9 -2 0 3 8
1532180154050827 -2 8 -42 -4 -3 -3 -3 1
1532180154065787 13 9 -6 -5 -4 -3 0 4
1532180154095706 -3 8 2 -4 -4 -6 -3 -4
1532180154117647 13 -9 3 -7 -2 -2 0 2
1532180154162527 3 18 -5 3 5 0 0 0
1532180154185466 -5 2 -19 -2 3 3 1 1
1532180154200427 3 -12 -6 -1 -1 0 1 1
