1532259360722717 -12 -24 -11 -8 -3 -1 -2 -2
1532259360728700 -5 9 -4 -4 -1 -1 0 -1
1532259360776573 0 15 9 0 0 -4 -2 0
1532259360817464 0 9 4 -6 -4 -4 0 0
1532259360842408 -2 -3 -9 -1 1 2 0 -1
1532259360904232 -2 -4 1 -2 2 -1 -2 0
1532259360914204 1 -9 30 -4 2 1 0 1
1532259360954098 -2 -12 3 -8 -2 -5 -1 1
1532259360975042 -1 6 20 23 3 1 0 0
1532259361011943 14 1 -12 -18 -2 -1 0 7
1532259361051837 -10 -3 -3 1 5 -4 -13 -18
1532259361094722 -5 -13 5 -3 0 2 1 -8
1532259361132620 -2 0 0 7 0 1 3 -7
1532259361171517 10 38 0 -6 -2 -2 -4 -6
1532259361222381 -2 -1 -2 20 8 2 1 -3
1532259361229362 -5 -24 -17 -18 -4 0 -1 -2
1532259361291210 3 5 3 -4 -2 -1 -1 2
1532259361373975 5 2 -1 -8 -3 -2 -1 2
1532259361403895 -4 -7 -5 0 -1 -2 -1 -3
1532259361470716 -2 -1 -6 -4 -3 -2 2 5
1532259361606357 1 -4 8 0 -3 -5 -5 4
1532259361613335 -2 6 31 11 2 1 -1 4
1532259361791858 -4 -3 -13 -6 -2 0 2 21
1532259361896577 31 15 22 6 2 1 7 21
1532259361927495 -45 5 8 2 -1 -4 -4 2
1532259361987335 -1 2 -3 1 -3 -2 1 12
1532259362064130 -15 -5 0 -5 -2 -1 1 4
1532259362100034 16 11 4 1 1 2 2 27
1532259362363329 10 -4 -5 -3 0 0 -1 4
1532259362422172 -3 -2 -2 -1 -1 -2 -1 0
1532259362445111 -4 -15 -10 -2 0 -1 -2 -1
1532259362467051 -3 -13 -3 0 -1 -1 0 -2
1532259362519911 -2 -14 -4 -2 0 -1 7 10
1532259362602689 3 16 4 1 0 0 1 4
1532259362618646 0 -7 2 1 2 1 -3 1
1532259362643579 0 6 2 -2 -3 -1 -1 -2
1532259362699430 -5 2 -12 -3 -2 -2 -1 -1
1532259362710401 -3 1 -3 16 2 -1 -2 -1
1532259362753296 2 -4 13 9 -5 -2 -1 0
1532259362783207 4 -1 -1 -4 0 0 1 3
1532259362919841 -5 -7 -7 3 -2 -2 -3 0
1532259362925826 0 -21 19 -7 7 0 1 -5
1532259362962726 6 3 12 -4 12 1 7 0
1532259362999627 4 -16 -14 -16 31 -2 -2 -9
1532259363090385 -16 -17 -5 20 5 -3 7 -1
1532259363113323 -27 -13 -5 1 3 0 -2 -12
1532259363263921 12 19 -9 9 2 -3 -4 6
1532259363314785 -3 -13 -18 -9 -7 -1 5 9
1532259363399558 -24 -32 18 0 7 1 8 -42
1532259363757613 -19 19 7 -3 3 1 -5 3
1532259363968038 -11 -8 13 26 10 -2 -4 -6
1532259364080737 -30 -6 -17 11 19 3 -3 17
1532259364108662 8 -3 31 14 5 1 1 0
1532259364134593 -11 -34 -16 -5 2 1 1 -5
1532259364147558 -1 8 7 16 5 2 10 2
1532259364231334 2 7 -11 -3 1 1 -2 18
1532259364260256 -15 -7 8 -1 1 -1 -5 -9
1532259364292172 -6 10 0 2 2 0 -5 -11
1532259364373953 -4 -7 -2 1 3 2 1 9
1532259364433793 -11 4 0 2 1 0 -4 -7
1532259364552476 -10 5 0 2 -8 -2 -3 -1
1532259364679137 0 -8 3 0 -15 -3 -2 0
1532259364763925 -3 -2 -11 3 5 3 -2 -1
1532259364807793 2 1 -1 -2 -19 -4 4 -4
1532259364852673 -3 -5 -2 -3 4 -2 9 3
1532259364988310 8 19 23 3 6 1 -12 8
1532259365024214 6 9 -27 -9 -10 -10 4 29
1532259365064107 -6 -12 5 11 10 5 -11 31
1532259365077073 3 12 26 7 4 4 -10 -4
1532259365114971 4 -5 -36 -3 -2 -5 18 11
1532259365137910 -6 1 17 3 -4 -7 -28 -4
1532259365204747 3 5 6 -3 0 -6 43 3
1532259365234651 6 4 30 6 2 1 6 -2
1532259365257590 5 2 3 -7 -4 0 -30 -2
1532259365309451 -2 -29 -60 -3 -4 -3 14 0
1532259365393227 18 39 4 8 2 4 11 9
1532259365446085 -4 11 18 3 -3 0 23 -10
1532259365518906 8 23 -18 -20 -1 0 -7 2
1532259365587708 37 -4 20 -8 -3 -3 -6 9
1532259365670487 -9 29 2 -2 -10 -11 -27 -1
1532259365715366 -56 -88 -51 -7 -5 -5 -16 20
1532259365813104 -44 -19 0 -1 3 1 13 -20
1532259365835045 26 6 -2 -2 -5 -4 8 23
1532259365909846 29 49 66 6 -7 -9 -14 13
1532259365948742 -38 -28 -54 -1 -3 -2 -2 -10
1532259366015577 -20 -5 70 -10 0 -2 -4 -10
1532259366201067 45 51 71 48 12 4 2 12
1532259366352662 11 17 -29 -5 -8 -7 4 -21
1532259366442422 4 8 7 -3 3 9 38 -8
1532259366450400 -20 -23 -6 -2 0 0 0 5
1532259366495281 -6 -7 5 9 0 -21 -30 -1
1532259366546143 -14 -17 2 1 8 16 20 0
1532259366593036 16 -19 -33 -7 -4 -12 -31 0
1532259366668816 -6 -36 -6 3 1 5 6 -1
1532259366703723 1 28 5 -13 -11 -6 -22 16
1532259366750597 -6 -3 -8 -5 3 7 23 -9
1532259366772538 7 -3 -2 -11 -16 -1 26 -17
1532259366924133 -14 -17 -27 17 7 10 8 0
1532259366947072 -19 -38 -42 -13 -8 -6 -24 -8
1532259366997958 8 12 7 7 0 -1 -3 0
1532259367071760 -7 -39 -9 -1 5 -14 -3 -3
1532259367117652 0 -28 10 8 3 5 2 1
1532259367133609 0 52 25 6 1 1 1 -1
1532259367222372 1 20 -11 -3 0 -4 -1 -1
1532259367334073 0 -4 -13 21 3 -1 -1 1
1532259367358009 1 8 16 0 -2 0 0 -1
1532259367477689 0 42 -7 -5 -4 -3 -2 -1
1532259367500628 3 -13 2 -9 -5 -3 -5 -3
1532259367539525 -3 -23 10 -4 1 -7 8 34
1532259367574430 2 -12 65 -1 0 -17 -46 35

1532259367612329 -13 -48 -30 4 7 -21 -5 -1
1532259367649230 11 17 -38 -4 -15 -23 -11 -12
1532259367702089 -14 6 -6 -62 -14 3 -5 -12
1532259367732009 -10 -2 -34 -7 -7 15 -4 -3
1532259367777886 -5 -4 9 12 4 -1 -2 0
1532259367814788 0 2 -2 -6 -2 -1 1 1
1532259367882606 1 -43 -1 -3 1 3 -2 -1
1532259367905545 6 14 -7 -7 -6 -6 -1 0
1532259367995305 11 4 -3 -5 0 -2 -1 3
1532259368042193 -15 16 15 17 3 6 2 -3
1532259368087060 4 -5 -5 -5 -1 0 -1 -1
1532259368109001 1 -7 15 32 8 0 2 2
1532259368183801 -3 -4 -11 -6 -2 -3 0 0
1532259368319439 3 14 8 -8 -5 1 1 0
1532259368331406 -4 -49 -4 17 5 1 1 -1
1532259368462064 0 -5 -1 2 1 -23 -12 2
1532259368520070 -1 -5 -38 -7 -6 1 -3 -1
1532259368595856 0 14 -9 2 4 -4 0 -2
1532259368714532 -6 -6 -7 1 -2 -5 -2 -2
1532259368781354 3 11 -4 0 1 -2 0 -3
1532259368866128 -4 -8 -3 -6 -1 -4 1 -1
1532259368978826 -3 3 -2 -4 -5 -4 -1 0
1532259369016725 3 -1 -1 2 3 2 1 2
1532259369099504 -3 -34 7 27 7 1 -1 0
1532259369128427 -3 -15 62 17 6 0 1 0
1532259369162335 0 2 -10 3 4 2 -1 -2
1532259369194251 0 19 61 -16 -18 -5 -4 -2
1532259369218186 -2 -11 13 -4 9 0 2 -3
1532259369254107 -6 -9 -1 -5 -6 -2 -3 -2
1532259369278027 5 -5 15 -6 -1 0 -2 1
1532259369313930 -2 5 1 2 -2 1 -1 -3
1532259369352826 -1 -4 15 -6 -4 -3 -3 0
1532259369412666 12 0 0 1 1 -1 0 8
1532259369473503 -1 -12 -21 -3 -2 0 1 0
1532259369494448 9 -28 -28 -3 0 -2 0 6
1532259369531349 -27 -1 -15 2 4 0 5 5
1532259369638063 10 -8 0 -13 -6 -2 4 33
1532259369651029 -6 7 -18 3 1 3 5 -9
1532259369758740 -38 24 9 9 4 4 47 22
1532259369780682 -50 4 10 0 -6 -7 -23 -7
1532259369832543 54 0 8 -5 -4 -5 -10 -28
1532259369848501 -5 21 -4 0 2 3 18 43
1532259369886399 21 4 10 -1 -3 -1 39 29
1532259369908340 14 -50 14 3 -2 2 21 -1
1532259369968180 -8 4 -4 0 1 1 -4 5
1532259369996106 -25 40 2 -1 0 0 -3 -8
1532259370049961 -5 -5 -2 0 -1 0 -10 -8
1532259370082874 1 10 -1 3 1 3 -2 0
1532259370140720 -5 -14 0 4 1 0 -2 -5
1532259370177620 0 13 -1 -6 -2 -3 0 -3
1532259370209535 -8 -25 -2 -4 3 -2 1 -1
1532259370224496 -6 13 -4 1 -4 3 3 1
1532259370267381 -10 -63 -10 -8 -3 1 1 1
1532259370276356 -5 -58 20 -4 -7 -3 -1 -3
1532259370334202 -4 17 29 -4 -31 -4 -5 -6
1532259370352154 1 -10 -1 48 16 3 2 3
1532259370404016 1 14 -6 4 8 2 -1 -2
1532259370453881 5 3 14 1 -7 -3 -3 0
1532259370501754 3 -1 -12 -21 -2 -1 -11 -1
1532259370598495 -21 -34 -19 3 6 3 31 2
1532259370673302 -54 -9 19 7 1 -8 -1 5
1532259370731140 27 -15 -16 -7 -2 -7 0 3
1532259370799956 -26 5 8 -1 2 -4 3 -4
1532259370933598 9 22 1 -2 0 -1 -1 0
1532259370965514 -17 5 0 9 1 1 4 -2
1532259371278676 8 18 -17 -22 36 -1 -4 2
1532259371347492 -17 4 -23 -13 10 -1 -1 -5
1532259371385390 0 -4 9 -2 -17 -4 -3 -1
1532259371497099 -2 -16 1 -4 -5 1 2 -1
1532259371589855 -1 -10 1 -1 1 -1 -4 0
1532259371722504 -2 0 -1 -5 -5 1 0 -7
1532259371790308 -9 -16 51 38 6 -1 -3 -4
1532259371829204 -10 -11 -5 -19 -2 2 -7 -2
1532259371867103 -1 -3 -12 0 -6 4 6 1
1532259372023684 3 -24 -1 -1 11 1 1 5
1532259372059588 -2 5 3 -9 -2 -3 -3 -1
1532259372135385 -1 20 -1 2 0 1 1 0
1532259372143363 1 14 -1 0 -2 -1 0 -5
1532259372204212 -2 6 -1 0 -1 -1 0 -2
1532259372217167 -3 -8 0 0 -2 -1 1 -1
1532259372255065 2 7 0 2 1 0 -1 1
1532259372276009 5 0 -1 0 -1 0 1 -1
1532259372345832 3 -8 -3 -3 -4 -4 -2 2
1532259372422618 3 4 -5 3 0 -3 -1 -1
1532259372547284 -1 24 13 3 9 1 -1 -3
1532259372631060 4 19 -2 5 -7 -1 7 5
1532259372698878 1 8 8 -1 -7 -4 16 -48
1532259372751736 -8 -30 -53 -7 -4 -8 -19 -17
1532259372774676 -3 31 25 1 -8 -13 -2 -9
1532259372817560 -11 -7 17 -3 -1 -18 -40 -15
1532259372847481 3 -5 24 25 7 5 15 -1
1532259372938239 -2 -7 -10 -8 -5 -4 -3 1
1532259372960180 -4 -4 1 -3 5 -3 -5 -2
1532259373004074 -20 -49 -45 -9 -3 -4 -25 -6
1532259373087839 1 -4 -20 -1 2 -1 1 1
1532259373123743 -27 -30 20 -5 1 1 13 -6
1532259373154660 1 17 -8 -5 -1 -4 -9 -1
1532259373215497 -6 -65 -36 0 -3 -3 -15 5
1532259373246415 9 10 -1 1 -3 2 -9 -8
1532259373253395 6 31 -13 -7 1 -3 -8 14
1532259373349140 -3 33 19 10 -1 -9 -1 -5
1532259373409977 0 23 15 -5 -9 -6 -2 -1
1532259373463833 4 56 45 24 8 5 3 2
1532259373507716 13 20 30 -5 -4 -5 -4 0
1532259373560574 -4 36 48 3 -3 -1 9 0
1532259373635374 -28 -41 -2 8 5 -5 79 40
1532259373672276 -3 -41 -3 1 0 2 11 1
1532259373712169 -24 -16 21 -47 -11 -6 -7 -25
1532259373770014 -11 -34 -20 25 9 2 -36 0
1532259373868750 2 22 15 0 -14 -9 12 -9
1532259373881716 -16 -2 -23 -10 -6 -4 11 -9
1532259374009373 -14 -27 -9 2 -1 -3 1 -20
1532259374069213 -33 7 13 -17 -1 -2 -68 -8
1532259374092153 3 -9 -20 30 13 9 -2 -1
1532259374129053 8 19 48 -17 -4 -2 44 3
1532259374159972 -7 -6 -27 -6 -3 -3 37 -8
1532259374235770 -27 -91 -33 -16 -11 -10 -24 -34
1532259374325529 45 10 8 -4 -4 -3 15 33
1532259374392365 -1 12 57 -9 -3 0 -9 5
1532259374477123 19 6 -46 -34 -4 1 -15 5
1532259374512030 9 64 13 13 4 3 6 7
1532259374617747 -10 -40 -9 -4 -3 -11 5 1
1532259374693545 1 -44 -8 0 -2 13 0 1
1532259374776323 8 -70 -8 -10 -5 -2 0 1
1532259374782307 3 31 -8 -9 -1 5 0 1
1532259374812227 -6 5 0 -2 -2 -15 -2 -1
1532259374852120 -2 6 -2 9 1 5 0 0
1532259374931907 4 29 6 2 -2 -3 -1 -1
1532259374993742 -1 -16 -34 0 5 2 0 -1
1532259375052584 1 -34 0 6 3 4 0 0
1532259375121401 40 3 -13 2 12 30 8 98
1532259375171267 -5 -11 10 -2 0 -6 6 -1

1532259375299923 2 -2 -19 -12 -2 -2 -1 -3
1532259375435560 -3 12 4 -3 0 -2 1 -1
1532259375834494 -3 -3 0 4 1 -2 0 1
1532259375937354 3 -4 1 2 0 1 -3 2
1532259376057033 1 -14 -2 -2 -2 -1 0 1
1532259376223589 1 5 10 0 -2 -2 -1 0
1532259376431227 2 -3 9 -2 -2 -2 -1 -1
1532259376582822 -1 0 3 7 0 0 -1 -1
1532259376597798 0 -1 6 -6 -1 -3 -1 -1
1532259376627701 -2 -49 -21 -4 -4 1 1 -1
1532259376641664 -1 -10 -4 -8 -2 1 -1 -3
1532259376659616 -1 -2 -1 0 1 1 -1 0
1532259376689310 1 2 2 -1 -3 0 -1 1
1532259376718233 0 25 21 1 -1 -1 -3 -1
1532259376740174 -2 1 -16 -5 -1 0 -2 -2
1532259376770094 -3 -15 -6 2 -1 1 -1 -2
1532259376807993 1 -2 -11 -1 -3 -1 -2 0
1532259376828938 1 -3 -5 -3 0 0 -1 -1
1532259376838910 -3 -4 -1 -1 0 -2 1 1
1532259376874814 0 -1 1 -2 1 -2 0 1
1532259376920692 0 -1 5 0 -2 1 0 1
1532259376964574 1 -1 -10 1 -2 1 0 -2
1532259376989507 -1 28 9 -1 -2 -2 -1 -1
1532259376994494 0 0 6 1 -1 1 0 -1
1532259377016436 0 -17 -15 0 1 0 1 -2
1532259377042366 -1 14 14 1 0 -3 1 -1
1532259377062313 -5 2 -10 -3 1 1 0 -2
1532259377077272 3 0 -5 -2 -1 -1 -1 1
1532259377124148 -1 11 10 -1 -3 -1 2 0
1532259377147086 -2 -24 -5 -3 0 0 -1 -3
1532259377161048 -1 -2 -8 0 1 2 0 1
1532259377182991 -3 -1 37 -1 -6 -4 0 -4
1532259377223893 -1 -1 3 -5 0 -1 -1 1
1532259377227871 0 1 -12 0 -1 1 -1 0
1532259377264771 1 12 8 4 -1 -2 2 -1
1532259377310649 -2 -9 -2 0 1 1 0 -1
1532259377340568 -1 5 3 1 -1 -2 -1 0
1532259377362510 -2 -8 3 2 -1 0 -1 1
1532259377385449 1 -4 -2 -1 0 0 -1 0
1532259377424345 -2 29 16 -4 0 1 -1 -1
1532259377446286 0 17 18 -7 -3 2 -2 -1
1532259377471224 1 17 3 11 2 -3 0 -1
1532259377475216 -1 8 13 -18 -4 0 0 -1
1532259377528068 2 1 7 -2 0 1 -2 -1
1532259377543027 -8 -103 -15 -8 -1 -2 -2 0
1532259377557987 5 -33 -20 1 3 -8 0 1
1532259377580926 -3 -28 -31 -3 -9 7 -5 2
1532259377602868 4 36 -2 0 10 -4 30 -55
1532259377616829 -43 -57 -18 -6 -3 -11 -23 -1
1532259377639769 -6 21 -3 -3 -5 28 2 43
1532259377669688 3 -15 9 3 -6 -32 -2 -20
1532259377730526 4 15 31 -4 -11 -12 -6 5
1532259377745396 10 11 16 3 2 13 3 2
1532259377796260 -1 5 -12 4 -5 4 -2 4
1532259377820227 0 -7 -22 0 2 0 0 2
1532259377850116 3 -24 -6 -3 0 1 -1 -1
1532259377864079 4 17 6 0 2 -2 0 0
1532259377880035 -29 -2 -16 -4 2 -1 -1 -5
1532259377902975 9 14 -1 6 -1 0 0 3
1532259377947855 1 0 -1 7 4 -1 -1 -1
1532259377978772 5 2 12 -3 -1 -1 -1 -2
1532259378022655 3 -22 -18 -2 0 -1 0 -1
1532259378045593 0 13 9 -2 -1 -2 0 -1
1532259378084489 -3 -19 1 5 1 -1 -1 1
1532259378099450 1 27 11 7 5 -4 0 -1
1532259378172254 -2 -12 -2 3 -1 0 -3 0
1532259378182228 -2 -2 -1 2 1 0 1 -1
1532259378216137 7 -7 8 8 3 0 1 -2
1532259378225113 3 6 5 -7 -2 -2 -1 1
1532259378246057 -3 -16 -9 6 0 1 -2 0
1532259378284953 -6 4 -2 -11 -4 -3 -1 -1
1532259378298916 -7 -22 -45 -8 -6 -5 -2 -2
1532259378322852 -4 9 7 -17 0 0 -2 -2
1532259378336815 2 7 0 -8 -8 -2 0 2
1532259378375711 -2 -11 -2 20 14 3 3 -1
1532259378405630 4 18 17 12 9 3 0 0
1532259378435551 -3 2 15 0 3 0 1 -1
1532259378487429 0 7 7 1 0 0 -2 -1
1532259378510351 -1 1 -67 -2 3 0 0 -2
1532259378548249 -3 2 0 -3 2 -3 -3 3
1532259378660960 8 -17 -17 7 4 1 0 5
1532259378796595 -38 -2 8 -7 1 0 -9 -25
1532259378940201 15 12 12 11 8 5 10 17
1532259378997048 -7 -3 22 0 2 -9 -5 5
1532259379048910 -15 31 14 -1 1 -6 -4 -23
1532259379156622 -21 -16 -1 -1 0 0 1 0
1532259379208484 -7 12 -3 -3 -1 -2 0 -1
1532259379284281 2 26 3 12 4 10 -1 1
1532259379327166 -3 -32 -9 -4 -11 -7 -1 -5
1532259379393988 4 4 -9 2 -3 -2 1 1
1532259379442858 1 -31 -7 -10 8 -3 1 -4
1532259379448841 -14 4 22 0 -5 -21 -10 -1
1532259379515674 33 -16 -6 21 3 -2 5 16
1532259379560542 -27 -25 -3 -4 -1 5 -54 -28
1532259379590477 -26 -4 -2 -26 -7 -2 20 -11
1532259379619385 16 -21 5 1 -3 -5 0 2
1532259379680222 -17 -28 -41 -4 0 1 -1 -1
1532259379688201 -12 -40 6 7 1 -7 -17 -8
1532259379763001 -1 38 15 4 3 2 6 17
1532259379921577 -5 -8 8 4 1 -2 1 -5
1532259380039262 -7 -16 9 8 7 1 -1 -5
1532259380191854 14 18 -7 -46 39 -30 -11 -3
1532259380266654 14 -12 -2 -8 14 5 1 -6
1532259380302558 -31 10 0 -20 -20 -1 3 -7
1532259380318515 -34 -29 -15 0 4 1 -4 -24
1532259380371374 -10 4 -1 -1 6 2 0 0
1532259380392319 12 5 -7 -10 -4 -2 0 11
1532259380407278 13 -9 -1 5 0 -1 1 -1
1532259380498035 24 5 -8 -12 -5 -6 -2 23
1532259380587796 -4 -3 3 -14 -5 3 4 7
1532259380596783 -30 16 2 15 -6 -1 -4 -18
1532259380670577 39 -17 1 -12 14 1 -1 13
1532259380767315 17 7 -25 -97 -105 -10 -2 -1
1532259380798233 -30 11 17 -28 -15 -8 -4 -7
1532259380858073 30 5 0 -6 -3 -4 -1 1
1532259380894974 -5 13 11 4 -4 0 -2 -3
1532259380911931 11 -8 -3 -12 -5 0 0 1
1532259380923896 3 -14 -2 -6 -5 -2 0 0
1532259380948830 13 5 1 4 0 0 0 3
1532259380986728 8 -14 12 6 2 0 3 25
1532259380999694 -15 -13 -5 -7 -2 -2 -1 1
1532259381043583 -16 8 -1 -3 -1 5 0 -7
1532259381127353 -19 -11 7 0 8 10 1 -1
1532259381227085 -13 -15 27 47 4 0 -1 -1
1532259381283934 -2 -57 -7 -2 36 7 -2 -10
1532259381436526 -2 -11 -10 -10 -7 -1 -1 0
1532259381466446 1 5 -1 2 1 -2 1 -3
1532259381489384 -4 8 -3 -2 -3 0 -2 17
1532259381502353 6 -30 1 0 -2 -3 -4 -2
1532259381532270 0 -7 1 0 -1 0 0 -2
1532259381547230 -4 6 4 0 2 -2 -6 3
1532259381638984 -2 2 11 -1 -3 -1 -7 -47
1532259381653944 19 25 19 0 -3 -2 7 18
1532259381712788 12 -38 8 -2 1 -11 -59 -11
1532259381841443 -11 0 -30 -16 -6 -8 1 -6
1532259381855405 0 -17 25 0 -2 -1 22 5
1532259381908264 6 42 29 -6 -4 -5 -1 -4
1532259381966109 -2 76 97 4 -1 0 -12 1
1532259382116707 16 4 -16 -17 -17 -12 -24 13
1532259382176547 2 13 23 56 21 11 -12 -1
1532259382522622 -4 -28 -27 10 0 2 32 -5
1532259382614376 -6 6 -1 3 2 0 21 -19
1532259382777939 3 26 -8 4 -5 7 16 7
1532259382800877 30 26 11 -15 -14 -10 7 -2
1532259382875677 0 26 14 -5 0 -5 -13 -12
1532259382950477 23 49 19 -5 -11 -2 55 -25
1532259382995357 6 13 17 4 -1 4 32 5
1532259383017299 3 3 -8 -5 -4 -7 31 -25
1532259383129000 10 -7 22 -15 -4 -4 -12 -2
1532259383150941 -1 -9 17 -1 0 0 -6 -2
1532259383219757 5 76 0 -15 -12 -15 62 -43
1532259383244690 -24 15 15 8 0 -4 14 10
1532259383371360 5 25 13 13 -1 -19 60 3
1532259383423213 -8 -20 -15 -18 4 9 -6 -1
1532259383498013 7 -4 4 15 3 -1 4 3
1532259383579794 -3 56 -12 -13 -2 0 -2 0
1532259383691495 0 28 3 -4 -7 0 3 2
1532259383820155 -1 10 2 4 0 -5 -1 2
1532259383879992 -9 -33 -2 -7 0 -4 -3 -4
1532259383902930 7 43 11 1 1 4 0 -1
1532259383976733 -9 -89 -25 -2 1 -3 -1 -4
1532259384002664 -1 3 -35 -7 -2 2 1 1
1532259384076465 4 36 15 -3 -2 38 42 -7
1532259384112370 -6 2 7 10 7 -6 -1 -40
1532259384134312 -8 21 89 -6 -1 -7 6 -24

1532259384158247 -8 -23 73 7 -3 -7 -4 -11
1532259384194151 0 -17 -42 -10 -1 -5 0 -7
1532259384263964 2 5 -34 -18 -5 -12 -2 -7
1532259384269948 -1 -23 15 -9 -5 1 -5 0
1532259384298871 -4 -37 -27 -8 1 5 0 -3
1532259384338765 6 12 17 23 4 5 3 3
1532259384345746 4 -1 -5 -13 -8 -4 0 1
1532259384361715 -5 -16 -19 -2 -4 -4 -7 -8
1532259384382647 -7 8 -2 4 1 4 0 1
1532259384420547 -3 -3 -8 3 1 -3 2 0
1532259384433511 7 2 4 8 1 1 0 -2
1532259384457447 1 17 4 2 -1 1 0 0
1532259384480386 -3 1 -6 -1 0 -1 0 1
1532259384556183 -1 -6 -2 4 2 0 1 0
1532259384586103 0 -29 -1 11 3 1 -1 0
1532259384616023 8 -14 -1 7 2 0 -1 1
1532259384689826 2 -7 -15 -1 3 -2 0 0
1532259384735703 0 5 4 2 0 0 1 -1
1532259384757645 2 13 3 2 -1 0 -1 1
1532259384812498 -1 -5 0 0 -2 -4 1 -1
1532259384840423 2 1 44 2 1 -1 -1 0
1532259384854386 -4 -19 -4 1 -2 -1 -1 -1
1532259384885303 -5 19 3 21 3 0 0 -2
1532259384938167 -1 7 28 1 3 0 -1 -1
1532259384962098 2 -7 -30 -4 -3 0 0 -1
1532259384998002 0 4 117 -3 -5 -1 -1 -3
1532259385019943 -2 -36 -27 1 -2 -3 1 3
1532259385042882 -5 16 -21 3 0 -16 -3 -4
1532259385079790 -4 -11 -15 0 -7 -47 9 -30
1532259385095748 23 18 -3 9 9 83 15 -71
1532259385132649 -3 -15 21 6 1 32 5 7
1532259385179524 2 -12 47 7 3 -21 3 32
1532259385200468 3 -22 20 -3 4 20 0 6
1532259385237370 1 3 34 -17 -8 10 -4 -2
1532259385246345 0 7 5 -7 -6 -2 -3 0
1532259385290228 7 15 19 9 -1 3 -2 -3
1532259385327130 -1 9 3 -4 -1 4 -2 -3
1532259385388964 -1 -2 -2 6 3 -3 0 -1
1532259385416889 1 10 -4 -9 -5 -2 -2 2
1532259385442820 2 -3 -5 38 9 3 0 2
1532259385462766 1 -15 3 9 2 2 3 0
1532259385492686 -3 8 3 0 2 -2 0 1
1532259385522607 -1 0 10 21 4 1 1 2
1532259385536569 -2 -23 -9 -6 -2 1 -1 -1
1532259385575465 5 3 -6 -14 -3 -2 0 -3
1532259385627327 0 -1 -1 -3 0 0 -2 0
1532259385651263 3 -6 2 3 -1 -3 -1 -2
1532259385665224 -1 5 1 4 0 -1 -2 -1
1532259385703124 -7 -13 1 -3 -1 -2 -1 -5
1532259385725065 -2 13 -2 2 0 -1 0 3
1532259385762964 4 -17 -11 -2 1 1 1 5
1532259385799880 10 -3 -3 4 -1 1 2 6
1532259385905582 16 -39 5 3 1 -10 -6 -10
1532259385965422 -38 -1 0 -8 -5 -8 -6 -11
1532259386087098 -6 -18 1 1 -3 -6 -7 -5
1532259386130985 27 15 7 3 1 -1 -10 3
1532259386206776 28 -38 -16 -4 -3 -5 -4 -27
1532259386229716 13 -16 -13 -10 0 0 -6 8
1532259386356377 -64 0 2 2 3 -4 -47 -70
1532259386440153 45 -19 -12 -1 -2 4 8 31
1532259386505977 8 30 4 4 3 1 -3 -4
1532259386534900 11 34 8 2 3 3 -1 5
1532259386587759 2 -7 -10 -8 -10 1 -2 1
1532259386626654 4 14 10 7 -3 2 -1 -1
1532259386684515 -2 -15 32 6 1 -2 -2 -2
1532259386776254 -15 -16 -13 -17 -7 2 1 -4
1532259386804180 14 -1 2 18 12 -7 13 3
1532259386828116 0 16 10 5 11 11 13 16
1532259386903913 -16 42 -17 -17 9 10 -4 -9
1532259386924857 15 -13 0 -12 -11 -8 5 -4
1532259386976718 9 -38 -1 -11 -21 -3 -10 3
1532259387037574 -13 3 17 10 -18 -8 -11 -13
1532259387090414 6 -3 -8 -3 -6 3 12 -1
1532259387129309 17 -6 -2 -4 -9 -2 -5 4
1532259387166211 -10 -23 -11 -3 -4 0 -3 -2
1532259387189150 0 19 -8 0 0 -2 2 -9
1532259387253976 11 5 0 -4 -4 -3 -4 1
1532259387315811 -1 -2 -5 -8 -6 -3 0 -5
1532259387449453 -5 4 24 26 8 -3 -5 -3
1532259387481369 -1 -6 23 9 -6 0 3 -5
1532259387524254 15 -4 -72 -19 -10 -2 0 8
1532259387563150 -11 -31 -12 17 24 21 15 -2
1532259387609040 -5 -86 -43 -18 -10 -6 -9 -7
1532259387683827 -9 12 -12 31 5 -3 3 5
1532259387744665 9 44 17 -3 1 -5 -3 3
1532259387788547 -5 -8 -5 -7 -2 1 -1 -3
1532259387811501 1 -16 0 -4 0 1 1 -7
1532259387884291 -3 19 3 4 0 3 4 1
1532259388036883 11 -4 5 -13 -3 -3 0 4
1532259388111683 -39 -5 2 39 30 6 4 14
1532259388131630 -3 2 6 -3 51 8 2 5
1532259388206430 -8 -14 7 -3 -3 -1 -2 0
1532259388237350 -1 1 -4 -2 -5 1 -2 1
1532259388275245 -2 -7 -5 -6 -2 1 -2 -7
1532259388314142 -28 -17 -11 0 3 -1 -2 -2
1532259388367000 -24 -10 0 9 4 2 1 -3
1532259388409886 -1 8 2 1 4 0 10 16
1532259388448782 9 46 -3 2 0 1 -6 0
1532259388582424 -1 17 7 2 -5 -12 -5 -14
1532259388612344 -23 -6 50 -1 12 10 -28 -9
1532259388651240 -2 6 -30 2 3 26 3 -9
1532259388793859 21 -3 18 -11 1 -5 -19 8
1532259388921517 -6 -46 -30 -4 -6 -10 -19 -3
1532259388941463 -23 -37 -14 6 2 -3 -6 2
1532259389033219 12 8 33 24 8 1 0 7
1532259389189799 -10 101 -3 -11 -12 -7 16 -85
1532259389273576 62 57 7 9 8 0 -9 -19
1532259389340397 -24 -13 44 9 9 6 6 11
1532259389452098 12 44 8 -13 3 6 20 1
1532259389687469 -7 -10 -7 -6 -2 0 24 5
1532259389766258 35 58 17 -30 -24 -2 5 -1
1532259389872973 2 -1 1 -9 -4 -2 -6 -3
1532259389903890 -1 20 10 -1 -1 2 12 9
1532259390031549 -8 -17 -5 12 19 7 4 -15
1532259390211090 -8 -20 -52 5 11 6 -3 -3
1532259390315810 0 -52 -8 21 7 7 33 -10
1532259390367672 -3 -6 -2 5 10 0 5 32
1532259390435489 -9 -11 17 29 11 4 -2 -4
1532259390511288 8 22 15 17 14 -3 -42 -3
1532259390563148 -1 -8 -23 -13 -4 -2 15 1
1532259390592071 13 7 -3 -1 -3 1 19 5
1532259390636951 -8 -4 -10 -6 -2 -1 -3 -4
1532259390659889 -13 5 14 12 2 2 4 -6
1532259390757628 2 9 -8 -3 -7 -1 3 1
1532259390862348 -1 -17 -22 -8 -5 9 1 -1
1532259390885286 0 -2 14 2 0 0 -2 -2
1532259390952108 3 43 20 7 2 3 0 1
1532259391124647 12 45 -40 -4 1 1 0 1
1532259391185484 -2 33 -22 -2 -1 0 -1 -1
1532259391253302 -12 -24 -2 3 4 -23 -6 26
1532259391274246 -11 17 21 -4 -1 -40 34 13
1532259391283223 -1 -53 -6 -3 0 -29 -27 -34
1532259391328112 2 14 37 -12 -2 8 -10 6

1532259391357025 -3 2 -19 -5 4 15 4 -21
1532259391419859 4 -18 14 -8 -6 -5 2 -7
1532259391448035 -5 -1 22 1 1 2 -3 -8
1532259391469978 2 -9 15 18 2 -8 1 -4
1532259391544779 -10 -7 -17 -7 1 -4 -2 -4
1532259391575695 1 10 -7 -4 1 0 0 -1
1532259391597637 3 -11 0 -1 0 -2 -1 -2
1532259391611599 2 8 -6 -4 -5 -1 1 -3
1532259391648501 0 26 -7 3 3 0 0 -2
1532259391680416 0 0 -5 -1 1 -2 0 1
1532259391717317 0 -5 -1 1 -1 -1 0 -1
1532259391748234 2 0 8 -4 -3 -2 -2 -2
1532259391779152 -6 40 20 1 0 1 -2 -1
1532259391808074 1 -14 -8 0 0 -3 0 -1
1532259391830016 2 44 -1 21 5 -1 -1 -2
1532259391881573 -2 -1 -2 2 -1 1 0 -1
1532259391906506 0 -10 -27 4 1 2 3 0
1532259391957370 -9 13 20 -7 -3 -3 -3 -5
1532259392002250 0 -22 -2 -3 0 -1 -1 0
1532259392028181 -2 -1 11 -3 -1 -2 0 -1
1532259392051120 7 20 -1 3 0 -3 -1 -1
1532259392078048 1 12 -1 0 0 1 -2 -1
1532259392107968 2 -6 -2 5 0 -2 0 0
1532259392122927 -1 3 4 12 1 2 1 0
1532259392182768 -2 -1 11 -7 -2 1 -1 -1
1532259392228645 -2 -29 -22 -15 2 1 -3 -2
1532259392234628 -4 -56 -17 -13 -4 -1 -1 -2
1532259392250586 -4 -17 -59 1 1 -3 -1 -1
1532259392309429 -1 -21 10 -1 -4 1 2 -1
1532259392327381 1 17 33 11 -1 -3 -4 -1
1532259392354309 0 -24 0 1 0 0 -2 -3
1532259392393210 -14 -1 5 4 2 0 5 -7
1532259392414154 2 3 6 10 11 43 0 9
1532259392505909 1 11 44 11 4 -55 -9 -3
1532259392542810 9 18 -57 -12 -6 -8 -1 4
1532259392604657 0 9 -10 -43 -17 -3 -1 -6
1532259392640548 -1 -5 4 2 -1 -3 -1 -1
1532259392662490 -7 12 12 2 2 -4 0 -4
1532259392678447 3 1 -6 2 3 -5 2 1
1532259392707370 -1 -12 -7 -15 -5 -4 -4 -1
1532259392730309 -2 -8 -7 0 -2 -3 -1 -1
1532259392753248 -7 0 0 2 1 0 -1 4
1532259392783167 -7 12 20 2 -2 -2 -1 -5
1532259392881904 4 -4 13 0 -2 0 1 -2
1532259392901850 -2 0 -6 -6 -6 -4 -4 -1
1532259392919835 3 -10 -8 2 0 -3 -1 0
1532259392955706 -1 5 17 30 4 3 2 1
1532259392961690 -1 5 -6 -8 0 0 -1 0
1532259392984628 2 26 -4 -4 0 1 1 -1
1532259392999589 -4 10 -2 -1 0 0 0 -1
1532259393022528 -3 -20 -7 -6 -3 0 1 1
1532259393051450 1 -7 -1 0 0 -1 -2 -1
1532259393083365 -4 -7 3 0 0 0 0 -1
1532259393143205 0 -21 -15 -35 -11 -5 -2 -1
1532259393210026 -2 -10 7 11 8 3 2 0
1532259393232964 -2 -26 5 3 7 0 -2 -3
1532259393239946 0 10 9 3 -1 -2 0 0
1532259393269866 4 18 1 20 4 0 1 1
1532259393292805 -2 32 -10 4 4 -1 -1 -3
1532259393344667 -1 -17 -5 -1 -3 -1 -1 1
1532259393419466 -1 -5 0 3 -1 -2 -4 -18
1532259393520196 -19 -8 -3 -11 -2 -5 -3 -13
1532259393631898 3 -14 -16 -3 -1 -3 -2 9
1532259393802442 81 23 9 3 2 3 22 107
1532259393923119 26 -19 -6 -6 -6 -2 18 -20
1532259393974981 -55 -11 -12 -4 -2 -6 -13 -15
1532259393997919 9 19 -3 -3 2 4 6 12
1532259394026842 -10 -17 -13 -4 0 -2 -14 -17
1532259394065738 23 -5 1 -2 -1 -2 -1 12
1532259394117599 5 -4 -3 2 -2 -2 -1 -5
1532259394149514 0 -7 3 1 1 1 3 12
1532259394201375 7 3 5 1 -1 0 -7 0
1532259394270191 5 16 5 5 4 2 2 2
1532259394321056 -1 -21 -1 1 2 3 0 -1
1532259394394858 0 -3 -5 1 -3 1 -1 -1
1532259394454698 0 16 4 3 10 0 -8 -5
1532259394484618 -1 -7 -5 4 -3 0 3 -1
1532259394494591 11 7 -1 -24 11 0 -1 4
1532259394545455 4 -6 0 3 -8 0 0 -6
1532259394582356 -5 2 6 -11 -10 -12 -7 -3
1532259394808751 -3 -19 -13 -4 -7 -3 0 -11
1532259394815733 -4 -10 -43 -15 -8 -4 2 -2
1532259394889535 -7 -7 29 -3 5 -3 -6 -7
1532259394959348 -26 -11 30 -1 -3 0 18 4
1532259395001236 -18 -12 -15 -13 -4 -2 4 2
1532259395092991 -11 -60 2 3 2 -4 -14 -13
1532259395264532 -4 -33 24 1 15 -2 7 2
1532259395431087 -8 20 16 -18 -12 -8 -1 -4
1532259395513865 -14 32 12 5 -3 1 1 -1
1532259395557748 20 32 -7 0 -1 -3 1 5
1532259395617588 15 3 -13 -5 -4 -1 -9 6
1532259395731291 0 -36 4 0 1 -7 13 2
1532259395807082 1 17 -31 11 -3 -2 10 2
1532259396009540 -6 1 -2 -9 -5 1 0 -3
1532259396045444 -1 -59 -16 1 -7 2 -2 -2
1532259396143183 4 25 -3 0 -3 -2 1 3
1532259396172105 5 -6 0 0 0 1 0 1
1532259396240921 5 -19 -5 -3 -1 -2 1 -14
1532259396269844 -15 -38 -32 -6 -4 -4 -13 12
1532259396487263 -5 -11 -5 16 9 20 25 5
1532259396517183 2 -13 -44 -6 0 11 -5 4
1532259396615919 -3 -38 -17 23 3 11 -15 2
1532259396752553 -8 -53 -10 -6 -12 -6 5 10
1532259396763524 -17 -52 8 13 17 3 -18 14
1532259396893177 -24 -70 -25 5 8 8 2 -2
1532259396968974 -2 -11 15 -4 -2 -6 -6 -1
1532259397003882 -18 -62 -22 -9 -10 -7 76 -15
1532259397080676 15 -3 7 0 -1 1 21 17
1532259397140516 21 32 31 17 10 5 9 12
1532259397254212 -8 40 -10 -10 -2 0 -18 1
1532259397380872 0 -12 -3 2 -1 -6 -23 15
1532259397499555 19 46 42 -36 -17 -10 -6 4
1532259397724952 -3 -1 1 3 4 8 11 -39
1532259397777811 30 45 12 -1 -4 -5 0 -10
1532259397814712 -6 -42 -21 3 5 4 -35 -4
1532259397874553 -15 -77 -33 -7 1 3 13 -5
1532259397913449 18 -34 1 0 -2 4 -1 -4
1532259397935390 19 -4 5 -10 -5 1 14 2
1532259397980270 4 11 -11 0 5 50 60 12
1532259398062051 22 23 20 27 -3 -2 -11 1
1532259398128873 17 7 -6 4 -1 -1 8 5
1532259398188712 0 3 7 9 0 2 2 -2
1532259398280467 -5 1 -2 4 -4 -10 8 -3
1532259398391171 9 -38 -2 -3 -2 -1 5 4
1532259398549747 -8 84 16 2 3 -8 1 3
1532259398609587 9 -13 -9 0 1 -2 0 1
1532259398730265 1 -9 -20 -1 -2 -2 1 0
1532259398760184 -9 -26 -10 -4 -1 1 1 -2
1532259398843961 8 6 28 -2 0 -2 5 5
1532259398858920 -16 -18 5 -5 -1 6 14 80
1532259398888841 7 -5 29 8 8 -12 1 -41
1532259398923747 0 -25 -23 -38 -11 1 -5 -9
1532259398946689 -12 -54 -1 9 -2 16 -4 -19

1532259398985582 1 10 13 19 4 -10 -3 -4
1532259399053401 -3 7 6 -9 -4 1 0 -4
1532259399067362 -1 6 1 -17 -2 -4 -1 -1
1532259399091299 -4 -40 -46 -4 -2 3 0 -2
1532259399104265 -2 -9 -19 0 1 1 1 -3
1532259399127203 5 3 -41 -4 -1 1 1 -2
1532259399141166 -1 -21 -13 2 2 0 3 1
1532259399173095 -2 11 16 -2 0 3 -1 0
1532259399216963 -1 -11 6 -3 -2 0 -1 -1
1532259399248882 2 -4 7 3 1 -1 0 -1
1532259399284788 1 -1 3 -7 -3 -1 -1 0
1532259399322686 -2 6 -1 4 0 -1 -1 -1
1532259399336649 0 -6 -1 5 -1 -5 0 0
1532259399382527 -6 -52 -21 -4 -5 1 1 -2
1532259399419428 -3 -11 -2 0 -1 0 1 -1
1532259399434388 -1 16 -1 -12 -3 -2 -1 -3
1532259399479268 1 -4 -3 -7 -2 0 2 1
1532259399525145 -4 11 11 2 -3 -7 -5 -4
1532259399539107 2 -10 -13 1 1 -9 0 3
1532259399555065 -3 6 8 2 1 3 -1 -2
1532259399577006 4 0 -18 6 0 -1 1 2
1532259399615914 3 -13 0 1 0 -1 -1 -1
1532259399644825 -7 5 2 12 3 -5 -3 -4
1532259399666766 0 3 -4 1 2 2 -2 -2
1532259399719625 0 1 -3 -9 -3 3 -2 1
1532259399742564 1 8 2 -1 -3 -1 0 1
1532259399779465 -2 -2 2 1 0 0 -2 -4
1532259399794425 1 13 28 1 -1 2 -1 1
1532259399817363 -4 -20 2 -2 1 0 1 -1
1532259399839305 2 5 -3 -2 -2 3 -2 -1
1532259399877203 -3 16 14 -3 1 0 1 -3
1532259399899144 1 -26 -14 2 1 -1 0 0
1532259399930062 1 14 -9 1 1 -2 0 2
1532259399958985 -2 2 -4 -1 -2 -3 1 1
1532259399976947 0 3 14 -1 -1 0 -2 -2
1532259399996884 0 12 -39 -2 0 0 -2 1
1532259400050740 2 -33 -31 -6 1 1 -1 2
1532259400056724 -4 11 -41 0 -3 1 0 -2
1532259400081657 -2 5 32 4 1 -1 -1 3
1532259400117561 -2 -19 -43 -8 -6 6 3 2
1532259400140500 5 36 34 3 0 -22 22 -27
1532259400199343 18 24 -21 1 0 -41 -16 32
1532259400223278 -15 83 112 7 2 12 -11 -18
1532259400245220 2 -35 -2 -2 2 -10 -10 45
1532259400259182 5 -13 -117 -4 -7 -11 -15 -3
1532259400293092 -3 -44 68 20 0 6 -4 -16
1532259400358915 -8 -2 2 -2 -5 -15 -7 -7
1532259400380857 5 7 -6 -6 -2 1 -6 -2
1532259400433715 -1 -22 -7 1 1 2 0 0
1532259400472627 -16 10 2 -3 -1 -3 -6 1
1532259400509513 1 -1 2 5 2 0 1 -1
1532259400522478 3 -8 -2 -5 -6 0 1 -4
1532259400567359 -4 -12 5 -1 1 1 0 0
1532259400596281 -5 -38 -2 0 -3 0 0 -4
1532259400627198 4 6 0 2 -1 -1 -1 0
1532259400679060 -2 9 -1 0 -6 0 0 -3
1532259400717955 4 4 1 4 3 0 -2 1
1532259400739897 -6 -30 -3 0 5 -1 -4 -2
1532259400762835 -4 3 3 1 3 1 0 -2
1532259400785774 4 9 -2 2 -8 -4 0 0
1532259400861577 -2 2 -2 -6 -8 -4 1 2
1532259400882516 1 13 67 2 24 7 2 2
1532259400935374 -4 0 15 -2 0 2 -2 -7
1532259400942355 -14 -3 -17 5 -3 2 -1 -10
1532259400979257 3 -3 -10 -4 -6 -2 -3 2
1532259401017155 -1 -18 -31 5 15 1 2 2
1532259401055054 -3 17 -65 -10 -3 -1 4 10
1532259401072017 8 -6 45 3 -3 -1 -2 -1
1532259401121875 -5 -7 14 2 -2 -1 -4 -2
1532259401152793 2 -10 22 -1 -7 -2 -4 2
1532259401182712 -8 -4 23 -5 0 -1 -1 -10
1532259401191689 -10 -4 8 0 1 1 3 10
1532259401355251 -1 -13 -3 3 2 1 12 7
1532259401467964 0 -1 -6 0 2 1 22 5
1532259401549731 1 4 2 -1 -1 -1 56 6
1532259401557710 -1 -5 -1 -2 -1 -1 -4 0
1532259401616553 3 7 -2 0 1 1 8 10
1532259401692350 5 18 -3 -3 -4 -3 -6 33
1532259401708308 -6 -3 -4 -4 -1 1 14 36
1532259401745232 -2 4 -2 -1 1 0 -21 -12
1532259401782110 2 3 -8 4 0 1 2 -8
1532259401819015 -9 8 1 -2 1 -3 -15 3
1532259401947667 3 13 1 -1 1 1 -4 -3
1532259402007508 2 0 -4 -2 -5 0 2 2
1532259402098265 1 -24 -3 -2 -1 -2 4 3
1532259402167081 0 21 13 -1 -7 -3 -1 -1
1532259402215958 2 -6 -10 4 0 -1 -2 1
1532259402226921 -5 9 5 8 -2 -3 -11 -2
1532259402261828 -2 -10 -1 8 4 -3 -2 4
1532259402270805 -6 -12 -8 7 -2 3 4 -1
1532259402330645 -3 13 4 -2 7 3 4 -3
1532259402366547 -9 11 10 -1 1 6 3 -4
1532259402427385 -3 24 -7 0 -7 -2 -3 4
1532259402509166 -2 -12 2 -11 -14 1 8 9
1532259402653780 0 -19 -16 -8 1 11 13 11
1532259402668739 -22 6 4 2 -1 -5 -9 2
1532259402908099 -1 -12 8 8 2 54 28 4
1532259403029774 5 7 2 -20 -12 -22 -20 -6
1532259403124520 -7 -26 -7 0 9 0 7 -3
1532259403410768 0 -3 -8 -14 -3 -3 4 0
1532259403479570 -2 0 6 -6 0 47 4 -5
1532259403650115 -8 -21 -5 -13 -40 -5 -1 -3
1532259403680035 -3 -45 3 -2 -1 -7 -5 -5
1532259403709956 -2 2 3 8 7 1 1 3
1532259403749847 -11 -9 8 1 7 1 -4 -6
1532259403778781 7 -44 -7 -5 -1 -3 -2 3
1532259403829636 -12 1 -1 1 0 -1 -4 -5
1532259403862547 -6 -5 1 0 -5 -4 -3 2
1532259403890485 -12 -11 -5 -5 -3 -2 -2 -5
1532259403958296 -1 11 -7 -4 -1 -2 -1 -3
1532259404235549 -7 2 25 1 2 6 -4 2
1532259404241535 -5 0 -9 1 2 2 3 -11
1532259404295402 -2 17 18 1 -9 -16 -9 -16
1532259404334284 -14 -22 -31 -11 3 -8 -11 -2
1532259404348261 -1 4 -11 6 4 0 6 11
1532259404386146 -1 -10 -3 -5 1 2 -16 6
1532259404399111 2 -4 7 -6 -1 -4 8 -5
1532259404438008 -6 -18 6 -4 3 3 -14 -4
1532259404459949 5 18 -19 -3 -2 3 1 -1
1532259404536756 -10 -37 8 5 7 7 28 -5
1532259404550706 -17 -28 5 -9 -7 2 -53 -15
1532259404573645 -15 20 19 -6 -5 -7 -4 -8
1532259404648444 -13 -21 -14 -4 0 1 71 -14
1532259404685353 43 72 -22 21 9 8 -12 4
1532259404790067 0 -12 -6 11 13 12 26 -2
1532259404834946 -13 -22 22 9 7 4 6 0
1532259404863869 -3 -6 -40 -5 3 4 -4 -5
1532259404888811 20 31 -4 -1 0 -3 -4 -6
1532259404932685 -8 -16 -12 1 -2 7 -1 -9
1532259405000503 0 -16 4 2 -3 -7 -18 -4
1532259405052365 5 -10 -17 -34 -2 4 -23 4
1532259405075317 14 3 24 1 -3 -2 21 5
1532259405089265 10 -12 -28 30 10 2 0 3
1532259405151100 19 60 56 -21 -14 -9 -3 0
1532259405201965 -3 45 34 -6 -7 -4 -10 -4
1532259405219917 -2 13 7 -1 8 10 -4 -1
1532259405255821 7 -66 -5 -1 -3 -5 -11 51
1532259405352562 -16 -24 40 11 0 -6 -35 -12
1532259405444317 -23 -9 0 13 -2 -1 16 -7
1532259405458280 -7 14 10 9 3 -2 41 -7
1532259405533080 8 5 8 0 -4 -4 -11 2
1532259405571011 -4 37 24 -1 -1 -1 2 1
1532259405622840 14 -2 26 1 -3 1 1 -34
1532259405628823 -3 -7 7 -2 -2 0 3 8
1532259405653758 12 -11 1 6 8 2 -11 33
1532259405696642 -5 -23 -1 -5 -6 -4 -32 1
1532259405722573 -12 -19 -7 4 -5 -7 -9 1
1532259405734557 24 1 -10 2 -1 -1 9 12
1532259405773436 9 23 1 -6 1 0 -1 0
1532259405794381 -9 4 47 -10 2 6 -1 0
1532259405877159 -5 -9 6 5 0 -2 0 9
1532259405924033 -9 -8 -38 17 7 2 -10 -6
1532259405952957 8 0 7 -7 -9 -12 -56 43
1532259406000829 -7 -10 -19 2 1 0 -17 -12
1532259406051693 3 -11 -24 -11 5 3 22 0
1532259406101559 -6 23 43 32 5 5 2 -7
1532259406125503 5 4 -23 -17 -3 -1 20 -2
1532259406177357 0 -2 3 4 -2 -1 51 0
1532259406237197 4 -10 -4 -1 -1 -1 -2 2
1532259406305015 6 16 7 11 -1 -2 4 -15
1532259406319975 7 -54 -8 4 0 0 -4 12
1532259406446637 7 23 14 5 1 -4 -2 9
1532259406514455 5 5 -26 14 -2 2 -2 1
1532259406605213 0 -3 10 5 1 1 1 0
1532259406748829 -15 -39 35 3 1 0 -3 -1
1532259406807671 18 -2 -1 -7 -20 9 12 73
1532259406860530 7 14 48 2 -2 -8 7 -6

1532259406934332 10 63 4 -10 -8 -5 -3 -4
1532259406957271 -13 -11 -11 0 0 -7 -4 -52
1532259407017111 1 -3 -3 -24 2 1 5 6
1532259407042046 3 1 18 -5 -5 -1 0 3
1532259407055010 -3 -5 -9 6 -1 4 -3 5
1532259407098892 -1 -6 -5 6 1 -3 2 3
1532259407145771 -1 2 -2 1 0 0 -1 0
1532259407168325 4 0 1 34 14 4 4 4
1532259407197249 0 -1 -1 -1 0 -4 1 -1
1532259407222217 0 -4 -5 -4 -2 -2 11 37
1532259407234184 -1 10 4 -6 -3 -2 -3 -5
1532259407339901 -3 -19 -17 -7 -4 4 -1 -2
1532259407370819 -1 -13 -9 -5 -1 -1 -2 -3
1532259407377799 0 13 3 1 -1 0 0 -3
1532259407400739 3 47 19 -7 -3 -1 -1 -1
1532259407438638 1 -2 -5 -3 -3 -1 -1 -1
1532259407473907 -2 -1 -1 3 0 0 1 0
1532259407515809 0 -18 -5 -14 -1 -4 -2 -2
1532259407529757 2 -2 0 3 0 0 1 1
1532259407586605 -4 8 1 -6 -3 0 -1 -2
1532259407602804 1 -16 -5 4 -1 1 -1 0
1532259407648681 -1 8 5 1 0 6 -2 -1
1532259407670629 -2 7 2 5 0 -1 -2 -3
1532259407714505 -2 26 8 -9 -2 2 0 -1
1532259407740436 1 8 1 -4 -2 -4 0 -2
1532259407799279 -1 3 7 -7 -4 -20 -16 -2
1532259407826207 1 -6 -5 1 -1 5 2 1
1532259407873081 -2 2 -3 3 1 0 4 1
1532259407880063 -2 -3 0 -2 -2 4 6 5
1532259407941898 0 5 -9 -1 -1 1 -1 -3
1532259407953865 0 12 15 1 0 0 -2 -1
1532259407979796 -1 5 -1 -1 1 -2 0 -2
1532259408000739 0 2 -4 0 -1 -1 1 -2
1532259408077537 1 -31 -13 0 -2 2 -1 0
1532259408142365 -4 -22 -19 3 4 0 -2 -5
1532259408166297 -3 -25 -29 -2 -1 -5 0 -2
1532259408227134 2 25 18 0 -1 -1 -4 -3
1532259408248078 -9 49 0 -2 6 -49 -16 22
1532259408277999 -23 -101 -17 -7 -7 -11 23 -28
1532259408301934 -20 11 -4 -2 -5 -57 -16 -89
1532259408345817 8 1 10 1 -4 6 -1 -1
1532259408421615 1 -3 21 -26 -8 1 3 3
1532259408442565 14 -4 25 9 3 2 1 5
1532259408456521 -1 4 5 8 0 0 -3 2
1532259408481454 -4 12 -2 1 -1 -3 -4 -10
1532259408554260 -3 -7 -11 4 4 -3 0 -4
1532259408573209 -6 -4 0 8 2 -2 -1 -2
1532259408599140 -5 -4 0 4 3 1 1 -2
1532259408623076 3 -12 -14 -3 -1 1 3 2
1532259408659977 -5 -12 -4 2 -1 -5 -5 -1
1532259408681918 -3 -9 7 2 0 8 5 -1
1532259408749737 1 5 -4 -5 -1 -3 0 -2
1532259408802596 0 8 -2 -1 -2 -4 0 0
1532259408825534 -1 -9 0 4 2 -1 1 1
1532259408885374 -3 15 4 14 3 -1 0 0
1532259408923274 3 1 15 19 2 1 1 2
1532259408975134 3 -11 -26 -28 -4 0 -1 -1
1532259409019017 2 2 -5 -8 -4 -1 -1 0
1532259409080851 -24 -9 -13 -1 1 -2 -19 -4
1532259409112767 1 3 -8 -1 0 5 -4 0
1532259409116772 -8 9 3 -4 -4 0 5 -4
1532259409184582 -23 -15 1 -3 2 1 7 -8
1532259409244415 9 10 13 1 -2 -2 -13 1
1532259409373070 12 5 -4 -3 -2 -5 -3 0
1532259409515689 7 6 -4 1 -2 -2 4 10
1532259409666285 5 4 -1 -1 0 -1 8 26
1532259409718148 33 10 11 3 2 4 16 34
1532259409891683 7 18 13 4 -1 0 0 7
1532259410048264 -2 -6 -1 -2 1 1 -3 2
1532259410408310 -3 1 15 -2 -5 -8 -29 -4
1532259410474126 21 53 23 11 9 4 5 -14
1532259410492079 -3 38 7 -4 -11 -1 1 -3
1532259410574857 -3 -20 -9 -2 3 4 -5 -1
1532259410616745 0 -10 18 8 -12 -5 -6 -7
1532259410670601 -5 23 5 -2 11 -4 -14 -5
1532259410684563 11 -24 -11 -17 12 6 1 6
1532259410717475 7 31 -1 8 -3 -4 -6 3
1532259410746398 13 -16 15 3 -1 -3 -9 6
1532259410804243 -8 6 -7 0 -2 -2 -14 -12
1532259410917939 -10 1 1 7 3 2 6 -9
1532259411075518 3 -4 4 -3 -6 -1 6 4
1532259411121395 2 -21 -25 1 -8 0 0 2
1532259411144334 -6 -16 -5 4 10 2 11 2
1532259411197192 23 -2 -17 7 -7 -3 5 5
1532259411233096 32 55 20 -6 6 1 11 16
1532259411277976 13 -8 -1 19 -42 6 5 6
1532259411306899 16 16 -35 -107 -85 -9 -1 5
1532259411352776 6 20 -1 14 30 -1 -7 -2
1532259411405635 23 -16 -4 5 -2 -3 1 2
1532259411420610 -19 0 -5 -8 16 3 2 -12
1532259411457496 -17 -11 6 0 -3 -6 -4 2
1532259411471459 -24 33 0 1 5 0 1 2
1532259411524317 2 11 0 -3 2 2 3 13
1532259411691885 -42 12 2 22 -2 -6 -17 -11
1532259411752707 -6 6 -23 -12 -4 0 -11 -7
1532259411812547 -8 0 12 0 27 3 3 3
1532259411877374 -1 8 -16 29 7 6 0 -1
1532259411909288 2 38 9 -3 -73 -1 1 0
1532259411967133 -5 -4 2 -27 17 -5 -1 -4
1532259412013011 1 21 0 -3 -1 -1 -4 -12
1532259412088832 -11 -75 -16 -5 -1 -1 0 8
1532259412112778 -13 9 -1 -5 -2 -2 -3 -3
1532259412269359 -9 -6 -3 -3 1 -1 1 -9
1532259412314239 -15 25 -2 -5 0 0 -1 2
1532259412334186 -1 27 -5 25 0 -3 2 0
1532259412373082 5 15 -1 -38 -10 -2 -1 -5
1532259412493759 7 59 -5 -18 -18 2 4 0
1532259412582522 0 -11 -4 -40 -63 -9 -2 -3
1532259412634383 0 -8 -5 3 -3 1 -1 0
1532259412658320 -4 11 12 5 -6 -2 0 0
1532259412712175 -3 -7 -2 -2 3 0 -11 -1
1532259412772015 0 9 0 1 -1 -1 0 -3
1532259412793956 12 20 5 6 3 -3 -5 32
1532259412822879 6 24 3 -3 -6 -3 7 0
1532259412868757 -4 -49 -20 2 3 -1 -3 0
1532259412896682 0 5 15 -5 0 2 -1 20
1532259412938571 -7 -23 21 -5 7 -3 -34 -14
1532259412972479 1 -15 -19 0 15 0 -36 9
1532259412996415 -5 -1 16 -11 27 15 -16 -16
1532259413062239 5 0 7 6 9 3 -4 4
1532259413147012 -6 9 27 -4 -4 1 -4 2
1532259413190895 0 -12 4 -6 -4 -1 8 0
1532259413214833 3 -14 -49 -4 1 0 -23 2
1532259413264698 -21 -47 33 4 2 6 0 20
1532259413308580 -26 -22 3 -1 1 0 3 -17
1532259413342489 -28 2 -9 3 7 17 22 -10
1532259413363434 10 -27 -4 0 5 0 1 9
1532259413392356 -24 -45 -21 -39 -13 -4 10 16
1532259413492090 3 -9 -4 11 1 -1 -28 2
1532259413520015 -12 23 -16 13 1 -1 5 0
1532259413534975 -10 1 22 2 0 5 57 1
1532259413564895 -2 -30 -9 8 4 0 11 4
1532259413617754 15 98 17 4 8 10 10 12
1532259413696543 18 -69 -4 2 3 3 0 21
1532259413737434 -3 -20 -84 -46 -15 -7 -8 -2
1532259413873071 -20 -13 -5 -1 -1 0 18 -60
1532259413932911 0 -9 16 9 7 1 -52 58
1532259413954852 24 123 16 0 2 6 -20 -44
1532259414023668 -20 -43 -40 -28 -12 -9 24 23
1532259414082511 -18 -13 6 -11 -9 -6 2 14
1532259414120409 38 69 29 32 7 2 39 13
1532259414171299 -11 -41 -4 2 -3 0 -8 8
1532259414224132 -8 -71 -69 -17 -5 -8 7 21
1532259414360767 43 29 24 8 3 5 50 -10
1532259414373732 36 22 19 -35 -16 -3 -36 -7
1532259414419609 11 21 1 -3 -4 9 -15 -11
1532259414450526 -15 8 -41 -31 -6 8 -15 -1
1532259414502387 -3 7 33 16 -1 0 -6 2
1532259414525327 -9 -8 -5 5 -1 -1 11 -7
1532259414602121 9 -4 -13 0 0 1 44 0
1532259414608105 -1 -35 -18 1 0 -1 -3 2
1532259414728783 3 19 9 1 1 1 -1 -5
1532259414840484 -3 -49 -5 2 -1 0 3 -1
1532259414891348 2 37 5 9 -2 -2 -1 0
1532259414990084 -4 18 17 0 -2 -4 -3 1
1532259415057902 -6 -61 -34 1 -3 1 -1 -4
1532259415079843 8 9 -8 2 -1 -3 -2 -1
1532259415102783 -1 -4 16 -3 -1 2 2 3
1532259415139684 -8 -86 -23 -5 -5 12 -16 -1
1532259415162622 10 -39 -24 3 -7 -43 8 -73
1532259415200521 -1 6 61 6 3 -13 9 30
1532259415230454 1 -29 -92 4 -4 -27 -5 25
1532259415243407 -21 -30 -32 -19 -2 -10 -2 -2

1532259415290283 -4 19 49 5 -3 -1 -2 -4
1532259415359097 -2 -8 -28 -9 -2 6 4 2
1532259415410958 2 -26 -10 -10 -5 -6 1 10
1532259415440878 -4 6 1 2 3 8 -2 -3
1532259415462835 0 -1 -11 -9 -4 1 1 2
1532259415492740 1 12 -1 3 -3 -1 1 0
1532259415522660 -4 -5 3 0 0 -1 -3 0
1532259415536623 3 -11 -7 0 -1 -2 1 -1
1532259415622396 2 4 -1 2 -2 -3 -2 0
1532259415659294 -1 -11 -8 1 1 2 3 1
1532259415695198 8 -11 5 39 9 3 1 3
1532259415718973 3 13 -3 -20 -4 -3 -1 -1
1532259415725956 -2 2 2 10 4 -1 1 0
1532259415749892 -1 3 9 11 2 0 -2 -1
1532259415791781 -2 5 6 7 3 1 1 -1
1532259415822697 -2 4 14 19 5 1 -1 -1
1532259415898494 -2 7 -1 -3 -2 0 -2 0
1532259415912457 1 12 9 7 0 0 0 0
1532259415965316 0 41 8 3 0 -1 1 1
1532259416017177 -2 -15 -11 -5 -1 0 0 0
1532259416062890 -7 -4 -1 -3 -3 -3 -2 -3
1532259416092811 -11 -8 5 2 1 0 -2 -2
1532259416174592 -3 -21 -7 5 1 1 -2 -1
1532259416205510 -3 -27 -4 3 0 0 1 0
1532259416242411 0 7 1 1 -1 1 1 2
1532259416303248 3 14 28 -13 -7 -5 -1 0
1532259416324192 3 -16 -77 1 3 0 2 1
1532259416468805 -2 -35 -7 3 15 26 5 8
1532259416519670 -2 28 6 -1 -3 -27 -10 -11
1532259416544602 -5 -2 -3 -4 -1 -21 -4 -1
1532259416670266 1 17 -38 4 4 0 -3 0
1532259416774987 2 23 2 0 1 0 0 0
1532259416799920 3 -23 20 32 1 -2 0 -1
1532259416849787 2 0 -3 -3 -3 -3 3 -1
1532259416932565 0 4 11 -1 -2 -4 1 -1
1532259416948522 -2 -2 -6 -5 -1 -1 0 1
1532259416970463 -1 18 -1 -9 2 0 3 0
1532259417032299 -4 -13 -5 -9 3 -1 -1 0
1532259417075184 -4 -1 -4 -7 1 0 0 -1
1532259417159967 -1 -6 -8 -12 -4 -1 -3 -1
1532259417301578 -11 -1 -7 4 3 1 -3 -25
1532259417429237 54 19 7 3 -1 -2 -1 2
1532259417593797 8 -9 2 -6 -3 2 1 -5
1532259417638677 14 1 14 6 -1 2 10 -5
1532259417668597 -26 -25 -25 -10 -3 -4 -14 -22
1532259417714474 23 1 2 -2 -3 -4 2 7
1532259417729434 19 8 4 0 -2 -27 -15 10
1532259417789274 -53 -22 -8 -1 0 -1 -11 9
1532259417840138 -8 -13 5 -7 -3 -4 -5 -8
1532259417855098 -2 -2 -6 -1 -1 5 -11 34
1532259417907957 -17 -5 -4 -7 -1 7 2 -17
1532259417929899 0 7 2 0 0 -2 -16 -8
1532259417990735 -2 0 2 -2 1 4 -1 -7
1532259418059551 -1 -22 0 1 -2 4 6 0
1532259418101440 -2 17 -14 -9 -6 8 6 -1
1532259418133370 -2 -62 0 6 -5 -3 -4 -2
1532259418194191 10 19 21 41 21 0 1 4
1532259418238074 -15 -20 11 -17 11 -8 -5 -3
1532259418270005 -1 20 7 0 -4 -10 -3 0
1532259418280959 2 -14 4 -4 -5 -5 -1 14
1532259418335813 32 -27 7 22 7 -5 -2 8
1532259418365733 -2 43 3 5 3 0 -9 -3
1532259418411617 -33 -16 9 1 0 -3 -10 -4
1532259418454502 0 -25 -37 4 2 1 -6 -3
1532259418492401 5 2 -17 -7 -5 -4 -3 3
1532259418546257 17 -18 -33 -2 -4 -3 0 -8
1532259418598118 8 -17 -24 -4 -1 2 -5 -2
1532259418689873 19 6 -21 -4 -1 -10 -3 -7
1532259418763676 7 5 0 -3 -1 13 39 15
1532259418816534 25 44 17 27 -3 -1 -11 1
1532259418891334 -8 7 2 -8 -9 -11 -9 -11
1532259419041931 -2 -23 -1 -1 1 1 1 -3
1532259419115734 17 1 -2 -6 -5 -2 2 2
1532259419144657 -6 2 -4 3 2 1 3 12
1532259419281291 12 -2 -6 4 17 -6 -1 3
1532259419406955 4 4 39 28 20 8 1 -9
1532259419468795 -11 18 0 1 2 -1 0 -2
1532259419520661 8 23 -1 2 -1 -1 1 1
1532259419526635 0 -6 12 8 5 2 1 1
1532259419549574 -2 2 -6 -4 -12 -3 -1 3
1532259419572512 38 13 -4 -9 -9 -3 -4 -3
1532259419586476 -8 -10 -2 -2 -4 -2 0 -3
1532259419633366 2 12 8 -2 1 2 -1 -2
1532259419680242 0 2 9 4 2 0 -1 -3
1532259419709147 1 -2 -3 0 1 1 0 -4
1532259419813867 -6 3 -19 1 4 3 3 -2
1532259419886672 1 37 3 1 -3 0 -1 2
1532259420024304 -3 -8 3 7 9 3 -3 1
1532259420077163 9 -1 -12 11 -9 -6 26 5
1532259420142987 -5 -30 58 5 -4 -7 -5 -6
1532259420204837 3 -8 -82 -9 -7 1 -19 5
1532259420231750 -7 -6 39 -2 -5 -5 6 -5
1532259420277627 2 26 3 -3 -2 -2 17 0
1532259420315526 3 0 -31 -8 -5 -6 -37 11
1532259420329488 21 71 35 8 3 0 10 2
1532259420375366 5 37 -5 4 -2 -3 65 3
1532259420429224 -5 -22 -18 7 -5 -2 -24 -4
1532259420504022 1 -8 -62 -32 2 3 11 3
1532259420532945 -6 0 7 6 -1 -2 3 -1
1532259420554886 -24 -43 -16 -20 -5 0 0 -8
1532259420615723 -1 -24 -1 7 1 0 -10 -3
1532259420629685 -2 55 49 13 1 1 -4 0
1532259420690523 7 19 -8 -8 -8 -9 -42 -20
1532259420705483 -33 5 3 2 -3 -5 -10 33
1532259420735403 -6 -26 -3 -6 -7 -3 -8 -20
1532259420764325 10 -8 4 -3 -2 3 22 2
1532259420818182 26 33 32 -16 -8 1 0 7
1532259420856080 15 5 29 12 3 3 9 5
1532259420967783 -1 -5 -8 10 3 -1 11 -2
1532259421035600 -55 0 -24 -9 -5 -4 16 -38
1532259421132341 16 -9 3 2 7 12 38 18
1532259421169243 -25 -25 -31 -59 -9 -8 -24 -2
1532259421195176 -4 21 9 -1 2 6 -19 -3
1532259421221117 -15 -17 -15 -19 -8 -4 4 -8
1532259421244042 5 -1 -1 13 2 -1 12 2
1532259421311861 16 25 16 3 1 1 19 2
1532259421408603 13 17 -5 -5 -7 -3 26 3
1532259421431541 15 -1 -16 -13 -3 0 47 -10
1532259421440518 -6 -25 -14 13 4 -4 -11 -11
1532259421477418 13 4 -11 -12 -1 0 -8 -1
1532259421539260 -17 -17 4 48 11 5 1 -2
1532259421576161 -3 -4 -15 9 0 -2 -8 0
1532259421590124 20 53 14 -4 -4 2 48 1
1532259421667916 -43 39 30 1 3 0 -11 3
1532259421741719 24 111 4 5 6 -3 38 11
1532259421762663 4 13 3 8 -2 -2 -41 6
1532259421791586 28 36 23 9 -1 -1 -5 8
1532259421851425 9 -5 51 8 -3 1 3 4
1532259421874364 9 -17 -25 -11 -5 -3 -3 -1
1532259421934204 -9 -13 -6 -4 -7 -5 -25 -7
1532259421945175 -1 -1 -25 -19 0 2 21 5
1532259422017980 1 -11 -2 4 0 3 -3 0
1532259422047900 -6 -4 -11 10 1 -2 -3 -3
1532259422100759 1 22 11 2 -1 -2 -3 0
1532259422145639 -4 -41 -12 -2 4 19 3 0
1532259422220442 -5 7 4 -5 -5 -9 -3 0
1532259422257340 5 -30 8 -3 -1 -8 0 0
1532259422280279 -2 11 -10 -4 -2 2 0 0
1532259422370038 1 -22 -8 -6 -2 -2 -1 0
1532259422473761 -1 -22 -8 -21 -7 -5 -5 -1
1532259422497697 0 -13 -26 -1 0 0 -1 0
1532259422610406 -5 -24 -8 -13 -11 9 -7 -19
1532259422633334 -15 -18 69 -10 -2 -1 -23 -7

1532259422700156 -3 0 -75 -8 -2 4 1 -7
1532259423008333 -5 -2 -4 1 3 1 -1 -5
1532259423051218 -1 -7 -14 -7 3 2 -2 1
1532259423105073 1 3 7 -9 -5 0 -1 -2
1532259423128012 -2 9 18 -3 -1 -2 -2 -4
1532259423179873 2 -29 -6 2 -1 -1 -3 -1
1532259423209793 -5 -23 -5 -9 -2 -1 0 -1
1532259423268948 -3 12 6 24 3 1 0 -1
1532259423306846 2 13 -2 -6 -2 -1 -1 0
1532259423472404 -3 9 0 -4 -2 1 0 0
1532259423490356 -3 3 -8 1 -2 -1 -2 0
1532259423533241 0 4 1 -3 1 -3 -2 -2
1532259423592852 -4 -2 0 -4 -2 -1 -1 -1
1532259423651695 1 18 6 1 -3 -1 -1 -2
1532259423722924 2 14 2 -1 0 1 -2 -1
1532259423758824 -2 26 21 3 -1 -2 1 -2
1532259423795725 1 14 -21 -11 -4 1 -1 -2
1532259423810686 3 45 20 6 -3 -2 -1 -1
1532259423870525 -2 -8 2 -3 -1 1 0 0
1532259423968281 2 6 6 6 3 -2 -2 -1
1532259424095923 2 -5 -15 0 5 -3 -7 21
1532259424110890 -2 -5 -17 2 5 -25 -6 -8
1532259424185682 -5 5 -12 -7 -2 -4 0 -8
1532259424207624 1 3 17 -4 -6 -6 0 3
1532259424297384 -1 -14 -17 6 2 2 0 1
1532259424350248 -3 -36 0 -12 -5 -3 -1 1
1532259424439005 6 -10 2 -4 -3 -3 -1 1
1532259424469922 -3 -16 -5 3 3 1 1 2
1532259424484882 2 -26 4 -1 1 -2 -2 1
1532259424515800 -2 18 10 8 3 3 -2 0
1532259424545720 -1 13 3 8 1 0 -1 2
1532259424567660 -2 -2 -2 -2 -9 -3 1 0
1532259424582621 -6 2 -1 -1 6 3 0 -2
1532259424605561 5 28 5 1 10 4 0 2
1532259424628499 2 -26 14 43 14 8 1 0
1532259424642461 -2 2 -12 -24 -25 -7 -1 0
1532259424679363 2 -3 18 -2 -8 0 2 0
1532259424702301 1 5 31 15 -15 -2 -2 -1
1532259424739203 0 3 11 2 3 -1 -2 -1
1532259424769122 0 -9 -14 1 17 5 2 -1
1532259424785080 2 -10 -9 -11 -6 -1 0 3
1532259424844920 -4 -13 -6 -5 0 -2 -1 -1
1532259424888817 0 6 4 0 0 -1 0 4
1532259424996514 -8 2 1 0 0 -1 -4 -16
1532259425054360 -9 7 -7 4 1 -6 -4 10
1532259425257816 3 -30 -43 -17 -4 -5 19 65
1532259425280755 30 9 13 -1 -6 -1 9 6
1532259425309677 52 20 14 9 5 3 1 -8
1532259425369517 -24 8 5 -2 -3 -7 -13 20
1532259425400434 -24 4 9 1 0 2 -14 -33
1532259425453293 17 1 2 0 -2 -2 21 0
1532259425467256 -1 -7 24 2 2 0 -11 -12
1532259425490194 6 15 7 2 1 2 4 0
1532259425527096 -10 -9 -7 -1 2 -1 -2 -1
1532259425549036 1 9 1 -3 -2 0 -2 -3
1532259425586935 -10 -5 -4 0 0 -2 3 -1
1532259425625832 -4 -28 -15 0 0 1 -8 -5
1532259425646776 1 -15 -10 -1 5 0 0 -4
1532259425684674 -4 -41 -17 -1 0 1 3 -1
1532259425760472 -7 0 7 0 -3 -2 -2 -4
1532259425806349 -4 30 -19 -1 -2 -4 -6 -5
1532259425874168 5 19 6 -3 -7 0 5 2
1532259425955949 -2 -4 -15 -4 -8 -8 -9 -13
1532259425977890 -6 -3 5 8 15 4 -8 -4
1532259426029751 -9 -5 -7 3 -9 4 10 11
1532259426051693 6 4 -4 1 -6 7 13 3
1532259426096572 -6 76 -15 -3 -14 -7 -12 -5
1532259426123501 8 -26 13 -1 11 2 5 1
1532259426166403 -28 52 -6 -6 -1 -4 -9 -10
1532259426187331 -6 -56 -23 -3 -1 -1 -3 -4
1532259426225229 -7 -21 -3 0 1 -3 -15 2
1532259426248168 -7 6 -40 -8 -4 -4 -5 -30
1532259426309005 5 10 49 4 1 2 1 3
1532259426330946 -6 -2 25 2 3 -2 3 4
1532259426366850 -6 -4 -29 -5 1 0 -3 -16
1532259426390789 -8 -5 10 -1 3 -5 13 1
1532259426449628 -3 7 40 1 1 -1 5 7
1532259426616184 -3 -11 -19 9 -3 2 -4 -1
1532259426667047 7 5 58 9 9 6 0 4
1532259426743842 26 85 40 -7 -2 9 -3 7
1532259426780743 -2 -11 11 -8 -8 2 4 7
1532259426811667 -5 -68 17 7 -1 5 2 1
1532259426871501 3 -16 1 1 -3 1 0 1
1532259426885463 1 -7 -13 -12 2 2 1 4
1532259426969239 1 -13 -4 -2 -4 0 -1 -4
1532259426999159 -6 -6 0 2 1 3 6 0
1532259427014119 5 2 -9 3 -1 0 -2 -4
1532259427117842 2 -5 8 -22 -14 4 1 2
1532259427192641 -4 8 -4 -16 4 4 0 0
1532259427241511 3 4 -21 -13 -6 4 4 3
1532259427366178 7 1 10 15 26 2 -1 10
1532259427418039 -15 -36 -10 -1 3 2 -3 3
1532259427478876 -23 27 -13 -8 -9 6 -1 -3
1532259427543705 -1 12 6 2 1 3 -1 -1
1532259427567639 16 29 -7 -2 -5 5 -3 4
1532259427628476 -1 -16 1 0 -1 -4 0 4
1532259427680338 6 4 2 0 -1 0 -1 -2
1532259427845906 26 77 23 9 -4 -1 2 2
1532259427919698 0 12 6 8 8 -1 13 -11
1532259427994498 -9 -1 32 -3 7 1 -21 -3
1532259428003473 -1 0 35 4 -16 -6 2 -8
1532259428025415 -8 14 12 4 5 3 20 -3
1532259428048354 9 -9 -44 -2 4 1 23 53
1532259428078273 11 8 18 6 0 0 35 9
1532259428100215 -7 2 21 6 -1 -1 -13 0
1532259428138114 0 14 10 1 0 -2 -9 -12
1532259428154076 -24 -13 -8 -3 -5 -1 30 -6
1532259428183991 2 -8 7 -1 2 0 -13 0
1532259428199956 5 21 50 6 -2 1 -8 -1
1532259428234855 4 27 21 3 -1 -3 -21 1
1532259428301675 17 5 -58 -16 -8 -4 -19 14
1532259428410395 -14 -22 -7 -4 5 2 -18 -2
1532259428439308 12 24 83 61 8 4 1 3
1532259428476209 2 33 -12 40 12 5 14 2
1532259428489174 -2 -21 -4 -11 -2 2 -5 1
1532259428512113 7 -22 -50 -15 5 8 -2 2
1532259428534055 -7 -27 -35 -5 -2 3 -1 -2
1532259428603877 9 30 35 6 1 -4 0 -6
1532259428638775 -31 -10 -10 11 18 4 -2 -102
1532259428661715 4 -3 -15 -10 -9 -9 -8 1
1532259428679666 -2 -12 -6 4 2 3 20 38
1532259428715569 1 -7 11 71 16 1 -10 6
1532259428738508 6 -18 -1 -15 -9 -5 71 25
1532259428751473 -9 -3 -26 -19 -5 0 16 -4
1532259428828268 -4 -7 8 16 4 1 44 2
1532259428858188 -31 46 10 11 4 2 8 2
1532259428954929 -3 -13 -3 -7 -6 -13 -104 -48
1532259429007788 17 2 1 -6 -2 -1 -14 -21
1532259429032721 -22 -27 -16 -21 -9 -3 -18 -23
1532259429106524 8 24 -6 -11 2 3 -1 -12
1532259429135446 -10 -20 -7 5 1 3 5 -4
1532259429219223 38 61 16 -3 -10 -8 19 11
1532259429241164 -13 -13 -11 -1 6 11 -13 -23
1532259429254130 -12 -45 11 5 -3 -9 -31 -69
1532259429293025 2 21 1 -3 2 10 -17 -12
1532259429383782 -8 3 -6 -11 -9 -9 -8 -1
1532259429419687 -37 -46 26 16 7 2 -9 -8
1532259429495484 -2 -11 14 -3 0 2 -35 0
1532259429540364 -23 -59 -13 -6 -2 -1 3 -46
1532259429554326 16 -1 1 0 -1 -5 20 45
1532259429697943 -5 -17 7 39 12 4 16 3
1532259429772742 24 25 13 -6 -6 -3 9 9
1532259429839563 5 3 -2 3 3 1 7 4
1532259429922342 7 8 5 1 0 -8 1 9
1532259429951264 4 -9 2 1 -2 -10 -1 2
1532259430005121 7 65 15 4 -3 -8 5 -1
1532259430043019 3 -4 2 -2 4 12 1 -1
1532259430118817 3 12 3 -2 0 1 -1 -11
1532259430320278 -6 -31 -10 1 1 4 6 5
1532259430546673 8 26 -20 8 -7 -2 2 13
1532259430559638 -4 -28 82 -12 -7 -14 3 0

1532259430582577 4 42 5 -1 2 -5 -2 -3
1532259430621473 -8 -16 1 -10 -2 -4 -3 -4
1532259430673343 -1 12 -18 -7 0 -2 0 5
1532259430733174 -3 -15 -2 -2 -1 -4 1 -3
1532259431252807 0 -6 -8 -3 -2 -3 0 1
1532259431325541 -2 -17 36 1 0 0 0 2
1532259431542989 -2 7 -39 3 -1 -2 1 3
1532259431587869 0 -4 0 -4 -1 -3 2 2
1532259431639731 2 -12 2 -3 -2 0 0 0
1532259431722512 0 6 -1 -1 1 -1 -2 -2
1532259431866125 2 8 -3 -4 -1 3 1 0
1532259431931949 0 -6 -2 -1 -2 -1 -1 -1
1532259432224254 2 -8 -7 0 0 -1 -2 0
1532259433101913 -1 -1 -5 -3 -2 -2 -1 -1
1532259433169732 -1 -2 -4 -1 -2 0 0 -2
1532259433269465 -2 -17 -3 -1 -1 -2 -1 -1
1532259433589609 0 -5 -3 -4 -2 -1 -1 0
1532259433718266 0 -30 -13 -1 -1 -1 0 -2
1532259434034286 -1 0 -1 0 1 2 -1 -2
1532259434355427 -3 -3 -2 1 -1 -2 0 -1
1532259434834239 -1 -5 1 -1 -1 0 2 -1
1532259434912053 -3 -3 -5 1 2 3 1 -1
1532259435006799 0 12 4 1 -1 -1 -1 -3
1532259435096754 2 1 -6 2 3 1 1 0
1532259435293227 -2 3 -5 -3 0 -3 -1 -1
1532259435347084 1 -17 -2 -2 -1 -1 -3 1
1532259435398945 -3 1 -5 0 -1 -1 -2 -2
1532259435463772 1 -27 -4 -1 0 2 -1 -1
1532259435592430 -4 14 0 0 -1 0 -1 -1
1532259435667228 -3 -10 -3 1 -1 -3 -1 -1
1532259435801868 -1 0 0 0 -1 0 1 0
1532259435894620 1 -7 -3 -1 0 0 -1 -1
1532259436028263 0 6 0 -3 -1 -1 -1 0
1532259436170881 -1 -31 -5 -2 0 -4 -2 -4
1532259436299005 0 14 -2 -2 -1 -1 0 0
1532259436356851 3 0 -1 -3 -1 0 -1 1
1532259436635978 -1 0 2 0 0 0 0 -1
1532259436679862 0 15 4 1 -1 -1 1 0
1532259436734714 0 3 2 -4 -1 1 1 -1
1532259436755659 -6 3 5 4 0 -2 1 0
1532259436929194 0 -10 -5 4 2 -1 0 0
1532259436958117 -3 2 -7 4 2 -2 0 -1
1532259437107717 -3 -8 -9 -8 -1 -2 -1 -2
1532259437169552 6 -13 -10 -5 -1 -1 1 1
1532259437220421 0 5 18 -2 1 -1 -2 -1
1532259437265295 1 1 -6 -2 -2 -2 0 0
1532259437280256 -2 5 -3 -4 1 -2 -1 0
1532259437317157 2 16 -1 -3 -4 -7 1 0
1532259437392968 0 14 9 -3 -3 -2 1 -1
1532259437430853 -3 -16 -15 -2 -1 1 -1 -4
1532259437617371 11 -3 -6 6 -1 -40 -1 -3
1532259437670213 7 -14 -12 -1 -2 -28 2 6
1532259437685173 2 -23 -14 -13 4 -1 5 3
1532259437767952 0 -14 -3 5 0 -2 -1 3
1532259437836767 -9 2 11 3 -5 -12 -7 -3
1532259437917551 -4 2 0 -7 -3 -2 1 -2
1532259437977392 -1 0 4 -2 -1 0 -1 -1
1532259438000330 -4 -20 -14 1 -2 -1 0 -1
1532259438091088 -9 -11 2 3 -1 -3 -2 0
1532259438112032 -2 -11 -7 -10 -3 -2 0 -1
1532259438150934 2 -4 -4 -11 3 1 1 0
1532259438502987 14 -8 -2 1 0 -5 -7 -5
1532259438519941 -2 -23 -22 -5 -4 -2 3 20
1532259438569807 4 -4 -2 1 4 2 -33 -2
1532259438592746 32 19 2 0 -1 -1 8 1
1532259438669541 45 7 -9 -3 -1 -1 -6 28
1532259438727386 -3 -5 -6 -5 -1 -4 0 4
1532259438764288 -6 4 4 4 3 4 44 -6
1532259438803183 14 0 -13 -7 -2 -1 -32 0
1532259438834118 44 -3 -2 -1 -2 0 -49 42
1532259438878982 -21 4 -2 -3 -2 -3 15 22
1532259438907904 -18 -7 0 0 2 -2 -6 -10
1532259438946799 -1 -3 0 1 0 -1 4 -18
1532259438962757 17 -8 -13 -6 -2 0 34 -1
1532259439012623 11 -2 -2 0 2 0 -24 -8
1532259439082437 8 -48 -3 0 1 -1 -6 6
1532259439149265 4 24 5 0 -1 2 -4 -2
1532259439224058 0 19 4 -4 -2 -2 -1 -2
1532259439297861 -1 7 -2 -30 -7 -7 -3 -2
1532259439319819 -5 35 2 1 -18 -2 1 -1
1532259439350719 3 -23 -2 -1 5 -1 -7 -1
1532259439372661 7 -4 -1 -5 6 23 4 1
1532259439439482 8 6 -13 8 40 4 43 8
1532259439462420 8 -5 -6 4 -23 -2 -4 9
1532259439500320 -27 -6 -3 0 103 9 -20 -20
1532259439524255 31 -19 -9 -7 -70 -11 -5 5
1532259439607034 2 22 16 14 6 1 -9 -6
1532259439636954 4 10 15 1 1 0 -2 6
1532259439650924 9 -21 -1 3 4 2 4 5
1532259439702778 -16 -9 -21 1 -2 -3 -7 -8
1532259439719733 -1 30 1 -3 0 -2 -1 19
1532259439764617 21 -11 -4 0 1 -1 3 3
1532259439829439 6 -11 20 6 2 0 -1 -5
1532259440003973 5 3 -30 4 -1 -19 6 8
1532259440031897 3 10 0 -18 -20 0 4 1
1532259440115674 8 47 8 12 -32 1 -13 -3
1532259440152575 0 -49 21 29 -6 -1 -2 -1
1532259440184490 0 31 -7 -38 17 3 -8 3
1532259440189477 -23 -10 0 4 -10 2 -7 -2
1532259440227375 8 -3 -40 -12 10 1 -4 -1
1532259440243332 1 30 12 0 6 -2 24 1
1532259440273252 -8 -8 3 2 1 -2 -7 -7
1532259440297188 14 -9 3 2 -4 -2 -9 -17
1532259440309156 0 53 -1 -5 -3 1 5 8
1532259440324116 -21 0 10 -1 3 1 -3 -6
1532259440348052 7 -6 -3 -4 -2 -3 -24 -2
1532259440384954 4 0 8 1 0 -2 -16 3
1532259440408890 1 19 -1 -4 -1 -3 -1 0
1532259440437812 13 -11 -8 -4 -2 -2 -1 4
1532259440467732 8 -11 1 -6 -3 -9 4 2
1532259440512613 5 -18 10 -8 -11 -3 -2 2
1532259440612346 -7 10 15 -6 -21 -9 -16 -1
1532259440626308 -4 -7 7 -11 -2 1 -2 -2
1532259440664207 3 58 21 -13 -17 -4 -8 -4
1532259440721055 2 -32 -37 -20 3 -4 -14 -3
1532259440738010 3 21 -3 -26 -39 -5 -3 -4
1532259440791866 7 28 -2 12 -28 -2 -7 0
1532259440851705 -8 -5 4 10 19 0 -6 -1
1532259440896585 7 9 0 2 8 2 0 0
1532259440925508 5 18 8 -2 -5 -2 -6 2
1532259440970388 -9 2 1 -1 2 -1 0 1
1532259441015268 7 5 8 -2 2 -2 -1 0
1532259441081092 -8 -33 3 -6 -4 -1 3 5
1532259441165865 20 22 -19 -23 2 -1 4 3
1532259441317461 -7 -23 -7 -24 -20 -8 1 -2
1532259441376303 0 3 -2 -12 -10 -1 -23 -5
1532259441428164 -1 17 5 4 25 2 -18 -5
1532259441466063 16 22 35 8 2 -5 8 29
1532259441488016 -7 5 2 8 11 1 -32 4
1532259441554827 -2 24 17 -3 -3 -9 -22 -10
1532259441569785 4 -16 -22 -3 3 2 -12 5
1532259441607684 -14 -42 -34 -5 -2 -14 1 -3
1532259441629625 11 19 -59 4 0 -3 -29 3
1532259441696446 -14 -30 25 5 8 23 -9 -4
1532259441720383 -8 -12 -19 6 5 0 30 -14
1532259441741327 19 25 -2 -3 4 5 -9 10
1532259441772244 13 25 20 -10 0 4 -41 5
1532259441796180 9 5 4 23 9 5 -1 3
1532259441908879 -8 -29 -33 -31 -6 -1 13 1
1532259441932815 -7 -41 -85 10 11 9 -12 1
1532259441936804 11 28 51 3 -3 -4 -2 -7
1532259442005620 20 22 -16 -1 1 4 36 31
1532259442035540 -14 -3 17 -22 -40 -16 30 4
1532259442057481 -4 19 11 121 -6 6 -14 24
1532259442147240 -7 -8 -6 -27 -8 -7 -5 -5
1532259442162201 2 -16 -57 1 8 7 -24 2
1532259442208079 6 57 50 -8 -2 -7 35 1
1532259442230020 -35 -69 -43 -2 8 5 -7 0
1532259442259939 -14 51 41 -8 -10 -23 5 -14
1532259442283875 3 -76 9 -7 1 -1 -3 -4
1532259442312798 24 20 8 6 4 -4 -29 9
1532259442334740 10 10 -7 -1 -5 7 30 -8
1532259442352692 4 -8 -5 -10 -16 -39 -4 -11
1532259442388596 5 -4 33 9 4 -21 -12 -9
1532259442411534 -9 -16 -46 -9 -2 -14 -17 5
1532259442424500 -6 10 6 -12 -7 -13 -6 -1
1532259442463395 4 -20 -47 11 7 -9 1 -2
1532259442477358 -6 21 1 -16 -7 -6 -12 -8
1532259442538196 9 4 14 0 4 5 -5 -14
1532259442560137 -21 -36 -74 -2 -5 -9 -8 -20
1532259442566120 -26 -23 -20 2 0 -5 15 9
1532259442628953 -26 -44 -17 0 5 9 23 -6
1532259442649911 15 6 -20 -8 -3 -8 -24 9
1532259442703752 -8 -3 11 29 0 2 1 -8
1532259442762595 8 -36 -28 -6 0 -3 21 6
1532259442839390 9 16 14 -6 -5 -1 -13 4
1532259442906212 1 -26 -20 -8 -1 -4 -2 -35
1532259442935134 -6 -23 -14 -11 -6 -1 -20 4
1532259443018910 -6 15 5 10 2 -3 -2 -8
1532259443068777 -8 -24 -19 9 3 4 21 -4
1532259443159534 -5 -34 -25 0 2 0 -2 0
1532259443177487 8 12 -4 8 4 1 12 1
1532259443310131 4 35 4 1 1 3 -3 4
1532259443393907 3 32 7 -2 0 -4 -1 0
1532259443422830 4 18 9 4 -1 -14 -3 -3
1532259443497630 -5 -10 -15 5 4 1 1 1
1532259443640248 -7 -14 -25 12 7 2 3 1
1532259443789849 -7 -13 95 -23 -13 24 7 5

1532259443835725 -1 -21 -18 9 0 5 1 1
1532259443917507 2 2 -10 7 0 5 0 2
1532259444045174 1 -5 -13 -7 -5 -4 -1 -3
1532259444127952 0 6 -1 -6 -2 1 1 -2
1532259444144923 1 -2 4 1 -2 -1 1 0
1532259444255611 -1 0 4 -6 -1 1 -2 -1
1532259444313946 -8 23 1 2 1 -1 -1 -1
1532259444359823 2 -4 1 -2 -1 -2 -1 -1
1532259444435621 -5 10 14 -1 0 -1 -2 -3
1532259444487481 1 -6 -6 -2 -2 -2 0 0
1532259444540341 -1 -11 -4 -1 1 1 3 0
1532259444606164 -1 -4 0 0 -1 1 -2 -1
1532259444645061 0 -2 -24 -4 -1 -1 -1 0
1532259444771009 -1 -10 3 -4 -1 3 0 1
1532259444839816 -1 -12 13 2 1 0 2 -1
1532259444884697 -5 -13 13 -3 0 1 -3 -5
1532259444922603 -7 -25 -32 -3 2 5 1 1
1532259444959497 2 8 7 2 4 2 -2 2
1532259445019337 -7 -57 -6 1 -4 -26 -4 28
1532259445061225 4 44 11 -1 -10 -40 -5 -29
1532259445103112 -8 7 26 1 0 12 -2 -1
1532259445140014 -2 3 91 2 -6 -1 -4 -2
1532259445207833 0 -6 16 3 3 5 0 1
1532259445335491 -3 -21 -5 -2 1 2 0 0
1532259445417272 2 21 -18 13 -8 1 0 0
1532259445463150 -2 -5 -4 -13 -8 -2 -1 -2
1532259445478110 -1 1 8 -7 -3 -2 0 -2
1532259445500051 2 7 13 7 7 0 3 2
1532259445538946 -4 -3 8 0 -4 0 0 -1
1532259445566872 0 2 8 12 1 2 -1 1
1532259445589810 0 -11 5 -3 -2 -3 -1 -1
1532259445605768 -2 -3 -9 -10 -2 1 -1 0
1532259445656632 -1 3 10 -2 -2 0 -1 -2
1532259445710488 -2 -2 5 2 0 0 1 -1
1532259445743401 4 0 25 9 15 4 3 7
1532259445825182 -4 5 -2 -11 16 3 2 3
1532259445884024 -6 -12 -7 -10 -12 -4 0 1
1532259445943864 -3 -37 -22 1 7 1 -3 -14
1532259445958824 -51 -1 -8 -3 -2 -6 -8 -17
1532259445979768 19 11 -7 0 0 0 9 40
1532259446018664 18 34 -8 -2 -1 1 3 12
1532259446070543 -13 9 -1 -9 -4 -1 -3 -24
1532259446154302 -3 18 13 -2 -4 -1 0 -3
1532259446183224 3 10 12 4 -4 -2 2 -2
1532259446237081 13 4 1 3 0 2 -2 25
1532259446287945 -5 3 11 2 1 0 -9 -5
1532259446340803 11 6 1 -3 0 2 7 14
1532259446376707 -26 3 9 -1 -5 -5 -14 -37
1532259446424579 23 9 1 0 -1 -5 -11 -10
1532259446459485 75 1 -7 -3 0 9 30 71
1532259446521320 9 -41 4 6 3 -11 -8 21
1532259446543273 -84 -5 -15 -17 -8 -6 -1 -48
1532259446579165 8 15 -3 -3 -4 -7 -36 -12
1532259446603104 15 27 -12 -12 -4 -2 -2 8
1532259446669923 0 7 7 4 1 -2 0 -8
1532259446691864 5 8 3 0 -2 -2 -13 -6
1532259446723779 -9 9 3 0 1 3 2 -2
1532259446745720 -3 -19 -8 -3 -2 -5 -1 -1
1532259446782627 2 10 -2 -6 2 1 -3 -2
1532259446811544 1 13 -3 9 -8 -4 -4 1
1532259446831491 -1 21 0 -17 -2 -1 0 0
1532259446850440 7 32 8 4 1 1 1 1
1532259446865400 -4 -44 -7 1 11 0 0 -1
1532259446909282 2 43 9 -6 9 -6 -7 0
1532259446939203 1 -13 -30 -4 -2 -3 1 2
1532259446993059 -7 -8 16 5 -9 7 -3 -2
1532259447067858 16 -4 32 7 13 0 1 5
1532259447113736 -4 11 -12 3 -6 2 15 2
1532259447157619 15 2 -6 16 2 6 -8 6
1532259447204519 -7 1 8 2 -22 -4 -5 -14
1532259447232444 0 -94 1 -8 -16 -7 -47 2
1532259447263361 10 7 12 -1 -10 -1 -6 7
1532259447285302 21 50 -19 -5 -9 0 3 1
1532259447308241 -2 6 4 -5 -11 -3 4 -1
1532259447330182 31 -3 -5 -6 -8 -1 2 6
1532259447345143 9 48 8 1 -3 3 -3 0
1532259447404983 -3 0 4 -7 -6 -2 3 -6
1532259447422948 -14 -17 -16 -2 0 -2 1 -7
1532259447449862 -2 10 3 -3 -3 3 5 -2
1532259447472801 31 -2 11 4 4 2 7 23
1532259447549596 -21 5 18 1 -3 -3 -4 -11
1532259447685233 -6 2 46 -1 0 -5 13 5
1532259447701190 4 -5 -60 -1 1 -3 1 1
1532259447774994 1 -19 -115 -12 -1 -8 -5 7
1532259447827852 -6 17 -2 11 4 21 -2 5
1532259447878716 7 -16 27 4 -8 -7 4 -4
1532259447913622 -3 18 -20 7 3 -1 6 4
1532259447955510 19 -19 13 -1 -1 -1 1 1
1532259448012358 12 22 -18 -3 -3 0 -3 -1
1532259448102118 -3 -7 -18 -4 -1 12 0 3
1532259448186898 -1 -18 -12 2 -1 3 -26 2
1532259448306572 -12 13 34 2 -8 -4 9 -4
1532259448380374 -17 1 0 -15 37 3 9 -9
1532259448416278 1 -7 8 -5 -19 -8 0 1
1532259448431238 -7 45 21 6 -11 -2 -6 0
1532259448457175 -15 -12 3 -6 4 2 -7 -5
1532259448493077 -15 10 -6 -5 -9 -3 -12 -4
1532259448507036 -5 -5 -23 -9 -2 -1 -3 -5
1532259448529983 4 -43 2 -6 -10 -4 2 0
1532259448590820 -41 1 -9 3 -1 0 -4 -11
1532259448603786 -14 2 -7 1 2 0 3 -1
1532259448635701 -24 -7 9 11 -2 0 -1 -11
1532259448696538 10 24 9 1 -1 0 -2 -1
1532259448734436 3 -4 -7 -3 -1 0 -4 -18
1532259448762362 -12 -4 2 -1 0 1 -2 4
1532259448809237 -6 -13 -1 0 -1 0 -3 0
1532259448838159 1 11 31 16 5 -3 -7 1
1532259448912959 1 -12 -18 -4 -2 1 -1 -18
1532259448987759 3 -4 -4 -10 -10 -5 4 -2
1532259449010698 5 10 10 4 -1 1 -2 2
1532259449038622 9 2 -5 -5 11 4 9 2
1532259449070537 6 4 -14 -1 -4 -2 23 -3
1532259449107439 -8 -16 35 -6 2 -2 -9 -1
1532259449138357 7 -6 -44 -7 0 3 18 -4
1532259449250057 -2 -18 5 -4 0 30 -63 -3
1532259449264020 5 3 17 2 1 -2 45 5
1532259449286959 -27 -39 32 -11 -6 -10 -38 -52
1532259449325871 2 -8 -64 -9 -4 4 22 -32
1532259449340815 -3 -18 -4 3 2 -8 -22 -16
1532259449361759 -8 -19 0 0 -3 -2 6 9
1532259449392676 24 6 -18 7 -1 -6 12 11
1532259449415615 -3 6 -23 -10 -6 1 24 4
1532259449436575 -16 -12 -27 -25 -11 -14 -8 -11
1532259449475455 -28 -29 -12 -13 1 -1 -1 -6
1532259449490415 50 89 72 24 10 4 18 15
1532259449527316 -6 -28 1 12 -4 -4 -20 -10
1532259449551252 -22 -26 -44 -18 -2 -2 -6 -4
1532259449573194 9 69 38 2 -1 1 6 6
1532259449618074 -3 -22 -31 -9 -3 -8 7 29
1532259449640015 19 19 -33 -2 -2 -5 0 13
1532259449701850 4 -28 -47 -4 -5 -6 -9 -8
1532259449708832 -53 -40 -3 0 1 3 -41 14
1532259449752713 -5 -30 -4 -3 4 2 10 11
1532259449758697 32 26 14 16 5 2 1 3
1532259449797593 -31 -59 62 13 3 0 19 -4
1532259449827514 23 14 12 10 7 1 -3 10
1532259449894334 2 -3 16 6 -1 -3 28 -3
1532259449903323 4 34 68 18 -3 -1 -3 -3
1532259449946196 -11 51 6 -1 3 4 -23 -40
1532259449971130 -15 -7 -16 -4 1 2 4 19
1532259450006036 4 -28 7 3 5 10 42 3
1532259450029972 14 21 -2 11 9 4 -15 -38
1532259450097791 20 39 69 -9 -4 -5 -39 14
1532259450120733 -17 -29 -10 -2 2 1 -9 11
1532259450186553 7 -34 -53 -16 -4 5 12 5
1532259450210490 32 27 28 -5 2 -17 -4 11
1532259450246393 -6 11 6 -5 0 10 13 -11
1532259450353107 16 15 -8 9 3 6 -18 31
1532259450383028 -1 22 0 -1 -4 -6 -74 -19
1532259450457828 -1 -9 10 8 -5 -3 -9 -7
1532259450472787 -20 -22 -3 -15 -2 -1 26 3
1532259450516671 5 -2 -5 -15 -2 0 2 3
1532259450607427 -5 68 37 21 14 11 16 -14
1532259450615406 -26 -42 8 0 -1 -1 -14 -59
1532259450638350 6 62 3 2 -4 -8 -6 13
1532259450675247 10 -18 -17 4 11 12 16 36
1532259450779966 8 -2 6 -1 2 6 5 0
1532259450802905 18 3 26 -3 -3 -3 8 2
1532259450854767 -5 14 0 -16 -4 0 -15 -3
1532259451065204 -2 -31 -3 0 -5 -7 2 3
1532259451146984 3 -15 10 12 2 -3 1 0
1532259451170935 -13 4 -3 -14 -3 2 0 -2
1532259451259683 0 19 -3 2 2 4 -1 0
1532259451320522 -2 -42 -29 7 3 4 3 -1
1532259451357422 0 29 1 -4 -3 0 0 1
1532259451409284 -1 -20 6 -5 -2 -3 -3 -1
1532259451509017 -13 -63 8 4 -2 -8 8 -10
1532259451561892 10 -4 -40 6 -3 1 7 6

1532259451582819 11 3 -38 -3 1 -4 3 5
1532259451642667 0 -13 2 0 0 -1 3 5
1532259451657626 0 -4 14 -8 -1 -2 -6 -1
1532259451696522 1 4 -3 -64 -13 2 -1 0
1532259451754384 -5 1 6 -11 -2 5 -2 -8
1532259451823014 -5 -13 18 -4 -3 0 -1 -4
1532259451874875 -2 -12 -8 -6 -2 -1 -1 0
1532259451911778 -1 -12 -10 4 0 1 2 2
1532259452062706 2 -9 -9 -5 -1 1 1 0
1532259452076668 0 32 -1 -5 -1 0 2 2
1532259452099607 1 -9 1 3 2 1 -3 -1
1532259452167426 -2 -15 2 -3 -1 -2 -1 -2
1532259452197346 -2 -8 -6 -5 -3 -3 -2 0
1532259452227266 1 -2 2 -3 0 -2 -1 -1
1532259452317026 -2 -3 -3 -1 -1 0 1 0
1532259452378861 -1 2 3 -2 -1 -4 -2 -2
1532259452421753 -3 -27 -27 -1 -2 -2 2 0
1532259452468620 -4 -24 -1 3 0 -2 -2 -4
1532259452488567 -4 -3 -3 -5 -2 0 -1 -1
1532259452552403 0 33 39 0 1 -1 0 1
1532259452595282 0 18 7 0 0 -1 -2 0
1532259452619238 -1 2 -3 -5 -3 -2 -2 -3
1532259452656149 1 4 2 -15 -5 1 -1 -1
1532259452685063 2 -22 -11 -5 -1 0 1 0
1532259452694039 -1 15 -3 2 4 -1 -1 0
1532259452745907 1 9 11 6 2 0 -1 -1
1532259452751884 -5 -19 8 7 1 -3 -1 -1
1532259452820713 1 33 20 3 0 7 3 22
1532259452833665 -14 -63 -10 -8 -23 -32 17 -93
1532259452872561 -18 -37 -25 0 4 -44 -15 -3
1532259452910460 2 28 -90 5 3 33 -2 -5
1532259452971298 -2 47 96 -15 -7 3 4 -13
1532259453032134 -1 -2 -3 -1 2 7 0 0
1532259453038118 2 -9 -17 -4 -3 -3 -3 -2
1532259453062055 -4 3 -2 -1 -1 8 1 2
1532259453084013 -4 -9 15 22 8 3 -1 -2
1532259453096961 -2 -22 -4 -3 0 -1 0 -2
1532259453119899 3 16 -4 -4 -1 0 0 0
1532259453149820 -4 1 -4 2 -3 0 -2 0
1532259453180737 1 -12 -6 0 2 1 -1 0
1532259453209660 -4 1 6 3 0 2 1 -1
1532259453228609 -5 -4 -1 5 3 0 1 1
1532259453262518 -7 -55 -10 4 1 1 0 0
1532259453300422 -3 1 5 7 1 -1 0 -1
1532259453368235 -2 -11 -2 1 -2 -1 -2 1
1532259453397159 0 -17 -11 -7 -2 -9 -3 -2
1532259453443036 -7 -27 0 -2 -1 0 -2 -3
1532259453456998 2 3 5 17 9 6 6 1
1532259453478940 1 4 -12 -11 -5 0 -1 -2
1532259453501878 -2 9 -29 -16 -5 -4 -2 -2
1532259453516839 6 14 29 12 5 3 2 1
1532259453540776 0 1 -16 1 0 -1 -1 -1
1532259453576678 0 11 -2 5 0 0 0 -1
1532259453630534 4 16 16 -2 -2 -2 -2 -1
1532259453653473 0 2 -14 0 -3 1 -1 0
1532259453696358 0 3 -13 1 -1 2 -2 1
1532259453728273 -3 0 -10 -2 0 -3 -1 0
1532259453756199 -7 2 -4 -3 1 -1 0 -1
1532259453805068 8 -14 25 4 1 -1 2 2
1532259453816038 4 14 74 8 0 -2 0 3
1532259453967633 -6 37 6 1 0 7 4 -14
1532259454059387 13 19 -5 -3 1 -1 6 6
1532259454102273 69 -19 -71 0 2 13 -8 -1
1532259454110252 -50 -1 23 -6 -6 -14 -60 -22
1532259454224944 -6 3 -8 4 5 2 1 -9
1532259454244891 13 15 9 0 -3 -3 -11 -8
1532259454304731 -13 5 15 -1 -2 -2 4 -16
1532259454319692 9 2 -5 1 -1 -4 3 10
1532259454365569 9 -8 -1 0 1 0 3 0
1532259454386513 -3 -3 0 6 2 2 -5 -1
1532259454425409 -5 4 2 -1 -1 -2 -8 0
1532259454485249 -1 11 3 1 3 1 2 1
1532259454508187 -5 4 9 3 3 -1 -5 -3
1532259454560049 -2 -7 3 1 -3 0 -5 -2
1532259454575008 0 -3 -6 -4 -2 0 -3 -1
1532259454701670 -1 -4 2 -3 0 0 -2 -2
1532259454764502 -3 -43 -2 -3 -4 -1 0 -1
1532259454807387 -1 -6 -14 5 12 6 -1 -1
1532259454822347 0 5 10 -5 -9 -5 -4 -1
1532259454914102 0 3 4 -2 10 0 -1 -1
1532259454945019 -8 8 -12 1 4 1 1 -3
1532259455001867 -5 15 10 -9 -6 -1 -24 1
1532259455041761 15 -4 -3 -3 1 14 13 4
1532259455106587 16 -25 -9 1 -1 -1 -4 8
1532259455167424 -5 17 -13 -7 -3 -1 9 -1
1532259455205323 8 -4 5 -5 -2 -1 11 -2
1532259455227264 18 4 -18 -8 -1 -5 -3 0
1532259455309045 -5 -11 -5 -4 0 1 5 0
1532259455353925 5 1 1 -2 -3 -5 0 7
1532259455481584 -7 2 -13 -4 -2 1 -3 2
1532259455519483 -21 -31 11 14 3 8 -2 -3
1532259455551404 7 2 19 18 15 11 2 4
1532259455595288 5 46 -18 -24 -23 -13 -3 7
1532259455672083 -17 -83 -14 24 -54 1 5 -3
1532259455692029 1 17 19 34 127 34 4 7
1532259455730925 -6 61 0 15 2 -5 -7 -4
1532259455767826 0 -10 0 -11 13 9 -6 -5
1532259455805725 0 54 8 -7 6 3 3 11
1532259455829661 -7 11 12 -7 -8 1 -1 1
1532259455850605 -24 2 -2 -10 -2 0 2 6
1532259455871549 -5 3 -9 -3 1 0 0 -1
1532259455940365 1 -24 3 4 0 0 3 -2
1532259456127863 -3 -8 -3 -22 12 -5 -1 0
1532259456277463 5 7 11 21 20 2 -2 3
1532259456301400 0 -3 -5 3 36 2 -1 1
1532259456346279 -3 20 7 -22 -10 -1 1 -2
1532259456353261 9 38 3 -1 15 3 -1 1
1532259456419085 -2 -5 -2 -4 -2 -1 0 3
1532259456437045 16 1 -5 -5 2 0 -2 -1
1532259456503857 7 -3 -1 -1 -1 -3 1 2
1532259456540759 4 -21 1 -10 20 2 1 3
1532259456646476 -8 -22 0 57 0 -3 -5 -8
1532259456714295 -14 3 5 -6 4 0 -2 1
1532259456773138 1 -12 50 4 -15 -1 1 0
1532259456780119 -5 12 -12 9 -4 -5 -14 -11
1532259456832977 5 5 -16 -4 13 0 -4 -2
1532259456869880 0 4 6 -24 -11 -4 -37 -6
1532259456906780 -3 9 33 -6 -9 -2 9 1
1532259456968615 1 14 -24 -16 -2 -1 -16 0
1532259456992551 9 -16 9 12 1 -1 0 1
1532259457057378 -6 -9 33 3 18 0 6 -2
1532259457081314 23 27 17 3 -54 2 31 -8
1532259457094279 -10 23 -30 -7 0 -8 -51 -7
1532259457119212 -18 16 7 23 14 8 -22 45
1532259457154120 19 13 -4 -10 -12 1 84 -4
1532259457172083 -55 -46 -30 -18 16 -2 -32 -20
1532259457228919 33 17 4 34 11 2 -6 8
1532259457260834 -37 -61 -26 -12 -4 -3 11 -12
1532259457282775 15 28 -10 3 3 2 7 4
1532259457320674 -6 3 13 -4 2 3 -14 -8
1532259457335634 -27 -40 21 -13 -6 -4 -2 -4
1532259457386498 12 39 -37 -1 5 0 24 92
1532259457432375 14 -10 6 -5 -2 -1 13 -8
1532259457538092 14 24 2 8 6 3 12 1
1532259457590951 16 14 -13 1 -5 -4 2 2
1532259457687693 -17 -47 -24 -9 2 3 -38 -7
1532259457755511 -6 -3 12 -1 3 -1 -14 34
1532259457817346 1 -9 -10 -6 -3 -7 -1 -22
1532259457853253 -8 12 -22 30 19 10 21 7
1532259457942012 4 19 15 -19 -8 -4 -4 -3
1532259458026786 39 59 32 11 -5 -4 3 0
1532259458078647 -25 -50 -24 -11 -3 9 83 26
1532259458093607 6 14 6 1 0 -1 -25 -24
1532259458243207 -25 -17 -18 -12 -4 -3 -15 -4
1532259458295068 -1 10 28 33 10 2 -42 4
1532259458331969 39 52 10 -1 3 -2 -1 -2
1532259458370866 12 31 18 10 3 2 12 33
1532259458421749 3 4 -11 -5 -1 -2 -15 -12
1532259458481591 16 13 -28 31 15 8 -2 -3
1532259458557388 2 -4 -22 -6 1 1 -9 -1
1532259458702002 -5 -34 -13 -7 -1 -2 -2 -25
1532259458736917 -11 7 5 -3 -1 4 0 3
1532259458926401 4 7 1 0 -2 -4 0 5
1532259459158780 -18 -14 6 -9 -4 -1 -8 32
1532259459202662 0 -46 2 -3 2 2 3 18

1532259459345980 2 -11 -9 -2 -3 -7 1 -1
1532259459405821 2 0 -19 -5 0 1 1 -2
1532259459517521 2 -12 -21 -4 -2 1 -1 -1
1532259459554423 -5 -5 -6 -6 -2 -3 0 -1
1532259459594317 -2 -14 -3 9 1 0 0 0
1532259459607282 -4 0 0 -6 -1 -1 -2 -1
1532259459638199 1 -5 -11 -1 0 1 1 1
1532259459668119 -1 -6 -4 -2 -3 -5 -4 0
1532259459690061 -2 -31 -13 -1 1 3 1 1
1532259459712002 -10 7 -8 -3 -1 0 -2 -2
1532259459742919 2 -20 -13 -1 2 0 0 -1
1532259459757879 1 -6 4 -5 -4 -2 1 0
1532259459780818 3 0 1 -1 -2 0 -3 -1
1532259459833677 2 10 4 3 -1 -1 1 1
1532259459841655 2 8 2 -4 -2 1 0 -2
1532259459886561 0 -2 -2 1 1 0 -2 -2
1532259459900498 0 -3 0 -1 -2 5 0 0
1532259459945378 0 2 -3 -7 -5 -3 -1 -2
1532259459960338 -2 -12 -4 1 0 -1 -1 -2
1532259460021410 -4 -9 -4 -14 -6 -3 -2 -1
1532259460104176 -1 11 10 10 3 -1 0 0
1532259460171994 -4 -27 3 -4 -3 0 0 -2
1532259460199919 1 0 -30 -1 3 1 1 0
1532259460222403 4 -7 4 9 0 0 0 1
1532259460247336 -3 -19 -22 1 0 -1 -3 -3
1532259460321569 -1 -20 -13 2 1 3 -3 -3
1532259460390386 -11 39 7 4 4 -36 0 -32
1532259460395372 10 41 0 5 -1 -14 12 21
1532259460439255 2 32 -54 0 -7 -35 2 2
1532259460465185 3 -8 -12 -2 6 -12 5 28
1532259460501089 5 3 -12 4 2 -5 -1 6
1532259460523031 -1 5 6 -15 -9 34 0 -1
1532259460567911 -14 -4 4 -6 2 -6 0 -2
1532259460599825 3 6 -3 -2 2 -1 0 -2
1532259460620770 4 -1 3 -8 -5 -6 -1 -2
1532259460633735 -1 -14 5 9 0 -3 -1 -4
1532259460650689 5 9 -6 -5 -3 3 -2 -1
1532259460674629 -4 -2 -6 -11 -3 -4 1 0
1532259460693574 3 23 11 3 1 2 2 1
1532259460725489 -16 -16 0 -1 -1 1 -1 0
1532259460740449 8 23 1 6 3 0 -2 2
1532259460769372 -1 5 -5 1 1 1 0 -2
1532259460791312 -4 -2 4 1 1 0 0 -3
1532259460814252 1 2 -3 -1 -1 -1 0 -1
1532259460845169 -4 -7 2 3 2 -2 -3 -3
1532259460868108 0 -7 -1 2 0 -1 -1 -1
1532259460904025 -2 -1 0 1 1 1 -2 -1
1532259460956871 0 0 8 -3 -4 -2 0 0
1532259460963852 2 -38 -13 0 -1 0 -1 0
1532259461002747 1 -17 1 2 2 0 -1 -1
1532259461023691 -1 9 2 -6 -3 0 0 0
1532259461048641 5 34 6 5 6 4 2 -1
1532259461071564 0 51 -16 -10 -12 -7 -1 0
1532259461100486 -3 -4 -2 -11 -10 -3 -2 0
1532259461145366 0 15 15 4 -1 -1 -2 -2
1532259461189249 2 -12 -31 -8 -6 -2 0 3
1532259461198224 2 3 19 6 -3 -2 -4 -1
1532259461220166 -2 15 5 7 4 -3 0 2
1532259461249089 0 0 -41 -6 2 0 1 0
1532259461273033 -6 -7 13 -3 -4 -2 -2 -3
1532259461296961 10 9 44 7 2 3 -55 5
1532259461316907 -5 -1 -31 -2 -2 0 15 4
1532259461348822 -18 -13 -40 -11 -8 -8 -46 -29
1532259461362784 -7 3 26 -4 -1 4 17 2
1532259461430603 -4 -12 31 3 3 2 28 4
1532259461499420 11 1 18 2 -1 1 45 -5
1532259461557265 3 -4 10 0 1 3 34 15
1532259461649019 -5 -3 -6 -3 -1 3 -15 2
1532259461685921 2 6 47 3 2 -1 -7 6
1532259461785654 -5 12 7 -1 1 1 -6 2
1532259461790641 -11 10 -2 -11 -6 -6 2 19
1532259461851478 2 24 13 7 2 14 21 -15
1532259461879403 19 -1 -11 0 4 -1 -28 -15
1532259461910321 15 12 4 6 4 3 33 -12
1532259461957196 -2 -6 -1 0 0 -3 -2 -15
1532259462023019 39 -28 -5 -1 0 -1 -3 -9
1532259462097820 -8 -3 -4 0 -1 -2 3 -9
1532259462142711 20 12 -2 0 -1 -3 -51 -4
1532259462217499 1 -5 1 -3 -3 -4 -5 -32
1532259462309254 5 -13 -71 -8 -4 0 21 -16
1532259462368097 3 -15 11 0 2 2 -1 10
1532259462389040 -5 -73 -5 -4 -3 0 1 4
1532259462435915 7 0 5 2 4 0 4 6
1532259462467830 -11 -24 -4 -4 -6 -1 -5 -5
1532259462510716 -1 -2 -2 -5 -8 -6 -2 -2
1532259462532657 -1 16 -7 -4 0 -3 -1 0
1532259462636380 2 16 -2 6 23 5 1 1
1532259462659319 -22 -11 -34 -8 0 -2 -11 -12
1532259462737112 8 -5 -14 -16 -8 -2 0 1
1532259462818891 -1 -7 -15 -10 -8 -2 -36 -4
1532259462848812 21 -2 -5 -7 -33 -6 0 5
1532259462962509 -3 -11 14 -8 -14 2 3 0
1532259463013371 0 28 2 0 0 4 11 19
1532259463094164 11 -10 13 0 0 1 5 1
1532259463164983 0 11 3 0 1 4 -3 1
1532259463237787 0 8 0 -2 -13 -10 -12 2
1532259463389366 5 12 -1 -11 -5 -2 -2 1
1532259463396347 7 11 -3 15 0 0 2 2
1532259463428262 -2 5 5 -24 -33 -9 -1 -1
1532259463477131 -12 2 9 0 -2 -2 -3 -2
1532259463510046 5 1 2 7 12 4 2 1
1532259463530988 17 0 -6 0 -1 -3 1 -1
1532259463581852 -1 13 1 5 2 0 2 3
1532259463620748 -3 -28 -4 0 -1 -2 -12 -1
1532259463747417 4 1 -6 -1 1 -1 -2 -5
1532259463912973 -3 -8 -5 27 10 3 -12 -2
1532259463972813 -7 -2 10 -45 -53 -10 0 -3
1532259464049608 -20 20 -9 -6 -4 -3 -5 -7
1532259464109447 6 -38 -4 1 0 -1 0 2
1532259464131388 -5 4 -2 1 3 1 -3 -2
1532259464185245 -4 -17 -4 -3 -2 0 -3 -2
1532259464207186 5 0 -3 -2 0 -1 0 0
1532259464234114 4 -3 12 8 2 -1 -3 0
1532259464260058 -1 3 -15 -5 -2 -2 -1 -1
1532259464288968 -6 -2 7 -2 -1 2 -27 -8
1532259464348807 2 -47 4 7 9 4 -10 -3
1532259464376733 -5 -61 -1 4 -3 -2 2 2
1532259464409644 1 2 26 -6 -21 -3 12 5
1532259464452530 4 5 -9 1 6 2 15 3
1532259464458514 -9 8 -12 -8 -8 -2 -8 -19
1532259464566226 1 2 -20 -2 -3 -1 -4 -7
1532259464601132 5 3 -5 1 0 -4 -6 1
1532259464714829 -21 -4 9 -2 -4 -5 -41 -36
1532259464753725 16 29 -2 -3 0 -3 -35 25
1532259464760706 0 26 3 1 -5 -4 -3 -10
1532259464829522 21 19 -17 25 6 5 -14 6
1532259464849468 -11 -8 -48 -12 -5 -6 -2 -7
1532259464872407 -27 -29 -1 17 0 -4 -7 -5
1532259464886370 15 13 33 21 -1 -2 -7 7
1532259464932247 -4 6 -14 -8 -6 -4 -39 1
1532259464957180 -13 -98 -66 -8 0 3 -1 4
1532259464992113 -62 -57 7 7 4 5 34 -20
1532259465029014 1 10 -2 -6 -6 -10 -26 4
1532259465040988 5 3 -5 4 2 1 -14 7
1532259465066913 16 16 7 7 4 1 21 6
1532259465108801 -20 -27 -19 22 14 2 -32 -7
1532259465159665 -2 -9 -1 -23 -12 -3 -2 2
1532259465194572 3 -16 -35 -8 -9 -2 4 -2
1532259465293308 -13 -11 -14 16 7 7 3 -8
1532259465317244 -17 -5 -1 9 4 -1 26 -32
1532259465384065 -8 -1 3 -3 -2 -3 6 -5
1532259465435926 -33 5 -34 -71 -11 -7 -16 -11
1532259465503746 12 24 -12 -3 2 2 -18 -1
1532259465531671 1 -54 13 19 3 -5 -13 6
1532259465584529 28 -4 13 14 2 2 34 -23
1532259465622428 5 -21 -2 -18 -5 -1 9 16
1532259465689249 -8 -17 -14 -12 0 2 -6 9
1532259465794966 0 -12 1 35 0 1 19 -4
1532259465870764 1 -2 7 3 -1 2 -19 -85
1532259465922625 8 79 -2 1 2 1 20 81
1532259466049286 -33 -16 7 11 3 1 19 -8
1532259466109126 5 9 17 1 0 -1 1 -1
1532259466426279 4 -47 -6 -17 -8 -5 -2 2
1532259466537986 -4 10 -40 3 0 3 0 -2
1532259466611782 -25 -63 33 -6 -3 1 -8 -89
1532259466635718 22 65 -7 -4 -16 -76 9 32
1532259466671623 -17 -78 47 7 11 -64 -18 -6
1532259466695558 -2 -28 48 86 33 21 5 4

1532259466748417 -13 -60 -109 -12 1 27 -2 -24
1532259466756396 14 4 60 -11 -11 -4 -2 11
1532259466823217 5 22 -14 1 -3 -1 2 1
1532259466889041 -5 -37 -38 -2 0 3 -3 2
1532259466900011 -5 2 -27 -5 3 -2 0 -9
1532259466934918 1 -6 24 23 7 2 0 -1
1532259466957889 0 7 -1 -17 -8 -4 -2 -2
1532259467031716 -3 -7 -5 3 0 6 -4 -7
1532259467047675 -5 -14 0 9 -1 -5 1 0
1532259467091558 1 0 -7 -2 -3 -6 2 5
1532259467115503 4 8 -6 4 0 -4 -1 5
1532259467160374 -3 0 1 -3 -3 -7 -3 4
1532259467228928 1 15 -2 -1 2 3 -1 -1
1532259467241894 -2 3 -3 -3 -1 -4 -1 0
1532259467263835 1 23 17 -7 -1 -2 -1 2
1532259467287773 -3 -3 -2 -7 -3 -1 1 1
1532259467325685 1 -3 -1 3 2 -1 1 1
1532259467369567 1 -6 -2 3 0 -2 -2 -2
1532259467392506 2 -1 -8 -1 -3 -2 -1 1
1532259467406469 0 -14 11 -2 0 0 1 1
1532259467429407 -3 -7 -3 -2 -2 -4 -1 -1
1532259467466308 -3 -16 -9 1 0 -1 -2 0
1532259467489247 2 -7 5 -2 -2 1 1 -2
1532259467512186 1 24 36 16 7 5 0 -1
1532259467550085 0 -17 -16 -2 0 1 1 -1
1532259467564061 -2 0 -14 -3 1 -1 0 -1
1532259467595973 -4 -8 1 -4 1 1 -2 -1
1532259467616905 0 -9 -14 -6 -2 -4 -3 -2
1532259467662783 6 -3 -4 -6 -1 1 9 9
1532259467683727 -5 2 -1 -12 -4 -1 -4 -2
1532259467732602 -1 23 24 10 0 -2 -1 -4
1532259467744570 -2 -16 -32 -6 0 9 -4 -4
1532259467782469 -2 -2 -6 2 0 2 2 13
1532259467804409 4 22 0 2 -1 7 1 5
1532259467865247 9 34 0 1 -8 46 -9 70
1532259467872229 6 19 0 1 2 25 18 -27
1532259467909130 0 0 11 -19 -6 -15 -5 -5
1532259467934077 -5 -5 -35 -11 -4 8 4 -4
1532259467970965 1 -31 -10 -19 -3 -14 -1 -6
1532259468008863 -3 11 13 7 2 -9 0 -1
1532259468028826 2 12 10 2 -3 -4 -4 2
1532259468068703 -5 16 5 -2 -2 -1 2 0
1532259468082666 -1 1 -14 -10 -6 1 -1 -1
1532259468120564 -5 -4 15 4 10 -1 -1 -3
1532259468134532 -7 2 -17 -2 -11 -4 -1 -2
1532259468187386 -2 -10 1 -2 2 1 0 1
1532259468219300 2 11 12 5 4 2 1 -1
1532259468225285 -6 1 7 1 1 0 0 0
1532259468287120 -2 -3 -4 -1 0 1 -1 0
1532259468376879 2 -2 0 0 -1 -1 -2 -1
1532259468412783 -1 16 -1 1 2 0 -1 -3
1532259468450682 -6 -7 -1 -3 -3 -1 -2 -2
1532259468564378 -8 -14 -5 -2 -1 -2 0 4
1532259468570367 -1 6 -2 -2 0 0 0 -6
1532259468637183 8 -10 -17 -3 -2 0 -1 0
1532259468699017 -19 10 -1 -7 -2 0 2 5
1532259468749882 35 14 -5 7 3 1 6 42
1532259468787780 -27 -21 -17 0 2 0 -5 -22
1532259468864575 20 -10 -12 -5 -3 0 -8 18
1532259468876542 -21 8 4 1 3 1 14 25
1532259468904484 31 -4 4 -2 -3 3 13 -6
1532259468931396 -33 -19 -14 -3 -1 -2 -6 -33
1532259469020159 -1 -2 0 -2 -1 1 -1 -4
1532259469065039 1 4 2 1 2 -4 -9 -8
1532259469101940 -43 -7 -5 -1 -4 -4 1 -2
1532259469118905 7 -10 -5 -4 -5 -6 -7 6
1532259469178735 -3 5 2 1 2 1 5 -4
1532259469200681 8 5 0 -3 -3 -2 -1 12
1532259469229599 1 -17 -2 0 1 2 4 -12
1532259469254532 2 -4 -2 -2 0 1 -2 0
1532259469321353 3 -10 -1 4 9 1 0 0
1532259469373215 -5 -2 -8 1 -2 -1 -2 -1
1532259469425076 -3 -39 -17 -9 -13 8 -3 0
1532259469478932 1 13 9 9 7 -7 -1 -2
1532259469494890 3 26 5 -3 -3 -4 -1 -1
1532259469553748 -9 -26 -12 4 5 1 0 1
1532259469598616 -4 -14 -6 -2 -7 1 1 2
1532259469623546 -1 1 -6 -15 -12 -2 -13 -4
1532259469650476 -15 16 5 2 1 -6 -1 1
1532259469687375 -19 8 -3 -15 -31 -8 -20 8
1532259469750206 -23 -24 -9 -15 11 8 1 -1
1532259469770158 2 -1 5 3 -2 -2 1 4
1532259469816031 1 7 -7 -11 -6 -2 -9 -3
1532259469882854 -2 -7 5 -7 -1 1 -2 -3
1532259469951667 -15 3 23 3 0 0 -2 -3
1532259469972615 6 -3 -7 -2 -3 0 0 2
1532259470009514 -24 32 19 2 -1 -9 1 0
1532259470034446 14 -10 -5 2 0 33 7 3
1532259470102265 -1 -1 4 -13 -6 15 -2 -3
1532259470177065 -16 -7 -27 6 -1 -19 7 0
1532259470265828 -10 5 45 26 2 5 6 -2
1532259470301732 -2 -1 -15 29 18 0 -6 -5
1532259470346611 5 -12 19 -17 -7 -2 2 4
1532259470392489 -17 -19 -26 -3 3 -4 -5 -3
1532259470430388 11 1 14 1 2 0 -3 -6
1532259470468287 5 0 2 1 3 2 1 0
1532259470535108 8 22 -5 -4 -4 -8 5 2
1532259470663763 5 5 2 -2 2 2 13 -1
1532259470744549 -13 -9 0 -2 -6 -15 11 -4
1532259470807380 2 -14 2 4 -6 -7 -18 -1
1532259470835305 -1 3 -27 -1 3 0 -3 0
1532259470858243 1 16 5 13 4 -15 26 1
1532259470911102 -3 5 -7 4 4 -1 1 -3
1532259470932046 3 1 0 1 -2 -1 -8 -1
1532259470969960 -9 3 14 0 0 -1 5 0
1532259471008840 0 -10 2 2 1 0 -1 2
1532259471068680 -5 1 4 2 0 0 -5 -2
1532259471126526 -5 2 0 0 0 1 7 0
1532259471145476 -4 -28 0 -2 1 0 0 -1
1532259471188361 -13 -14 -8 3 1 0 -1 -3
1532259471209305 2 3 4 0 2 0 -4 0
1532259471247204 1 -9 -8 -1 -2 -8 4 3
1532259471270142 6 -7 -16 -14 -26 79 -11 -7
1532259471399796 2 2 4 2 12 -21 -8 -2
1532259471518478 -4 -9 19 13 4 1 23 -3
1532259471562361 18 27 68 23 3 -8 -16 2
1532259471615219 -4 -35 -59 -3 2 2 4 -1
1532259471667081 4 -24 -1 -5 -6 4 4 -19
1532259471697998 -7 -7 -34 4 11 8 -19 24
1532259471816681 6 15 -4 -2 9 5 -1 -2
1532259471876521 13 31 26 26 6 2 0 3
1532259471954322 27 16 4 -5 -2 -3 7 26
1532259471989219 9 38 -17 -9 -11 -11 -20 47
1532259472101918 4 9 -10 29 16 5 -7 7
1532259472155774 -3 2 -3 -2 0 -4 -52 -2
1532259472229577 2 22 32 -4 -3 -4 -6 0
1532259472289417 10 24 -20 -2 -4 -3 -81 -9
1532259472320333 -11 -78 -25 -1 8 12 -36 -65
1532259472454974 20 34 17 12 7 4 -1 10
1532259472515811 6 18 5 8 5 3 -4 3
1532259472529774 -22 2 -2 -1 -2 -1 -4 0
1532259472635491 -3 27 9 0 -2 -8 -6 -41
1532259472709294 9 -7 -10 1 0 3 -6 20
1532259472747192 1 9 4 -7 -2 6 38 5
1532259472912750 -4 -19 -22 2 -7 0 6 -9
1532259472935688 18 21 -8 29 49 8 -37 25
1532259473032430 -10 -40 -13 -12 -12 -7 -9 -2
1532259473078307 -3 2 2 -1 -3 -4 -38 -5
1532259473212947 -2 -27 -15 2 0 1 -4 -2
1532259473286750 -3 -42 -4 1 -2 1 -1 -2
1532259473368530 1 58 -6 -6 -3 -1 -4 -4
1532259473483224 6 50 7 -8 -3 0 0 -1
1532259473558024 -6 4 16 0 1 -2 3 -2
1532259473617864 5 26 17 11 0 0 -1 2
1532259473632824 2 -15 -1 7 3 4 1 0
1532259473662745 14 30 -10 -2 -1 0 1 2
1532259473694659 0 -20 -5 5 0 -1 -1 0
1532259473717613 1 6 5 0 0 3 0 2
1532259473745523 -1 36 26 -5 1 -1 -3 -4
1532259473798382 -19 8 23 -4 -3 30 1 -86
1532259473873181 -8 15 -96 -4 -5 2 -3 -42
1532259473895123 -10 -19 -47 -6 -5 4 -2 -6

1532259473932024 0 -12 -17 -3 1 14 -3 -13
1532259473963938 3 -18 26 0 2 -5 1 5
1532259473985880 -2 5 -7 2 -1 2 0 1
1532259474015800 1 11 23 28 7 6 2 -2
1532259474039735 3 -4 -17 -11 -1 3 -4 -2
1532259474060680 -1 8 4 -3 -1 -1 -1 0
1532259474112541 2 -9 5 -4 -2 0 -2 -2
1532259474150440 -1 11 3 8 -2 2 0 -2
1532259474189336 0 6 2 -5 -1 0 -1 0
1532259474209283 0 6 3 -3 -1 -1 -3 -2
1532259474262174 1 5 4 1 0 -2 -3 0
1532259474292096 -6 -16 -4 2 -4 -2 1 -2
1532259474325008 -1 -13 12 -1 -1 0 1 -3
1532259474391830 2 -21 -19 -6 -3 0 -1 0
1532259474420753 -1 0 22 -2 0 0 2 1
1532259474450672 -3 21 22 -2 1 2 2 9
1532259474525488 -3 -39 -1 -1 1 23 -18 -81
1532259474555408 -3 14 -75 -14 -5 -13 -2 -22
1532259474585327 -19 47 -10 -41 -16 -11 -1 -13
1532259474592310 2 4 16 -59 -11 -5 -5 -6
1532259474615247 6 24 20 -2 4 -9 3 -2
1532259474644174 -2 -13 4 18 3 -7 -2 1
1532259474666112 -1 5 -5 -3 -5 -1 1 -9
1532259474698026 -6 8 22 3 -6 -3 0 -3
1532259474727946 1 7 -9 -1 -5 -4 -2 -2
1532259474735925 -7 -8 -14 19 7 2 3 3
1532259474748890 2 21 1 -4 6 0 -2 -1
1532259474780805 5 10 8 6 0 1 -2 0
1532259474795765 -3 9 9 3 3 1 0 -1
1532259474817706 5 20 14 7 -1 -1 0 1
1532259474854608 -5 8 10 -1 -1 -1 14 -1
1532259474877547 4 -4 -34 -10 -1 2 5 1
1532259474914447 1 19 8 11 2 2 8 -1
1532259474953344 -3 -15 -3 -2 4 -1 6 -4
1532259474974288 -3 -9 -9 -7 -4 0 -1 0
1532259475020182 -2 4 11 10 0 -4 2 -1
1532259475041109 9 8 13 3 3 -3 1 2
1532259475079007 4 0 10 6 12 3 1 -1
1532259475132877 6 -5 -15 10 -1 1 3 2
1532259475158794 4 12 6 0 1 -1 -2 -4
1532259475177743 -20 -4 7 2 -3 -1 3 11
1532259475230603 -6 4 14 -2 5 0 -3 -11
1532259475260538 6 11 2 -3 -3 -1 -3 11
1532259475282463 -10 -4 -5 -2 -3 -5 -9 -27
1532259475298426 7 -11 3 1 4 4 5 8
1532259475358261 -7 8 -1 1 0 -2 -4 -19
1532259475403141 12 2 2 6 -1 0 0 2
1532259475440042 -24 -14 -8 1 0 -1 -1 -3
1532259475484922 30 7 5 -2 -3 -11 -2 2
1532259475500879 21 6 14 1 -2 -4 -12 3
1532259475522829 -14 -12 -19 -2 0 -1 1 13
1532259475560719 1 -4 -1 -1 -4 -4 20 -19
1532259475573685 6 -12 5 4 0 -1 -9 -3
1532259475597620 -2 0 -4 0 1 2 10 9
1532259475626543 -7 1 -2 2 1 0 3 5
1532259475702341 -40 -2 -9 -2 0 -1 -4 -18
1532259475718298 18 2 -3 0 -1 -1 -43 11
1532259475754202 -16 0 1 0 0 -2 17 -3
1532259475777154 4 5 10 3 1 0 4 3
1532259475784122 0 4 -2 -2 -1 -5 0 3
1532259475830997 0 -5 -3 -1 -2 1 -3 3
1532259475852938 -2 -10 -23 1 3 3 -4 3
1532259475896820 -4 0 -3 -3 1 -3 -1 -2
1532259475912778 0 4 -11 -1 -1 0 6 1
1532259475942697 2 -2 7 2 8 2 -1 1
1532259475980597 0 -3 2 4 -2 1 -2 -1
1532259475994559 4 30 6 -4 -5 0 0 0
1532259476002538 -8 -14 -6 -7 19 4 2 0
1532259476055397 -1 -24 -15 -18 9 1 1 -2
1532259476101274 -2 10 8 -8 -19 -3 -2 -2
1532259476137178 -7 -24 11 -11 -4 -4 -3 -3
1532259476183055 -9 28 5 -3 -7 -1 0 0
1532259476204997 -11 0 -4 -3 0 4 0 -4
1532259476258852 21 1 -10 -2 -3 -3 2 -5
1532259476333652 11 -9 -3 8 1 -4 -5 3
1532259476346617 0 3 -5 1 -6 -6 3 2
1532259476445354 7 19 -23 -3 34 2 -3 4
1532259476460313 -9 -20 -8 12 -13 -1 -2 -1
1532259476520156 -5 -3 22 28 22 6 5 -2
1532259476579994 -1 7 -10 3 -8 -3 -3 -1
1532259476609918 1 7 0 -6 -5 -3 2 -2
1532259476632852 4 0 -5 2 3 1 -3 0
1532259476696699 7 63 -2 -4 -3 -1 -5 -6
1532259476721623 1 9 0 -2 -2 0 -1 0
1532259476761509 -6 -8 0 1 0 -2 -3 -3
1532259476767492 -7 -4 -1 -2 0 0 0 -3
1532259476849274 2 -2 -4 3 2 -1 3 3
1532259476888170 -1 -7 -9 -4 5 -1 -9 -3
1532259477089631 -1 1 -7 23 -6 -4 -7 -2
1532259477166426 4 14 5 -15 27 0 -3 -1
1532259477225268 -5 16 -4 0 22 2 -1 -17
1532259477263167 2 -1 -1 -5 0 -2 -5 11
1532259477301065 -7 -2 1 0 4 3 5 -3
1532259477314031 -1 2 -2 -3 -2 -2 -1 -3
1532259477367887 -3 5 -3 -2 -1 -1 0 3
1532259477451663 -2 24 6 4 8 1 -1 -5
1532259477505519 4 -7 15 29 13 5 2 2
1532259477594288 0 -2 -2 -13 -1 -4 2 2
1532259477653131 -17 -4 -3 1 -1 1 -1 3
1532259477720949 -15 -5 -5 -37 -3 -1 -3 -5
1532259477735909 -5 0 1 -2 -7 0 -2 -1
1532259477779792 1 -29 -9 0 -5 -2 -2 -2
1532259477796747 7 -16 -5 -14 -3 -1 -1 -3
1532259477855589 5 3 2 2 0 0 1 4
1532259477870557 -5 0 0 3 -2 -1 5 -6
1532259477884512 16 27 4 2 0 -1 1 -10
1532259477923408 -2 -1 1 0 1 0 -5 -1
1532259477975275 2 9 1 1 0 0 14 12
1532259477997210 -5 -3 13 7 -2 7 6 8
1532259478027131 5 19 4 -2 -3 -3 -26 16
1532259478073007 -2 14 17 3 -12 10 57 1
1532259478132848 5 22 -6 -1 -9 -14 -17 1
1532259478155786 -12 1 -11 -4 0 -4 19 3
1532259478221610 9 10 37 6 1 -5 32 -1
1532259478327328 -3 -6 2 -1 3 0 -12 -8
1532259478427061 2 16 23 -1 -1 -8 -29 6
1532259478463962 -28 -29 1 -9 -7 -3 -17 -9
1532259478506847 12 8 -22 -29 -5 0 -2 2
1532259478530783 -25 -14 17 8 0 0 -7 -4
1532259478551727 20 28 39 15 3 0 12 7
1532259478568682 24 30 23 18 6 1 10 4
1532259478605583 5 -13 -43 1 -2 -2 -5 0
1532259478680383 -19 1 -4 -4 -1 -2 -6 -36
1532259478695344 -35 -20 3 -1 -2 -4 38 -20
1532259478770163 7 7 -2 -42 -14 -6 -15 -3
1532259478809046 20 14 16 -2 -4 -8 43 -4
1532259478920748 18 -15 -12 -10 -1 -2 -22 -29
1532259479040428 2 8 4 -13 -1 -7 -40 -5
1532259479109244 1 5 -17 -6 12 84 12 4
1532259479161105 -4 13 18 -2 6 4 -22 0
1532259479192022 27 35 20 -7 -6 -3 6 25
1532259479259840 -3 0 -27 -3 1 -6 -19 -14
1532259479746540 3 24 -18 6 -1 0 -15 -1
1532259479813361 -1 -11 -1 4 2 1 -7 2
1532259479873201 2 -5 -2 4 0 10 -1 1
1532259480128518 0 -26 -11 -7 -4 -1 1 3
1532259480210299 -5 -27 13 28 6 -3 1 0
1532259480353916 -8 11 -35 -4 0 11 5 -26
