1532257618164120 3 -26 -4 -1 0 -3 -2 -1
1532257618175101 1 -3 -6 -5 -6 -4 -1 -1
1532257618206008 1 20 22 11 10 4 0 -1
1532257618237923 -2 15 -9 -9 -8 -3 0 -2
1532257618296765 5 19 -6 11 3 1 1 0
1532257618310740 -1 2 0 0 -3 -3 -2 0
1532257618340648 0 -2 1 6 4 0 -2 -2
1532257618362590 2 7 -15 -3 -8 0 -2 1
1532257618385533 -2 12 5 -1 -3 -3 -1 -2
1532257618400488 -2 -10 1 -6 -3 -2 0 -1
1532257618422430 -4 -5 -6 -3 -1 -3 -3 -3
1532257618482287 -1 6 11 2 0 0 -2 0
1532257618520200 2 4 13 -4 -7 -2 -1 -1
1532257618542141 5 3 7 3 1 1 0 1
1532257618565079 -8 -10 -9 -7 -6 -4 -2 -3
1532257618580040 -1 -1 -3 7 3 2 0 -1
1532257618610957 1 -4 -12 -6 -2 0 -1 -1
1532257618625916 7 5 9 2 -2 1 0 2
1532257618662818 -4 -6 -11 -3 -1 -1 -3 -2
1532257618685765 -9 -8 8 -4 -1 0 -2 -3
1532257618699719 -6 -11 -10 -8 -4 -3 -2 -2
1532257618722658 1 2 3 3 0 0 -1 0
1532257618745597 1 0 -8 -2 9 1 1 0
1532257618760556 0 -2 -3 6 1 0 0 -3
1532257618782497 2 1 0 -2 -8 -4 -2 0
1532257618805437 5 13 20 7 5 3 3 2
1532257618827377 -3 -6 -5 5 3 1 0 1
1532257618873254 2 -4 -6 -2 1 0 1 5
1532257618887218 5 2 11 -1 0 -2 1 2
1532257618926114 -5 -5 -8 1 -1 -4 0 -2
1532257618939080 1 2 1 -5 -3 -1 0 0
1532257618963015 -3 -18 -18 -8 -6 -2 -1 1
1532257618985954 -7 -4 -2 1 2 -1 0 0
1532257619007895 -12 -5 -6 -1 -1 -5 -6 -9
1532257619045793 -13 6 3 -4 -4 -2 3 -5
1532257619059756 25 2 -4 -4 -2 -2 2 6
1532257619105634 11 -2 6 3 4 6 5 5
1532257619119597 24 18 20 0 -2 -12 -7 7
1532257619142535 -33 -5 -28 1 2 23 2 -13
1532257619165474 -17 -24 -53 -6 -8 -23 -6 -16
1532257619188413 -6 -10 3 -8 -2 -2 -2 -7
1532257619202375 16 4 -10 1 -4 6 5 9
1532257619256231 32 -6 -21 -4 -1 -3 -7 -11
1532257619271191 -19 -7 24 3 5 -2 -15 8
1532257619285153 -14 2 4 1 -3 -2 9 -4
1532257619293134 -40 -10 -3 -2 -3 -4 -6 -28
1532257619310087 0 -14 -18 0 2 6 54 -16
1532257619332028 15 -11 -40 1 -2 -4 0 -18
1532257619352973 2 4 16 2 1 -11 -85 -20
1532257619373916 35 18 11 1 5 5 -6 23
1532257619392866 72 9 85 -3 -5 -2 22 90
1532257619413810 -75 2 -29 -8 -9 6 -48 19
1532257619450711 43 -4 19 2 2 -16 -50 -85
1532257619473650 -80 -33 -38 -8 -1 20 -102 23
1532257619510551 -39 29 99 1 -2 -6 101 31
1532257619540471 -36 9 5 6 5 4 -68 4
1532257619554433 11 -47 -115 -12 -4 -6 -27 23
1532257619572403 27 -8 16 2 0 -2 42 4
1532257619593330 28 15 49 10 15 28 -99 29
1532257619614274 11 -8 -52 0 -2 -4 -32 -34
1532257619632226 3 3 38 0 -3 0 -8 -21
1532257619661161 -36 -14 -2 -6 -12 -43 114 -43
1532257619682092 22 13 -5 2 2 14 -16 23
1532257619713010 1 8 26 5 5 3 -42 -10
1532257619727970 29 9 23 -5 -4 -6 18 27
1532257619733954 25 -20 -86 -8 -2 -15 11 11
1532257619759885 5 12 24 1 2 3 -22 8
1532257619794791 11 26 16 6 0 3 1 0
1532257619833687 0 54 -7 -6 -5 -1 3 1
1532257619846652 3 -8 -12 -6 -2 -5 1 -3
1532257619870588 -7 5 12 -5 -7 -2 2 -4
1532257619894524 -2 -21 5 8 9 7 6 1
1532257619915468 -10 -15 7 1 -5 -3 -2 -5
1532257619938411 0 -10 2 -5 -3 -5 -1 -1
1532257619961346 12 55 18 1 -3 -3 -2 3
1532257619976306 1 14 2 3 2 3 0 -1
1532257619992264 -3 -56 -7 1 -1 -3 0 -1
1532257620015201 -8 -55 -18 -8 1 13 -2 -3
1532257620051106 -3 2 -6 -1 26 -6 0 0
1532257620073047 0 0 -1 20 0 -7 1 -3
1532257620087009 2 26 4 -6 -7 -4 1 -6
1532257620111943 -3 -22 -8 -3 -2 -2 -18 -47
1532257620132887 1 2 1 2 -8 -5 1 18
1532257620193724 -1 -21 -9 -4 -6 -3 0 8
1532257620206690 1 1 1 6 6 4 7 11
1532257620238605 -4 -8 2 0 0 2 0 -35
1532257620411143 3 15 6 -1 -3 -2 -4 2
1532257620523842 3 -40 1 4 3 2 -1 10
1532257620613601 9 17 10 -1 5 -9 -1 6
1532257620673441 15 17 -2 -4 -6 -11 -3 -3
1532257620695382 4 -14 -2 5 7 8 0 4
1532257620710343 -10 -13 -2 -6 -6 -28 -6 -8
1532257620769205 7 8 2 0 -2 30 1 0
1532257620816079 -6 1 -39 6 -3 -10 -3 -4
1532257620913818 6 35 -4 -8 0 12 1 0
1532257620920799 -2 3 -2 24 4 -2 0 -2
1532257620935759 4 9 10 -7 2 -1 1 1
1532257620965679 3 -2 -31 -16 -4 7 -3 -3
1532257620995598 -10 -22 1 -14 5 12 1 0
1532257621024521 -6 -34 -2 -5 -2 -2 -2 0
1532257621069402 3 1 -13 -3 -2 0 -1 -2
1532257621138218 7 3 0 -1 -2 -1 -2 2
1532257621189081 6 3 -3 3 1 -2 0 1
1532257621206050 0 -12 -17 -8 -3 3 -1 2
1532257621235970 3 6 0 -1 -1 1 2 0
1532257621295809 2 11 -4 -2 0 -2 -2 -1
1532257621309776 -5 -22 1 1 0 -2 2 -2
1532257621355650 -3 -3 -2 0 2 2 -31 -3
1532257621415490 -2 2 -8 3 2 1 17 -3
1532257621446407 -4 -34 -5 0 -3 -9 -19 -2
1532257621476327 -2 0 -1 2 1 -4 -6 -3
1532257621512230 -6 -25 -15 -10 -4 8 -41 -2
1532257621536167 -6 -16 0 -2 -6 -5 6 2
1532257621566092 2 29 -5 -2 1 7 38 -2
1532257621617948 -13 20 -9 8 5 11 3 -5
1532257621634903 -26 -60 -20 -5 -10 -11 -3 7
1532257621655847 17 11 1 -3 2 6 40 11
1532257621677788 6 -62 -5 -9 -3 12 -62 -8
1532257621700727 1 -23 4 3 4 -2 44 -2
1532257621738625 0 -15 -5 -9 -12 -27 19 4
1532257621751592 2 -16 -10 -8 3 26 91 0
1532257621781511 -22 -81 -20 -23 -5 6 2 -6
1532257621799463 -5 -2 4 24 0 -29 -45 -15
1532257621821404 4 -4 -9 -19 -3 9 17 4
1532257621858306 5 -20 -6 -20 -5 -7 -40 5
1532257621866284 0 15 -2 25 16 11 -5 11
1532257621903185 13 12 13 11 0 9 27 -12
1532257621918147 5 7 -11 -6 -4 0 -3 4
1532257621932108 -20 3 -30 -12 -9 -17 -15 -4
1532257621958040 -38 -49 -29 -14 -6 -11 -17 -53
1532257621977985 11 -25 -9 -3 -4 -2 11 -2
1532257622007905 15 38 1 -3 -2 -8 8 38
1532257622023863 -2 -15 0 -9 -3 -23 -11 -3
1532257622029847 11 -17 -4 45 19 6 -24 7
1532257622076721 0 3 5 -1 -1 3 -5 -1
1532257622090695 5 -33 1 0 1 6 -19 -3
1532257622111628 -8 0 -21 -11 -11 -9 -10 -17
1532257622135564 23 -5 17 6 0 6 8 20
1532257622158504 10 19 10 5 3 8 -35 12
1532257622171468 13 13 0 -2 1 -5 -9 40
1532257622195404 3 -8 0 3 -2 -8 -14 -2
1532257622225325 -3 -11 7 4 -3 0 40 18
1532257622248263 -21 -33 -1 -6 -5 0 33 -15
1532257622263223 -5 -20 -3 4 3 -2 -44 -1
1532257622286162 -34 -55 -19 -1 0 5 -30 -14
1532257622292146 15 49 -8 -8 -8 -15 -55 -8
1532257622316082 0 -26 1 -1 -1 -3 29 -3
1532257622338023 31 1 15 5 8 9 29 23
1532257622351985 -1 -14 -2 -4 -3 -2 10 0
1532257622381906 -7 -26 6 -1 -4 -6 -11 9
1532257622399858 26 16 21 4 -2 -3 11 6
1532257622420817 -9 59 -8 -8 1 2 -19 -7
1532257622441745 -20 -117 19 39 9 -7 -59 -1
1532257622459698 -7 -25 2 -13 -9 -15 10 -10
1532257622480641 -5 16 -13 -9 -3 2 3 -6
1532257622501587 -11 -60 -12 10 1 15 46 4
1532257622527516 11 45 -29 -19 -2 -4 -57 1
1532257622549457 -17 12 6 -5 -3 1 9 -4
1532257622569404 -5 -52 -25 -3 2 2 0 0
1532257622615282 22 43 11 7 6 10 29 4
1532257622638220 -39 3 -31 -8 -1 2 -34 -13
1532257622675121 43 -1 -13 1 2 8 17 -1
1532257622698060 -1 18 11 9 5 10 -24 -2
1532257622734967 -1 15 6 -2 -5 3 34 -7
1532257622796796 9 -33 -2 -3 -3 0 8 17
1532257622818756 -5 -22 1 -2 -3 -3 -6 -8
1532257622864614 3 -47 10 6 3 6 -12 -18
1532257622870599 -7 56 7 2 1 7 32 6
1532257622923458 -1 -27 26 -4 -7 18 -4 0
1532257622960359 -7 -99 -74 -3 -7 49 9 -2
1532257622983297 -5 69 -5 -8 -5 86 -3 5
1532257622997260 -3 118 106 -5 -7 32 1 -2
1532257623050119 1 -30 -40 -8 2 -19 -1 3
1532257623059106 -8 -21 68 -4 -2 9 -1 -4
1532257623134893 6 -5 -3 -6 -3 0 -1 0
1532257623156834 -2 -7 12 -3 0 0 3 -2
1532257623208695 6 19 11 0 -1 -13 -1 -1
1532257623284493 -6 -8 16 -5 -6 -35 -3 -4
1532257623463015 9 -11 3 -6 -2 -4 -1 1
1532257623545793 2 11 11 1 1 2 -2 0
1532257623599649 0 -25 -89 -1 0 -9 1 0
1532257623719329 8 48 -3 -6 2 1 2 3
1532257623852972 1 -58 -123 4 1 -2 0 1
1532257623942732 -4 -13 -49 15 14 17 2 0
1532257623965670 5 20 -2 -12 3 7 0 3
1532257624040470 1 14 2 -3 -2 13 -1 -1
1532257624100310 4 18 80 0 -2 19 -4 -1
1532257624146188 -4 1 18 -2 -3 -9 -4 -5
1532257624182092 1 0 -29 2 5 -4 0 0
1532257624206027 1 -6 -7 -1 3 -1 1 -1
1532257624227969 -1 1 3 -3 -3 -3 -1 2
1532257624242929 -3 -6 -3 -1 2 -2 -2 -6
1532257624281825 -1 2 4 6 8 5 1 -2
1532257624316732 -1 -2 -2 -2 -5 0 -4 -5
1532257624339671 2 1 0 -1 1 -1 2 9
1532257624362609 0 14 2 -2 -1 -1 -2 -2
1532257624376572 -3 -14 -5 4 3 0 0 0
1532257624415468 -1 -6 -4 -6 -4 -3 -1 -3
1532257624430427 -5 9 3 -3 -6 -3 -2 -4
1532257624468327 3 7 -1 -5 3 0 -3 -1
1532257624482289 6 7 7 -1 1 -5 1 2
1532257624551105 -5 -2 3 6 -3 1 -5 -3
1532257624566065 -5 -12 -14 -6 0 1 0 0
1532257624602967 -7 6 13 -4 -4 -8 -4 -1
1532257624625904 5 3 -4 -1 1 6 0 -3
1532257624647846 -2 4 14 -2 -1 -2 -1 -1
1532257624685745 -1 -9 -6 -9 -1 -3 -2 1
1532257624722647 -4 -23 -6 0 1 1 0 -2
1532257624745585 4 4 -1 2 1 1 1 2
1532257624782486 -1 5 -9 -4 -1 1 0 -1
1532257624805425 -4 -24 1 -1 -1 -1 0 0
1532257624828364 -3 -72 8 -1 -6 -4 -3 -4
1532257624842326 3 31 28 0 0 -3 1 -1
1532257624866262 2 -3 -41 9 3 -2 0 2
1532257624903163 0 -5 18 -4 -3 1 3 2
1532257624926102 10 8 -11 -1 3 24 -2 13
1532257624940065 -16 64 35 7 23 103 19 42
1532257624963003 0 77 -12 8 29 70 10 -79

1532257624985942 -2 -37 -21 -11 -58 -128 -27 5
1532257625006886 -10 -16 22 -10 12 21 -2 -11
1532257625032380 -1 -12 -56 3 2 -29 -1 8
1532257625045348 -3 -13 102 -13 -7 -33 -7 -1
1532257625059310 4 9 4 2 -5 -22 2 13
1532257625106185 -8 -12 -35 11 5 0 3 6
1532257625119150 6 -2 9 19 -1 -6 4 0
1532257625142089 1 -12 -8 -8 -6 -14 -7 7
1532257625166025 0 12 -23 -12 -2 -3 -1 -1
1532257625187966 0 5 -3 3 -1 0 1 -1
1532257625210905 -4 31 0 -2 -1 -3 -1 -6
1532257625234852 -1 39 6 -4 -1 0 1 -3
1532257625261769 -1 -14 -6 1 -1 -4 0 -1
1532257625285704 -5 11 1 1 1 -1 -2 -3
1532257625322605 -3 -3 -3 0 1 2 -1 3
1532257625336569 0 -13 -11 -2 -3 -2 0 0
1532257625359508 -10 -9 29 -2 -4 2 -5 -1
1532257625368499 2 -32 -24 -3 0 2 -1 0
1532257625392426 -6 -47 23 -2 -6 -5 -5 -5
1532257625428323 0 -7 6 -1 -3 3 -1 0
1532257625449267 0 6 -10 2 1 -4 1 1
1532257625488163 -2 8 12 -1 -1 -2 -1 -3
1532257625541022 3 4 0 -1 -4 -9 -6 2
1532257625562963 -4 17 0 0 0 -2 -1 -3
1532257625584905 -3 -8 1 -1 -3 7 -3 -2
1532257625608841 11 -16 -4 -2 2 12 3 3
1532257625660701 -4 2 0 1 2 -3 1 0
1532257625705600 4 -1 -5 -3 0 15 1 -2
1532257625742502 1 -3 -7 0 -1 8 -2 -5
1532257625788379 0 -17 18 -1 -3 4 1 -1
1532257625810321 0 9 -12 0 0 4 1 -5
1532257625826296 -1 13 3 -3 2 -7 0 -3
1532257625848235 0 26 -3 0 -1 5 -1 2
1532257625869179 -3 9 -21 -1 2 31 3 -1
1532257625887172 -2 -33 -28 -1 1 12 -2 -5
1532257625922079 -11 37 19 -2 -4 -2 -1 -1
1532257625967956 -4 -22 11 -2 -5 -13 -10 -5
1532257625981919 5 -12 9 -2 -1 17 5 3
1532257626028798 1 -1 -16 -1 1 2 1 0
1532257626066692 -11 -8 9 0 -1 -1 3 0
1532257626088641 -2 -15 1 2 -2 -13 -3 -1
1532257626134510 5 9 -9 -2 2 4 0 -4
1532257626147476 -3 2 -3 3 3 -25 -1 -2
1532257626161438 3 1 -2 1 1 -2 -1 -1
1532257626185375 0 4 -16 -3 -2 -23 2 5
1532257626208313 -4 -4 37 2 1 9 -1 -3
1532257626222276 3 -9 -115 -12 -5 13 0 -2
1532257626246211 0 21 59 8 5 23 -2 -2
1532257626268153 -10 -2 4 -2 -9 -18 1 5
1532257626282115 -8 4 108 6 2 -3 0 -5
1532257626306052 9 9 -19 -1 -1 12 4 4
1532257626327993 -1 -5 11 0 -4 -35 -10 -11
1532257626366917 0 39 -16 -1 -7 -47 2 2
1532257626373899 0 -11 40 -2 -7 9 10 -6
1532257626410800 1 -57 -26 -4 -1 21 7 4
1532257626424762 -1 -32 -73 -17 -3 7 4 5
1532257626431743 -3 -11 -9 8 -1 3 4 -3
1532257626464655 6 3 78 -13 -6 11 6 4
1532257626479629 -5 15 101 13 2 5 5 1
1532257626493577 3 -13 27 1 6 10 1 1
1532257626530479 0 -3 -5 -14 2 1 1 3
1532257626544442 2 4 53 7 -7 2 -2 -1
1532257626591317 1 -7 9 4 -2 -1 -1 0
1532257626628218 -2 0 27 -5 5 1 0 1
1532257626650159 0 -16 26 12 5 2 -1 -2
1532257626657141 1 14 -22 34 13 7 2 0
1532257626724974 2 9 -20 -5 -4 -3 0 0
1532257626770837 0 1 15 3 0 0 0 -2
1532257626784808 6 11 11 -6 1 0 1 1
1532257626830676 4 -4 -4 0 0 -1 0 2
1532257626844639 -1 -1 -4 -2 1 2 0 1
1532257626868576 -8 -5 -13 -7 -3 -3 -2 -3
1532257626890516 -3 -5 -6 -6 -9 -6 -1 -4
1532257626928415 -6 -11 -13 -3 6 0 -1 -2
1532257626950356 4 7 18 5 1 -1 0 2
1532257626973295 -11 -2 -5 2 1 -2 0 0
1532257626988255 3 -7 -10 -6 2 3 0 1
1532257627011194 -9 -7 -11 0 1 0 -1 -1
1532257627033135 6 5 2 4 6 -1 3 6
1532257627071034 -30 -9 -17 -6 -4 2 1 -14
1532257627092975 16 4 5 1 -1 0 -7 -3
1532257627107935 7 36 20 -3 0 -5 -2 -1
1532257627130874 17 -33 -27 0 0 -27 -18 -34
1532257627144836 26 22 15 9 4 7 8 12
1532257627181738 -24 -4 -9 -2 -1 -4 -8 -11
1532257627213652 -14 3 42 2 -2 2 1 -9
1532257627235601 -11 0 -24 -12 -4 -6 -4 -6
1532257627257535 -7 7 2 5 2 7 8 12
1532257627273493 57 -5 2 -9 -4 -2 -5 -7
1532257627294436 8 -16 -25 -12 -6 15 18 7
1532257627318373 52 -5 -21 -10 0 -18 -11 30
1532257627335335 -32 14 6 0 3 1 11 10
1532257627354276 -123 -43 -15 -7 -3 -4 -44 -49
1532257627393172 -2 6 -5 -1 2 -2 10 8
1532257627407135 -70 -12 9 -3 -1 -2 33 -35
1532257627416111 51 6 7 -4 -6 -5 4 4
1532257627432069 3 25 -1 -5 -8 -4 16 -19
1532257627466975 -26 -8 -11 4 5 9 8 13
1532257627475951 4 -11 -10 -3 6 -11 -9 50
1532257627498890 -114 -18 -7 -1 4 27 17 -8
1532257627520831 53 -39 -43 16 6 3 86 -5
1532257627544767 -14 -16 20 -13 -10 -40 -76 -16
1532257627567706 68 37 31 8 7 13 83 -10
1532257627595631 17 21 8 3 -1 5 40 72
1532257627612585 67 1 3 -2 -3 -1 -93 -62
1532257627634527 111 -25 -41 -14 -12 -21 -94 -33
1532257627670431 65 -25 -7 -3 -2 -45 -34 18
1532257627707333 -20 5 11 0 2 -2 -86 13
1532257627731268 110 4 -27 7 9 26 -26 55
1532257627753210 18 10 -5 3 -1 -8 83 -6
1532257627776149 12 10 27 -7 -3 17 127 58
1532257627813049 9 3 -4 -4 3 7 1 -3
1532257627835989 21 2 10 -3 -3 14 -5 62
1532257627850948 -18 -14 7 -4 -1 7 -1 -18
1532257627872890 -2 -3 3 5 3 8 -2 -11
1532257627886852 16 37 -3 4 0 -1 5 14
1532257627910787 18 40 13 17 8 -1 -12 2
1532257627933727 -12 -49 -9 -12 1 -14 -7 -3
1532257627955667 7 36 2 3 -4 -2 2 -2
1532257627972630 -17 -32 0 -4 -6 2 0 -7
1532257627994564 2 34 19 -2 -3 -6 1 -2
1532257628030468 3 -20 5 2 -6 -23 -4 -1
1532257628044431 7 111 24 -1 -2 17 1 -2
1532257628100291 -10 27 -9 -9 -6 -3 -4 -3
1532257628127209 3 43 -3 2 -1 -2 -1 -1
1532257628187050 -4 10 -3 -12 -4 -4 -4 -4
1532257628196026 -6 -56 -33 -1 6 4 2 -3
1532257628232927 -8 -6 -70 0 8 2 1 -4
1532257628317711 0 40 29 -2 -14 -1 -1 -2
1532257628375545 1 -11 23 1 5 2 -1 1
1532257628435390 -2 19 -17 -2 -1 -2 1 3
1532257628541103 5 5 9 1 -3 -18 -5 24
1532257628654798 -7 3 -10 -3 -2 1 11 14
1532257628675743 2 -4 -4 -4 -6 49 4 0
1532257628714639 6 5 14 -4 0 -35 0 38
1532257628735583 6 -4 -24 -3 -3 -10 -2 11
1532257628834318 -2 -3 1 -4 5 -2 1 0
1532257628900142 0 4 11 2 2 -3 -3 3
1532257629012841 13 -7 8 -7 -3 -6 5 1
1532257629049743 -4 -5 -1 -9 -5 -1 -2 -2
1532257629072681 -3 -8 -27 9 4 6 1 0
1532257629117561 2 6 -4 6 1 -2 -5 -3
1532257629125540 4 4 -5 3 -3 -11 -1 -3
1532257629142494 1 14 -7 -3 -2 -4 -1 -1
1532257629254196 2 -14 -32 -1 0 -3 -3 -2
1532257629283118 -2 -5 2 1 -1 1 0 -1
1532257629307055 -3 -6 3 3 3 3 -2 1
1532257629350939 1 2 3 1 0 0 -2 -1
1532257629395817 -1 -1 -3 -2 1 1 -3 -3
1532257629417758 -1 0 3 -1 -1 2 0 -1
1532257629479593 -2 -4 1 4 5 1 0 3
1532257629485577 -7 11 -12 -6 -1 -2 -1 -1
1532257629508516 4 4 4 1 2 -2 -1 0
1532257629524473 3 1 2 2 1 1 8 1
1532257629539447 1 5 4 -2 -1 -3 -24 -2
1532257629598275 14 9 23 7 3 4 65 2
1532257629628208 -2 -11 0 2 0 9 16 -3
1532257629702996 -13 -8 -4 -11 -4 3 -37 -5
1532257629764830 -3 -26 -5 -6 -8 -24 -41 -1
1532257629792756 -3 -2 -6 -8 -1 -15 -95 -17
1532257629814697 -2 9 3 3 6 34 105 9
1532257629845614 19 53 8 2 6 1 21 33
1532257629897476 2 -19 0 5 7 36 1 -27
1532257630010174 -13 -5 -5 -2 0 12 43 -2
1532257630025134 27 25 18 5 4 7 17 12
1532257630040094 -4 12 -5 -1 -1 2 -1 -12
1532257630077993 10 5 9 4 -3 -24 -16 9
1532257630137833 -5 -36 -3 -3 -2 6 -11 4
1532257630159774 8 -8 -11 -7 -1 -8 -35 -7
1532257630174734 5 -19 -1 0 0 8 45 -2
1532257630197673 2 -5 9 3 1 26 25 13
1532257630235572 4 16 -5 0 2 2 -8 -2
1532257630280451 -24 1 -14 -11 -5 -7 -49 -13
1532257630333310 14 23 -4 0 2 7 7 -1
1532257630340292 2 2 1 -2 -1 1 -23 -46
1532257630362233 2 -4 5 1 2 2 32 10
1532257630438030 -7 -106 4 -2 0 3 21 19
1532257630497870 4 40 2 2 1 3 -11 23
1532257630564691 6 -27 7 4 4 8 -3 6
1532257630617552 7 -4 17 6 6 3 46 -13
1532257630715288 0 -14 6 2 -2 -1 -12 23
1532257630760169 -5 4 -10 -5 -3 -5 -20 -9
1532257630774131 3 14 5 -1 -5 -3 -1 -14
1532257630827987 1 -22 13 8 3 -6 -31 -7
1532257630833971 -8 -29 -10 -4 -1 2 -22 -3
1532257630879849 -4 27 9 -2 2 5 2 1
1532257630894809 7 16 -20 -6 -3 -2 27 3
1532257630977587 -2 -38 -6 2 2 2 6 1
1532257631037427 4 67 -82 8 2 5 11 -2
1532257631083305 -4 82 -20 -2 -6 -29 -5 -4
1532257631097268 -1 -78 41 -3 0 3 -1 -3
1532257631136165 3 -75 19 0 -5 -14 -4 0
1532257631158104 5 16 36 -3 0 10 10 0
1532257631218941 -12 -23 -14 -5 -2 -1 -3 -1
1532257631337624 -7 -3 13 -3 -4 0 -4 0
1532257631360563 -1 -1 3 1 1 6 0 0
1532257631451334 1 8 5 -1 -1 -2 2 0
1532257631502185 -4 -2 0 -2 -4 3 1 0
1532257631563021 -1 6 -2 -13 -7 -1 -4 -2
1532257631577982 -3 -18 -10 -4 0 0 2 2
1532257631599923 7 18 13 3 -1 -2 -3 1
1532257631636824 -4 -2 6 3 2 -1 1 -1
1532257631698659 4 2 -5 3 1 0 1 -2
1532257631729576 -11 -41 -13 -9 -5 -3 -1 -4
1532257631750520 6 31 41 1 0 -2 0 4
1532257631810360 -4 -8 -6 -5 -4 -17 -2 -2
1532257631877199 -13 1 -4 -7 -5 -15 -4 -4
1532257631900121 0 24 10 -2 -1 -5 -2 -1
1532257631937022 -8 -12 21 10 5 -7 1 0
1532257631990878 11 5 -58 9 2 -10 -1 1
1532257632043736 5 -30 -18 8 3 -5 0 2
1532257632064680 -3 6 19 25 6 15 3 -1
1532257632073656 0 -5 45 -7 4 -8 0 1
1532257632110557 1 -7 20 -12 -1 1 0 -2
1532257632148456 12 14 42 18 7 -4 3 -1
1532257632165411 1 8 29 2 -6 -23 3 7
1532257632201335 -7 0 -23 23 24 21 1 -3
1532257632230238 12 21 -77 -32 -15 53 2 -1
1532257632246195 -13 -26 28 20 11 -8 2 -2
1532257632276115 -13 -12 -35 -5 -4 -27 -5 -6
1532257632306035 4 19 48 -7 -6 14 3 1
1532257632319000 -1 15 35 18 0 -6 -3 -1
1532257632342936 -5 -9 48 6 -9 1 -3 -3
1532257632365875 2 -3 2 -1 2 2 -1 -2
1532257632388829 -13 -31 5 -11 -9 -8 -5 -6
1532257632425715 -1 4 20 -6 -2 -1 1 1
1532257632454637 2 6 -2 3 3 -8 2 5
1532257632473595 1 -37 -16 1 2 3 0 3
1532257632545395 -5 0 -1 1 2 -5 0 -36
1532257632559358 6 6 4 0 -1 1 3 18
1532257632606232 0 -1 -3 -2 1 5 -5 21
1532257632643134 -5 4 1 -3 -2 1 -2 10
1532257632679038 2 13 1 4 -1 -1 -7 -4
1532257632702974 -1 -7 -7 -2 0 3 -2 15
1532257632725912 1 16 3 -1 1 1 -1 11
1532257632739875 1 -4 -36 -2 0 1 2 4
1532257632762813 0 -1 7 -2 2 2 1 6
1532257632784755 3 2 23 1 -1 -4 -1 1
1532257632807693 1 -11 -9 -3 -3 -1 -1 -3
1532257632822654 -8 -17 -13 -4 -2 -2 -1 14
1532257632845592 0 3 27 -1 1 2 -1 -1
1532257632868554 -4 -20 6 -1 -3 0 -3 -5
1532257632889475 1 -4 -22 0 -1 -2 1 2
1532257632919395 -4 9 -11 -9 -2 0 2 0
1532257632942333 -1 -4 1 -1 1 1 1 0
1532257632949315 4 14 19 17 -1 2 1 -1
1532257632988211 -2 -7 -3 -8 -2 -1 0 2
1532257633002189 0 10 1 0 -1 -3 -1 -3
1532257633033091 3 -11 6 14 2 -1 0 2
1532257633070992 0 7 -26 -6 -4 -1 -1 0
1532257633092931 -5 4 17 0 0 -1 -3 -3
1532257633107891 -5 -19 5 2 1 -1 1 15
1532257633121853 13 79 14 0 1 -29 -7 44
1532257633168728 -8 3 -7 -6 -3 31 -11 -22
1532257633181693 12 -1 58 6 5 6 2 -14
1532257633205629 -9 -2 -78 4 -2 9 -5 -14
1532257633228568 2 11 -84 -15 -7 10 6 -10
1532257633241533 1 -1 -13 -6 -4 2 -2 -6

1532257633288408 0 0 24 1 2 1 0 28
1532257633302371 -14 2 14 -2 1 3 0 -57
1532257633326323 -1 5 19 3 0 1 -1 -5
1532257633348248 -1 6 14 6 1 1 0 2
1532257633385373 4 9 6 -1 -4 -2 1 -5
1532257633393343 0 -2 2 1 0 -1 -4 2
1532257633422259 -3 6 18 2 1 2 1 -6
1532257633431235 0 -2 -3 0 0 1 1 0
1532257633447203 0 -3 2 -1 -3 -3 -6 2
1532257633470131 -2 7 7 -2 -2 0 4 23
1532257633491076 3 4 -4 0 1 -1 -4 3
1532257633507033 1 30 11 0 -1 0 2 -1
1532257633529971 -4 -8 -4 -1 0 -1 -3 -9
1532257633558895 -4 -9 -3 0 1 0 0 -6
1532257633567869 1 -5 0 1 -2 -1 -1 -6
1532257633594797 3 -6 -2 -1 0 1 -1 3
1532257633610756 -1 -5 -3 -1 -1 0 2 -1
1532257633634700 -5 1 -4 1 1 0 -2 -3
1532257633649651 5 -3 -2 -4 -3 2 1 32
1532257633685556 0 -1 -1 1 -3 -1 -4 9
1532257633707497 0 -4 -2 -2 -1 1 1 2
1532257633715476 10 -1 -2 -4 -4 -4 -4 -14
1532257633731432 1 -2 -1 -1 -2 -2 2 10
1532257633747401 -6 1 0 2 2 -8 -6 -23
1532257633770328 -3 -5 -5 -1 -2 20 -7 -11
1532257633791273 -2 -6 -1 -2 -3 -2 -3 16
1532257633807230 -5 5 2 -2 -3 2 10 5
1532257633837150 -1 -1 -1 0 3 -15 -23 -8
1532257633865074 0 -6 -5 1 1 1 3 0
1532257633888014 0 0 -3 -2 -3 -3 3 -1
1532257633901977 9 6 6 -1 -3 -19 -1 34
1532257633924915 -2 -5 2 -1 1 20 -1 -5
1532257633947853 6 -3 2 0 -1 -8 9 9
1532257633970807 1 -4 -4 1 1 1 -2 -13
1532257633984769 -2 -1 -4 0 -8 -31 -3 -4
1532257634008691 -10 0 -4 0 2 13 1 -9
1532257634030632 1 -2 -5 -1 2 -9 -3 -7
1532257634044595 -2 2 1 0 -1 -2 -1 -7
1532257634075512 -3 -1 0 -1 1 18 -4 -5
1532257634105432 -3 -1 7 0 2 8 -8 -7
1532257634112414 -3 2 16 5 1 10 1 9
1532257634150312 -2 -2 -5 0 -2 0 4 3
1532257634164275 0 1 0 0 1 11 7 1
1532257634179234 4 -12 -2 -2 -1 -11 16 -1
1532257634211150 0 0 1 0 0 -6 0 3
1532257634224114 -4 1 3 -1 0 4 2 -2
1532257634239075 -1 -1 -4 1 1 5 -1 7
1532257634270990 2 -3 -1 0 0 2 -2 0
1532257634284954 1 1 0 -1 0 -1 2 4
1532257634330830 -3 10 3 2 -3 2 0 2
1532257634344792 -2 0 -1 -1 1 2 -3 -7
1532257634351774 -1 -2 6 -3 2 5 -3 -5
1532257634369736 0 1 -41 0 2 5 2 2
1532257634392664 -3 -2 12 3 -2 -9 -1 14
1532257634420589 -3 0 7 0 1 -4 -2 -9
1532257634435550 3 2 1 -2 -5 -12 -1 10
1532257634452504 -2 0 2 0 1 4 -2 -6
1532257634481427 1 4 5 1 0 1 3 2
1532257634490403 5 3 0 -3 -2 4 4 -1
1532257634518329 0 1 1 -2 -3 1 -4 -3
1532257634533300 -3 -5 -18 -4 -5 -15 0 -3
1532257634550251 -3 -4 10 0 -1 0 18 -9
1532257634572184 -2 -1 21 2 0 0 -9 0
1532257634593156 1 -2 24 3 1 -8 -8 -24
1532257634610101 0 4 -1 1 -3 -7 -3 0
1532257634632035 -4 4 28 -1 -2 -2 -2 14
1532257634652980 0 -14 33 3 2 -12 -11 -11
1532257634669935 2 5 -21 -4 -5 17 -16 -6
1532257634704841 8 4 29 -3 -3 -21 6 7
1532257634720801 2 -35 -7 -8 -3 -38 0 6
1532257634750718 1 32 -3 -6 -10 32 35 -59
1532257634764681 -4 1 17 1 3 17 -17 41
1532257634787619 -8 -7 22 1 -2 -16 -14 -14
1532257634794601 -3 -15 19 -4 0 -16 -4 15
1532257634833497 4 15 62 5 2 2 -2 -6
1532257634847460 -1 28 83 1 3 -14 -7 -1
1532257634854441 3 22 -2 -2 0 -2 2 -1
1532257634900319 3 -6 -32 -4 -2 -2 2 7
1532257634908297 3 -4 44 -2 -1 -5 -5 -10
1532257634931236 -3 -7 -9 3 1 1 -2 -5
1532257634953177 2 -6 -27 -3 0 -1 -2 0
1532257634967140 -1 -5 -17 -5 -3 5 -1 -1
1532257634982100 1 4 -2 1 0 14 4 -2
1532257634992073 -1 -12 -24 -1 -1 -9 -2 6
1532257635015013 -4 -1 9 3 -1 -5 -2 1
1532257635035956 -8 -13 7 -2 0 -6 -3 -4
1532257635073854 6 23 6 0 1 -2 5 26
1532257635095796 4 9 13 -4 -1 -3 -2 -6
1532257635133694 -2 -5 6 1 -2 0 0 5
1532257635146660 2 24 -1 0 1 -1 -1 1
1532257635155645 -7 -11 15 -2 -2 -2 -3 -9
1532257635193534 -2 -2 6 -1 -1 1 -4 -2
1532257635215476 0 4 20 -3 -1 -1 -2 -4
1532257635232431 7 12 -1 1 -1 0 7 17
1532257635260356 -1 16 -7 -2 -2 0 -5 -8
1532257635276313 -1 -11 5 0 -1 -1 -2 -2
1532257635313214 -4 3 -4 -1 -2 -1 0 -3
1532257635336167 -2 13 -2 0 -1 1 -1 -4
1532257635358095 0 -9 -1 -2 -1 0 0 -2
1532257635375054 -1 -1 -1 -1 -1 0 0 -1
1532257635395993 -1 -5 0 -2 0 0 -2 -1
1532257635411951 -1 6 -1 -1 -2 -2 -1 0
1532257635446857 1 1 10 0 1 -1 -1 -2
1532257635470793 3 0 -4 14 5 2 1 -1
1532257635493732 0 -2 -4 -4 -2 0 -1 1
1532257635506697 -1 3 0 -4 -1 -1 -1 0
1532257635553572 -6 -25 -62 -13 -5 -4 -1 -5
1532257635575513 1 7 27 4 3 1 1 1
1532257635622388 -2 2 16 -5 12 3 0 -1
1532257635629381 0 9 21 21 2 0 0 -1
1532257635681231 4 7 15 10 5 1 1 -2
1532257635696190 0 3 -9 -1 -1 -1 -1 0
1532257635733092 -8 -1 -3 7 4 -7 -8 7
1532257635747055 5 2 5 -2 3 3 1 -11
1532257635776974 21 -1 0 -1 0 1 8 -5
1532257635814874 -27 -6 -13 -1 1 14 4 10
1532257635844793 15 3 -7 -1 4 3 -1 3
1532257635875710 21 -1 7 5 1 19 19 26
1532257635889673 62 -6 7 0 4 3 -11 0
1532257635913609 -87 29 36 3 -3 -16 -20 6
1532257635935563 87 15 31 16 1 4 -42 70
1532257635950510 -90 -26 -23 -19 -4 24 11 -12
1532257635973449 50 19 6 -9 1 -1 19 25
1532257636003368 50 5 13 1 -5 -11 3 6
1532257636018329 -45 -2 19 0 3 8 65 22
1532257636056227 -30 10 28 2 8 7 2 15
1532257636103103 102 28 14 -2 -1 -3 56 75
1532257636107092 -128 -30 -2 -10 -15 -37 -125 -94
1532257636138009 -42 11 27 1 -1 -9 -12 0
1532257636175908 55 -31 50 10 17 18 -87 -60
1532257636189870 -7 28 18 -2 1 -8 -26 11
1532257636212809 -58 -65 -115 -9 1 10 -4 -10
1532257636235748 3 24 28 12 14 -5 45 77
1532257636273646 26 6 -63 -6 -1 16 127 10
1532257636295588 31 70 106 7 -1 14 94 8
1532257636309550 8 26 31 7 1 -8 17 20
1532257636333486 -44 -26 -22 4 3 1 -54 -21
1532257636363406 19 10 10 -7 -9 -10 8 1
1532257636400307 -9 -8 -16 -7 -5 -8 -14 -7
1532257636423245 -6 -11 10 0 6 8 8 1
1532257636438206 -20 34 24 -3 -2 -12 -2 -4
1532257636453166 19 2 -20 -12 -1 35 4 -2
1532257636489069 -39 -33 -26 -25 -19 -6 -8 -13
1532257636512009 4 9 -3 -14 -3 -4 1 2
1532257636557887 4 -35 -12 13 2 -1 -2 1
1532257636603763 -2 11 30 20 12 4 -1 -6
1532257636835144 -10 6 3 4 1 -8 -1 -19
1532257636894985 2 3 3 0 1 1 1 1
1532257637014664 -6 -7 4 2 3 0 -3 -34
1532257637037603 -5 -39 1 5 3 11 3 5
1532257637075502 0 -6 0 -10 -13 -4 5 2
1532257637112403 5 21 0 5 1 -6 1 -2
1532257637180221 -5 -18 -12 -6 -2 7 -2 -3
1532257637263000 10 -25 -2 6 1 6 0 5
1532257637301901 -4 21 4 -13 -3 -2 -2 -6
1532257637397641 4 -5 7 0 -1 -1 0 -2
1532257637435540 6 -3 -11 -5 -3 -1 1 -3
1532257637489395 -6 2 6 -6 -1 -1 -1 -3
1532257637519327 -4 -9 5 -3 -1 -1 1 1
1532257637617053 0 16 4 -1 0 -1 -2 -2
1532257637639993 0 15 3 0 -1 0 -1 -1
1532257637652958 3 -3 -4 -1 -2 -13 -2 -2
1532257637697837 -3 -5 2 -1 4 3 1 -1
1532257637749699 -7 -10 1 -1 -4 4 -3 -3
1532257637796574 -1 3 -5 9 4 0 9 -1
1532257637901293 -7 1 3 0 -3 -18 -59 -14
1532257637998035 -10 -47 -3 1 -1 -10 -20 -5
1532257638065853 3 12 -6 -10 -2 8 -13 2
1532257638119709 -1 -19 1 7 0 -2 38 9
1532257638140654 -1 4 1 10 8 11 3 -3
1532257638177555 -12 -7 -7 1 -1 -4 -23 -10
1532257638237395 -9 0 2 1 3 5 -15 12
1532257638275294 -6 -2 3 5 4 0 13 6
1532257638297235 -10 2 -10 -6 -5 -2 -25 -5
1532257638342115 14 -16 -10 0 -1 -14 0 -8
1532257638387993 -20 -22 -24 -13 -8 -14 -5 -5
1532257638454813 26 -2 0 3 1 -4 -33 -33
1532257638514653 -13 -2 2 -2 -2 15 -13 3
1532257638597432 9 -54 10 6 2 -5 -8 23
1532257638651287 -5 31 -8 -7 -7 -9 18 -6
1532257638703150 13 2 11 6 0 1 11 7
1532257638726088 -1 22 -7 -5 -2 5 -10 -3
1532257638778947 10 14 -3 0 -1 -2 -12 14
1532257638785940 -4 -8 -4 0 -1 -2 0 -7
1532257638836792 -4 -36 -6 -1 0 -7 -23 -2
1532257638875688 -2 3 6 1 -2 2 23 4
1532257638900621 6 -52 0 -3 -4 -3 15 8
1532257638920568 -14 -31 -4 2 -1 -5 -12 -2
1532257638956472 -10 -12 -15 -6 -2 -4 -1 -7
1532257639003347 -4 -15 5 6 2 4 14 0
1532257639017309 18 48 20 3 0 0 20 7
1532257639063187 -17 42 -9 -1 -3 -7 -17 0
1532257639077149 6 18 8 3 1 0 0 0
1532257639144967 3 82 0 0 3 9 11 3
1532257639161922 10 24 26 2 -4 -11 -7 -4
1532257639167909 1 -8 -22 1 -3 -5 1 1
1532257639189848 -8 9 6 -4 1 4 -2 1
1532257639211788 -2 -63 -18 1 -1 1 -1 -3
1532257639222760 7 11 -51 -3 -2 0 0 7
1532257639256669 3 -18 -32 0 2 27 4 1
1532257639280605 1 -37 26 0 -3 -13 -1 0
1532257639303544 6 1 -25 -3 -1 -3 -4 1
1532257639363384 -2 15 6 0 -3 -4 -4 -3
1532257639447159 10 -13 -3 -1 2 4 3 -21
1532257639453147 2 11 -2 0 0 -1 2 -2
1532257639519965 2 9 11 1 -1 0 1 6
1532257639556867 -9 -16 -6 -9 -6 -7 -4 0
1532257639625683 -1 -1 6 4 0 -4 -3 -1
1532257639639645 -10 -24 -3 -10 -5 -1 -1 -2
1532257639843101 -5 25 4 2 0 -6 1 -2
1532257639955813 6 40 98 11 22 15 1 0
1532257639999683 3 19 8 22 4 -38 -2 1
1532257640030600 6 21 -19 -8 2 54 5 -3
1532257640068498 7 59 7 -12 14 -10 0 4
1532257640113394 -14 -31 -44 -19 -13 -37 -3 -3
1532257640166241 21 56 -18 47 17 -17 -2 0
1532257640188187 -3 6 14 -2 -2 -21 -2 -2
1532257640226076 -2 -6 10 -5 4 -17 1 2
1532257640270957 -7 -14 20 -14 0 4 -2 -3
1532257640293896 -7 -5 -30 -15 -4 -2 0 1
1532257640315837 -5 41 -2 0 -4 -1 -3 -1
1532257640345756 3 -23 -36 -9 -7 2 -1 -1
1532257640375677 -2 12 37 -3 0 -9 -2 -2
1532257640405597 -2 2 9 2 5 3 -2 0
1532257640428536 4 -2 -11 -8 -6 1 -1 0
1532257640449480 3 -3 2 -5 1 1 2 3
1532257640469427 -8 -11 9 3 1 -2 1 1
1532257640497351 -1 -2 -10 1 0 0 -2 -7
1532257640520290 -6 -2 2 -1 -2 -2 -3 -9
1532257640564173 5 1 5 6 2 -2 0 -1
1532257640593096 0 -4 1 1 2 5 -4 27
1532257640608055 -13 24 5 0 -2 -2 7 -31
1532257640645954 0 9 -3 1 -2 0 -7 -6
1532257640667896 -5 -22 -4 -3 4 -12 -1 -4
1532257640681858 -8 -2 -7 -4 3 5 3 3
1532257640728733 3 33 2 1 -2 -5 -3 0
1532257640750674 -1 3 7 -1 1 -1 -2 -1
1532257640767643 -11 7 21 -1 0 -1 -1 -2
1532257640797549 -2 2 5 -2 -3 1 -1 -1
1532257640810514 -2 -4 9 -11 -6 2 -1 -9
1532257640827469 11 -21 -19 2 2 -2 -2 2
1532257640850408 -10 19 -3 5 0 -4 -2 0
1532257640878333 3 -15 -6 -2 -4 1 -2 0
1532257640908253 15 -8 -6 2 19 3 3 1
1532257640931191 -8 -15 -10 1 4 2 0 1
1532257640947165 16 3 -3 1 -3 0 0 2
1532257640970088 -7 -22 -14 0 0 -2 -2 -5
1532257640991031 8 -10 -16 2 2 2 -3 -2
1532257641006989 -8 19 31 4 -1 48 3 -9
1532257641041895 -22 24 -24 -1 1 2 -17 -18
1532257641073827 -1 -61 -63 0 -1 -5 -14 36
1532257641087773 19 -7 59 4 6 24 20 20
1532257641110724 -6 -14 47 -13 -10 -13 11 4
1532257641151618 0 -21 -98 31 5 3 10 -2
1532257641161575 -6 1 -22 24 14 13 13 7

1532257641193490 6 -15 3 5 -1 -11 6 11
1532257641209447 2 -7 0 -1 -1 -5 -4 -6
1532257641231388 1 7 30 4 -2 -7 0 0
1532257641268290 -3 7 3 -5 -5 -5 -2 -16
1532257641282253 4 -3 -3 -7 -3 0 1 5
1532257641305191 23 -11 9 1 0 -2 -3 4
1532257641312172 3 16 -2 -1 1 0 2 -4
1532257641330124 0 7 4 -2 -2 -3 -2 0
1532257641351069 -8 14 11 -4 -1 -1 -3 -41
1532257641372012 10 28 10 3 -3 -1 5 23
1532257641397943 3 3 -1 -3 -3 -2 -2 3
1532257641412917 -7 10 -4 -2 0 -1 0 7
1532257641431853 -5 -4 0 0 -1 0 -2 -34
1532257641449805 -4 -6 -4 -1 1 -1 -4 16
1532257641470748 7 0 3 -1 0 0 3 12
1532257641491693 -16 -1 7 -2 -2 -2 -5 -3
1532257641509645 -4 -41 -18 4 4 4 1 -10
1532257641532583 3 4 -3 0 0 0 -6 3
1532257641547543 9 -6 -6 -3 -2 -1 3 10
1532257641569485 3 -3 3 -5 -4 -1 -5 0
1532257641605389 5 -1 11 2 1 -13 -2 2
1532257641628328 -3 -14 -4 -2 -2 11 -10 -9
1532257641651266 -1 6 -5 -1 -2 -1 2 2
1532257641665229 4 -11 -13 -3 -1 -3 3 13
1532257641673207 -1 9 2 -1 -1 2 0 5
1532257641694151 0 6 -6 1 -1 3 1 10
1532257641712103 0 -9 -4 -1 0 1 4 15
1532257641732050 3 6 2 0 0 0 -1 0
1532257641770946 -1 -3 -4 -3 -1 -2 0 1
1532257641784908 -9 9 0 0 -2 -2 -1 -7
1532257641791889 2 -9 -3 0 -2 2 0 4
1532257641830787 4 -1 0 -2 -1 -2 -2 10
1532257641852728 -1 -23 -4 -1 -2 2 -4 0
1532257641890626 7 -10 -1 1 2 3 -1 -13
1532257641905586 3 -2 -3 -2 -1 0 -5 -8
1532257641928525 -3 3 3 1 1 4 3 13
1532257641950504 -2 3 -2 2 1 0 1 1
1532257641964468 -1 10 0 -2 -2 -1 3 -8
1532257641995385 4 6 -17 -2 -2 3 0 -6
1532257642010344 -10 3 15 0 0 4 1 0
1532257642024307 -8 -13 -20 -1 -3 0 -4 -13
1532257642048243 3 -14 -65 -3 0 -2 0 4
1532257642071182 3 8 48 6 0 3 -2 -5
1532257642093532 7 -3 28 1 3 6 7 -2
1532257642109490 1 -15 25 -2 -3 -2 1 2
1532257642132429 -3 3 -37 -1 0 -7 -3 1
1532257642161351 0 23 24 3 1 -6 10 -23
1532257642170327 8 29 13 -1 -6 -68 0 20
1532257642205234 -26 -77 7 0 -28 -63 -17 10
1532257642221191 2 -11 10 4 11 111 -7 -14
1532257642242135 16 -4 17 2 10 1 -6 -2
1532257642288079 -10 -28 -50 -11 -1 -11 -7 -1
1532257642318011 -2 -7 109 10 5 4 -1 2
1532257642347920 -2 -13 -99 -12 -1 3 -3 -8
1532257642354901 2 11 30 6 1 0 -1 1
1532257642384821 3 -17 30 4 -2 5 0 13
1532257642393797 -2 -3 -6 -7 -5 -4 0 -7
1532257642414740 -12 -44 0 -9 -2 -4 -2 -9
1532257642432706 3 0 32 0 -1 0 -3 3
1532257642453643 1 -16 -53 -4 -2 2 2 -2
1532257642474581 0 16 20 -5 -7 1 -1 -2
1532257642513477 3 -17 0 3 -3 0 4 2
1532257642527440 0 0 -4 -2 -6 -3 -1 -2
1532257642534421 1 7 17 1 7 -1 -2 0
1532257642552376 -2 -2 7 -6 -20 -7 -1 -4
1532257642575311 1 4 28 20 10 3 1 0
1532257642597266 -2 -5 24 -4 3 1 0 0
1532257642633157 -8 1 3 -1 -8 -3 -2 0
1532257642647120 1 4 -7 -10 -10 -4 -3 -1
1532257642671056 -3 -5 3 -2 5 2 -1 -2
1532257642692997 -2 9 -3 -6 -19 -6 0 -2
1532257642715935 -2 -5 -4 0 -2 -1 -1 0
1532257642730896 5 -1 -7 -1 -4 -2 -2 0
1532257642753847 2 6 8 4 -2 1 0 0
1532257642790735 4 -3 -1 -4 -3 2 0 1
1532257642813674 2 1 -1 -2 1 -2 1 0
1532257642873514 3 0 1 1 0 -3 0 0
1532257642886483 5 1 4 -1 -10 -4 -1 1
1532257642896453 4 -1 -4 7 7 3 2 1
1532257642933354 8 15 9 5 0 -2 2 3
1532257642947317 -4 0 13 -2 1 0 -1 -2
1532257642956293 3 3 3 -3 1 -3 -2 -3
1532257642993194 -1 1 5 0 -14 -3 0 3
1532257643007157 -1 13 25 -3 1 9 8 -4
1532257643016132 -28 -10 -2 -3 -2 18 5 -6
1532257643040070 13 -7 -20 -6 1 15 7 2
1532257643075974 -16 -5 -34 2 1 -7 -4 4
1532257643120854 0 -18 -18 -3 -1 -10 -6 -6
1532257643150772 -5 16 22 -6 -2 -1 3 -50
1532257643173711 13 -5 -47 -1 -1 1 9 30
1532257643186677 -39 -17 -3 1 -3 -10 -7 -28
1532257643216597 -52 -15 -6 -7 -2 -6 -5 -17
1532257643234549 -7 2 -5 -8 -5 -4 -2 -6
1532257643257488 25 3 3 6 2 8 6 13
1532257643277434 2 -9 -4 0 -3 -6 0 8
1532257643315332 0 -1 -6 -2 0 3 3 -5
1532257643329296 -59 -11 -6 2 4 14 15 35
1532257643352234 37 22 6 0 4 2 20 32
1532257643375172 -14 -5 -6 2 1 15 -34 1
1532257643397114 8 3 5 0 -3 -12 24 -33
1532257643413072 4 -3 -2 -2 -14 -11 -8 -16
1532257643435013 -69 -33 -8 -11 -13 -7 10 -74
1532257643448976 -46 5 6 9 7 2 18 46
1532257643472911 57 10 1 1 4 17 -55 13
1532257643494853 -46 7 5 2 0 -14 -66 -70
1532257643509812 -8 6 1 -2 2 -37 -59 13
1532257643532751 123 3 -7 -4 1 25 4 39
1532257643562671 -15 9 5 7 8 18 -75 63
1532257643577631 -15 -25 -9 -1 -3 -3 57 -4
1532257643600569 -47 -22 -7 -2 -1 1 11 -16
1532257643631488 11 3 10 2 -2 14 -49 -40
1532257643654426 22 28 17 -2 -5 11 59 26
1532257643675370 -33 16 -19 -3 -9 -5 -30 -16
1532257643689333 86 29 13 1 1 -1 -15 -19
1532257643712272 -32 -5 -36 -2 -4 -15 23 38
1532257643735211 -53 -4 18 1 3 14 1 -58
1532257643749172 0 -18 -78 -6 0 -2 -63 22
1532257643773108 58 7 27 5 0 -5 -19 19
1532257643809012 -21 -21 -12 -1 -5 0 29 0
1532257643832949 11 9 12 -1 0 -7 11 17
1532257643854890 8 -2 11 -2 -5 -6 13 8
1532257643869864 12 31 6 -2 2 2 -3 0
1532257643899770 -18 -28 -16 3 -1 5 5 -3
1532257643923716 6 5 2 15 2 3 11 5
1532257643945658 11 58 15 -3 0 0 4 5
1532257643997520 0 18 14 -5 -7 -4 -4 -3
1532257644036416 -3 -33 -16 -9 -4 0 -2 -2
1532257644072320 -2 -35 0 -2 -4 4 -2 -5
1532257644169060 6 -8 -3 6 6 -2 3 1
1532257644244858 2 0 2 0 5 0 3 -15
1532257644335632 -5 -9 -11 -7 -8 -8 -5 5
1532257644358553 2 20 0 2 1 -1 1 0
1532257644403434 3 8 1 -2 -11 -14 0 32
1532257644432356 3 -7 5 6 1 3 -7 1
1532257644500175 1 11 -1 -6 -9 0 -1 -7
1532257644553034 -4 -8 -1 -2 -13 1 -2 -13
1532257644597914 7 -2 5 1 -2 -11 2 1
1532257644634816 -9 2 7 3 5 -3 1 3
1532257644694655 -3 -1 -9 -3 -1 -7 -1 1
1532257644778430 -6 1 -18 -5 -3 14 1 -2
1532257644838287 -1 9 -5 -5 0 -1 -8 -11
1532257644875172 -6 -29 15 -5 0 -5 -1 -1
1532257644951967 -3 -2 -3 8 2 0 -4 -3
1532257644996847 -1 -8 -13 3 1 3 0 -1
1532257645087604 -1 7 1 -2 2 1 2 1
1532257645138468 0 -4 -3 -3 -4 -2 33 0
1532257645152432 -2 -5 -3 -2 -1 0 -10 -5
1532257645175370 -7 10 -2 1 1 1 10 -2
1532257645242191 -4 -20 6 3 -3 -15 -86 -12
1532257645281087 -2 4 -15 -3 2 7 35 10
1532257645349902 10 -29 13 7 5 4 77 4
1532257645377828 11 -31 12 7 2 6 -54 1
1532257645414739 -5 -3 -13 -7 -7 -6 23 -2
1532257645474569 12 25 10 3 -3 -22 -17 16
1532257645528426 8 27 4 0 0 -3 -8 9
1532257645534410 -9 -28 0 1 4 5 -3 -11
1532257645611205 0 22 6 0 -2 -5 27 -27
1532257645654090 7 17 3 2 0 -1 4 -1
1532257645663066 8 9 -2 -14 -9 -10 34 0
1532257645700963 10 -13 -13 -6 -6 -5 14 5
1532257645713930 8 -1 10 19 1 5 7 -6
1532257645759807 -32 -29 -33 3 -4 -25 -39 -11
1532257645774767 1 6 13 -2 1 8 4 -12
1532257645820644 -8 40 20 7 3 -3 -20 1
1532257645850564 4 -4 12 5 8 24 7 -4
1532257645954287 22 27 -5 -6 -5 -4 0 1
1532257646029087 27 -26 4 3 -1 -16 -16 -7
1532257646112863 5 -4 0 -1 0 5 -15 -1
1532257646127823 -14 8 3 0 -1 -15 -9 0
1532257646152756 -7 -78 -3 2 6 11 -5 -1
1532257646174697 -17 58 -7 -2 -1 6 20 -25
1532257646187663 -12 0 2 0 -2 -1 -49 -30
1532257646219588 -1 -32 -2 -2 0 4 -5 -6
1532257646240522 5 8 -2 -6 -4 -7 -22 -11
1532257646277423 -5 -1 1 2 1 -6 -41 -8
1532257646323299 -4 -23 -14 -7 -4 -3 36 10
1532257646352223 -3 -38 -17 -5 -6 2 -37 -12
1532257646394111 -2 7 9 2 0 -1 54 23
1532257646408074 6 28 -1 3 4 4 10 -4
1532257646412063 11 -32 13 2 -1 2 -4 -55
1532257646441983 -12 -3 5 4 1 3 2 1
1532257646465919 13 49 -4 1 -3 -3 -16 9
1532257646480879 2 -3 11 1 1 3 30 2
1532257646516783 -14 -34 -23 -7 -3 -1 2 -6
1532257646563657 16 -2 -5 -3 1 -3 8 9
1532257646576623 -8 -14 -4 -5 -4 1 -4 -4
1532257646630479 -20 3 -3 9 -3 0 29 -9
1532257646636463 8 -50 -2 -13 -3 1 9 2
1532257646660399 11 9 -11 -3 1 6 13 -6
1532257646674361 -11 -16 -3 -5 0 -4 -31 1
1532257646691321 -3 23 0 -9 -4 -3 -4 -11
1532257646736196 1 13 5 0 -2 -6 -15 -4
1532257646765118 10 7 6 2 -1 -16 -31 -6
1532257646775092 -15 -5 -7 -2 2 5 12 4
1532257646803017 5 -10 -6 3 0 0 -3 0
1532257646839919 1 61 99 -1 -1 -50 -5 -1
1532257646862857 2 -9 -25 3 2 57 -1 3
1532257646946633 -3 -36 -59 3 9 -1 0 1
1532257647005476 3 38 37 4 2 -9 -2 0
1532257647066313 -44 -23 -35 0 3 2 1 -9
1532257647178014 -10 -13 -12 -2 -3 -13 -7 -3
1532257647343571 12 20 -12 7 7 -11 -12 5
1532257647605875 0 5 1 5 3 -8 4 2
1532257647846227 11 20 53 12 -4 30 0 3
1532257647868168 -16 -33 77 10 24 -17 2 -2
1532257647919033 -11 -46 -128 -16 -13 0 -1 -2
1532257647942977 -2 -9 6 12 20 10 -1 -1
1532257647949970 3 34 -24 3 -8 -7 3 4
1532257648002833 7 -12 -23 1 13 -16 3 1
1532257648033734 -6 -11 -22 -13 -10 -61 -4 -2
1532257648048694 -28 23 1 -11 -3 20 3 -3
1532257648085613 -9 4 -48 0 1 -28 -1 -4
1532257648108534 -6 11 40 10 4 38 2 1
1532257648122496 4 8 39 4 9 -24 -2 0
1532257648153414 3 -22 -9 5 0 8 0 -1
1532257648167376 -2 30 13 -2 -2 -11 -3 0
1532257648221232 -5 6 25 7 0 7 0 -5
1532257648281072 -14 6 28 3 5 -2 -2 -2
1532257648302017 2 -21 35 0 -5 -3 -4 -3
1532257648324955 4 22 -15 -2 -2 -8 -7 2
1532257648363851 3 -20 23 -6 -6 -12 -6 -2
1532257648393771 -8 -2 -73 0 1 1 1 30
1532257648408731 4 11 14 4 0 -1 0 -8
1532257648421696 7 -7 22 1 3 7 5 53
1532257648445632 1 -12 7 -2 -3 0 -1 -14
1532257648468576 -1 -12 -14 0 3 1 -2 -22
1532257648490512 -9 7 2 -6 -5 14 6 -20
1532257648505472 4 -34 -4 0 2 -1 4 36
1532257648528411 0 -12 2 -1 -1 -18 -1 -13
1532257648565311 -1 19 -9 1 0 -10 -5 -25
1532257648620166 -1 -4 2 -2 1 7 2 2
1532257648692970 -11 1 16 -1 -3 -3 -1 -4
1532257648715910 4 7 10 -5 -2 8 0 -1
1532257648721894 2 -3 4 0 -4 -6 -1 -3
1532257648745829 -15 -7 -18 0 -1 0 -1 0
1532257648770777 2 -16 -10 -6 -3 -4 0 -2
1532257648790710 -10 -4 -27 1 1 -3 -2 -4
1532257648807665 14 19 14 -4 -3 -1 -2 -13
1532257648850550 6 -12 -46 -3 0 1 1 15
1532257648865509 -17 -1 -15 -2 -7 -51 -3 -11
1532257648888448 -7 50 19 -1 12 33 31 67
1532257648902411 36 -10 -10 0 0 10 -5 15
1532257648947291 -2 17 66 -6 -2 -7 -7 -14
1532257648986187 1 3 3 -16 -3 7 4 2
1532257649008128 -16 -6 36 0 1 -5 -2 -17

1532257649045029 -3 1 -1 -8 -4 -12 -4 -10
1532257649090907 1 -25 -24 -3 -3 -6 -7 -20
1532257649119829 0 12 12 4 1 0 -1 -15
1532257649150747 -1 0 0 0 1 6 -5 -6
1532257649171691 -2 8 2 3 2 0 -3 9
1532257649195627 -4 -7 2 2 1 -1 0 -5
1532257649212581 -8 -7 1 0 2 1 -3 -22
1532257649233525 5 -5 -4 -3 0 -3 0 3
1532257649249483 1 8 2 -2 -4 1 1 8
1532257649272423 -2 -4 -2 1 1 2 1 -2
1532257649293365 -1 7 -4 -2 -7 4 -4 44
1532257649316304 -3 -6 -1 1 -1 -3 7 -19
1532257649345227 -9 1 0 -2 0 -3 -6 -42
1532257649353220 0 -4 -3 1 1 -2 0 -10
1532257649370160 -2 -1 -4 -2 -1 -4 -3 -2
1532257649392111 -5 1 0 -1 1 9 0 -4
1532257649435984 11 3 -1 -4 -5 5 -3 2
1532257649451942 -3 0 1 1 0 -7 2 -3
1532257649464907 1 4 -3 -2 -2 -5 1 10
1532257649479867 -5 -4 -1 3 1 -1 -1 -16
1532257649510784 -7 9 0 2 2 8 6 19
1532257649516768 -3 -2 -1 -2 2 -3 -3 -20
1532257649548688 1 -4 -1 -1 -2 -2 -1 -9
1532257649570630 1 11 -2 -3 -3 -5 -3 2
1532257649593569 0 -4 1 0 -1 -2 -1 3
1532257649609530 1 -1 0 1 2 -5 -4 3
1532257649632465 -3 -3 -2 -1 0 -4 -1 -2
1532257649675351 2 -4 -1 -1 1 3 2 -8
1532257649715244 -6 12 0 0 -2 2 0 0
1532257649751148 -10 -9 -3 -2 3 -11 -11 -79
1532257649796027 3 -4 1 3 2 8 4 4
1532257649832929 -4 -1 2 1 2 -4 -2 1
1532257649847888 1 -12 -1 2 1 4 1 -1
1532257649870827 -15 11 2 3 3 -2 0 -5
1532257649893766 5 3 2 -1 0 2 -2 27
1532257649930667 -2 7 5 -1 -2 -2 -3 -11
1532257649946625 -1 -4 -29 -1 1 7 0 -3
1532257649968585 -11 12 9 -1 -2 -1 -7 -47
1532257649991509 -6 -10 10 -2 -1 10 4 -20
1532257650013446 10 2 101 1 0 1 0 18
1532257650036385 1 -11 -116 -12 -2 0 1 8
1532257650049387 1 3 15 5 3 -5 0 8
1532257650087285 -2 8 13 7 15 -44 -3 -4
1532257650110224 -13 12 -8 5 13 55 8 -23
1532257650132192 -2 -1 14 3 -10 76 -12 27
1532257650147154 7 -9 8 -2 -9 -52 -3 -2
1532257650170093 4 2 59 9 1 7 9 -2
1532257650193032 6 -6 6 -18 -11 -9 -10 0
1532257650215970 3 11 44 7 -1 -8 -1 2
1532257650229933 -2 -18 18 -35 -13 -14 -3 5
1532257650252875 -1 1 -21 3 0 -3 -4 -7
1532257650289773 0 -2 -6 4 -1 1 -3 -1
1532257650313709 4 16 20 -9 -6 -1 -1 -8
1532257650326675 7 -19 -17 5 3 0 0 2
1532257650350610 -1 -6 -10 1 1 -2 0 -2
1532257650372566 -1 10 -39 -2 -2 -1 1 -2
1532257650386514 -1 -3 -34 1 3 1 -3 -3
1532257650432391 -1 1 17 0 0 0 0 0
1532257650447352 -2 24 17 1 2 1 0 -2
1532257650470290 4 8 5 1 0 -1 0 1
1532257650492232 -10 -17 0 0 0 2 -4 -2
1532257650507191 1 -14 -19 -1 -2 1 0 1
1532257650540103 1 9 7 14 5 4 -2 -1
1532257650561047 -1 -2 10 -6 -2 -3 -2 -2
1532257650582988 -3 3 -3 -1 0 0 0 -2
1532257650589970 1 24 33 -1 0 -2 -1 -1
1532257650612909 -3 -5 16 12 2 0 -1 -4
1532257650649810 1 0 -2 -5 -2 0 0 0
1532257650672749 1 4 1 1 -3 -1 -2 -2
1532257650686712 -6 -7 -10 -3 -4 -3 -1 -2
1532257650709650 3 6 14 1 1 0 1 2
1532257650732589 -1 -4 -3 -7 -3 -3 -1 0
1532257650762509 -1 0 -3 -11 -4 -1 -1 -2
1532257650771485 0 -1 2 3 1 -1 1 0
1532257650794436 2 3 0 3 1 1 1 -1
1532257650838306 2 7 8 -9 -3 -1 -2 -1
1532257650852269 -3 -5 -5 2 2 1 2 1
1532257650868225 0 7 -32 -1 1 -2 -2 0
1532257650890168 -1 6 6 0 1 -1 -1 -1
1532257650913106 0 -7 9 -1 -3 -2 -1 0
1532257650935047 -3 -8 -10 -2 -3 -3 -2 -2
1532257650950007 -6 -11 -3 -4 -3 -1 -1 0
1532257650972946 -2 -8 5 2 -4 -2 -1 -2
1532257651009848 0 4 4 1 0 2 0 -1
1532257651032785 7 15 19 7 4 0 1 2
1532257651055724 -3 -8 -7 0 3 0 2 -2
1532257651094621 6 8 11 0 -1 1 0 0
1532257651115565 -1 1 1 -2 -2 -1 -1 -1
1532257651137506 1 13 12 8 6 4 4 0
1532257651177399 2 2 -2 -1 -5 -4 0 2
1532257651212306 6 10 19 1 0 -5 -3 -2
1532257651250205 0 10 1 -3 0 -1 -2 -5
1532257651296082 7 -1 2 4 -1 2 1 3
1532257651355922 -18 -1 9 2 4 10 -2 -31
1532257651378861 19 1 -5 -1 2 4 0 -8
1532257651431719 47 1 -4 5 2 -1 3 25
1532257651445682 -45 -2 -5 -3 -6 -6 -9 -73
1532257651467623 -15 5 10 2 1 -1 5 -3
1532257651512503 -52 -1 -12 -5 -1 -2 -60 6
1532257651550402 -29 -1 -4 -6 -8 -3 55 -19
1532257651618236 36 5 -6 0 -1 -15 -19 18
1532257651641159 34 8 3 5 7 14 -59 -25
1532257651686039 5 -18 -7 7 8 9 53 -44
1532257651693020 52 25 17 8 18 34 -2 50
1532257651732918 41 -12 -41 -14 -20 -27 -28 -14
1532257651752873 44 27 77 -4 -10 -6 81 -6
1532257651797740 30 -3 -15 -5 -4 -6 88 27
1532257651812700 -70 19 19 7 4 12 102 30
1532257651849602 -25 -55 -92 -8 -2 23 -47 12
1532257651872541 -31 -8 53 5 6 5 -103 0
1532257651955318 -7 2 -15 5 6 1 14 16
1532257651980259 -7 7 13 14 4 13 63 -13
1532257651993221 -6 8 -6 12 0 2 7 1
1532257652075996 -4 5 3 -3 2 3 -11 -3
1532257652136833 3 46 7 1 0 -3 0 2
1532257652157778 2 47 0 0 -4 1 -2 1
1532257652180716 1 -40 -20 -2 3 -2 -3 -1
1532257652203655 1 45 15 -3 -2 -7 -1 -3
1532257652255516 3 2 -1 0 -2 -2 -6 0
1532257652315356 -4 -16 3 -3 -12 -7 -1 -2
1532257652338295 -3 13 -15 -7 -4 -6 -2 4
1532257652412098 0 -5 0 0 2 1 -1 15
1532257652495874 -4 -2 -5 3 3 0 -1 -3
1532257652600593 4 4 -12 1 -7 -1 8 22
1532257652675393 6 1 0 -1 -1 -1 -4 21
1532257652758172 4 9 3 0 1 -2 3 13
1532257652781111 -2 -24 0 4 4 3 -5 12
1532257652938706 2 8 0 -11 -3 1 -1 -9
1532257652960631 1 6 4 0 0 -2 -3 -5
1532257652998529 0 -19 -14 -2 -1 -1 -2 15
1532257653150140 8 30 16 5 -1 -1 0 2
1532257653200988 -4 -4 -6 0 -1 1 1 -2
1532257653320668 1 12 2 -4 -2 -3 0 1
1532257653478247 -2 -9 -2 -2 0 -4 17 1
1532257653514150 7 9 -6 -4 -2 -1 -2 1
1532257653546065 1 10 15 15 4 -3 0 0
1532257653582966 -4 -9 3 4 4 7 14 -3
1532257653664748 -5 -27 -5 -1 -3 -5 -10 2
1532257653681702 -8 -53 -4 -4 -2 5 43 -4
1532257653697660 1 20 5 3 3 4 -5 3
1532257653717606 -9 4 -1 -2 -2 -9 -42 -2
1532257653770465 -10 -13 -5 0 -2 3 12 -3
1532257653777446 -8 -55 -2 -2 -9 -22 -78 -16
1532257653800385 -11 15 -5 -4 2 14 80 15
1532257653823340 4 30 2 1 1 -5 -1 -3
1532257653844268 3 -43 2 1 0 2 -24 0
1532257653894135 -5 -5 2 1 1 -5 -23 -8
1532257653900118 8 9 1 0 2 -2 -20 23
1532257653934028 5 -21 1 0 -3 -5 0 2
1532257653960963 -2 8 -3 -4 -3 2 27 1
1532257653988881 9 21 12 6 5 1 -7 3
1532257654002844 -4 1 -2 8 1 -13 -1 7
1532257654025783 -16 -2 4 0 0 9 -6 -3
1532257654070662 -3 11 3 2 -3 -23 -38 2
1532257654093601 9 -13 -6 -5 -4 -4 12 1
1532257654123521 -4 -17 -6 -7 -4 1 -7 -2
1532257654190342 22 -4 -2 -1 -1 7 -37 0
1532257654206300 -11 -19 -4 0 2 20 35 -43
1532257654257164 -7 -4 14 2 1 7 -11 8
1532257654281100 14 -9 -10 2 0 0 39 9
1532257654319996 -3 -31 -2 -5 -6 -15 -6 -17
1532257654331964 -16 -10 4 1 1 4 13 -30
1532257654349927 -1 -52 -2 -1 -2 -3 23 -39
1532257654385820 2 34 12 5 2 7 -6 13
1532257654439679 -24 2 -37 -9 -1 13 18 -23
1532257654489542 19 40 13 2 -1 -9 9 15
1532257654513478 -13 5 -5 -4 -7 -2 -19 -16
1532257654520460 2 9 8 2 0 -14 -27 6
1532257654566338 0 15 4 -2 -4 -9 12 3
1532257654587281 4 1 -3 -1 -3 -20 -58 10
1532257654617201 -10 11 -11 -3 -2 -3 12 -3
1532257654626178 -2 9 -9 -6 -4 -6 -61 8
1532257654647121 -11 10 2 2 0 0 8 4
1532257654677041 5 11 3 -1 -3 -2 9 5
1532257654699980 14 31 14 6 2 3 8 16
1532257654706961 -5 -27 -4 -4 -5 -6 19 4
1532257654724922 -2 -10 6 1 2 6 38 -1
1532257654754833 -3 -5 5 3 2 1 -2 5
1532257654783755 0 -8 -3 1 0 0 -11 -8
1532257654805697 -7 -19 -8 -5 -6 -8 -20 -3
1532257654819660 -6 -31 -18 10 4 0 27 9
1532257654826641 1 10 4 4 -1 -5 4 1
1532257654865553 -6 0 3 -10 -5 -6 -22 -4
1532257654880497 -5 -3 6 -1 -4 -3 12 -7
1532257654903436 -6 -33 -3 0 0 -4 -4 -4
1532257654939340 0 7 9 -21 -7 -3 -5 -7
1532257654948320 -1 -4 -2 11 9 2 -6 -1
1532257654985218 57 -6 -4 -15 -3 -3 -4 8
1532257654993196 -4 14 -1 3 3 3 -14 4
1532257655010150 -1 -6 10 0 -2 4 44 0
1532257655033089 -5 19 13 0 -3 -11 -11 0
1532257655047051 12 -35 0 -4 -3 -4 11 3
1532257655067995 6 -7 -5 -4 -1 0 4 1
1532257655105894 -7 6 0 3 0 0 0 -1
1532257655119867 -1 10 -2 1 2 1 2 1
1532257655165733 1 -9 6 -2 0 4 0 4
1532257655188672 8 26 34 11 0 14 0 -1
1532257655225575 3 13 -55 -3 -1 -2 0 0
1532257655239537 -2 -4 8 2 -2 -3 -1 2
1532257655293393 -6 -41 -20 -3 -3 -9 -2 -3
1532257655316343 5 -4 19 -2 -10 -10 -5 -2
1532257655442993 0 0 -9 -5 -1 -2 3 -1
1532257655488871 3 25 17 3 1 0 3 4
1532257655548710 2 14 -1 3 1 -1 -1 2
1532257655562672 -10 -19 -7 -7 -2 24 2 -3
1532257655623510 -11 19 7 -1 -4 -8 -3 -4
1532257655659414 -6 2 14 1 -1 1 -2 -3
1532257655706289 -11 -19 -7 1 2 0 0 -4
1532257655728230 3 7 3 -1 -1 -7 -1 2
1532257655766129 -1 -20 -9 2 3 4 1 2
1532257655818989 7 62 5 2 -1 11 1 0
1532257655855889 1 11 5 -9 1 11 4 1
1532257655870848 -3 -8 -5 -11 -15 -38 -4 -4
1532257655915729 3 17 1 -2 1 -8 -3 0
1532257655945649 2 -28 -24 0 0 23 2 4
1532257655981552 -4 1 14 13 2 28 -4 -2
1532257656028427 20 36 -15 72 -21 -22 -2 4
1532257656042390 -9 3 13 -17 -25 -31 -2 -3
1532257656096247 -2 9 3 6 9 12 -2 -2
1532257656128161 -6 0 -15 -4 -12 21 -2 -4
1532257656209941 9 39 12 -10 -11 -10 2 1
1532257656268785 6 16 22 11 11 3 -1 0
1532257656313665 1 -4 6 -2 11 8 1 -1
1532257656341589 -8 -3 1 2 7 5 2 -3
1532257656379488 -5 20 -4 1 6 25 0 -1
1532257656432347 -2 9 19 -3 5 1 -1 -2
1532257656471243 2 -34 -53 -2 -3 -7 -3 1
1532257656508144 -7 -12 -2 -1 10 3 2 -20
1532257656531083 0 35 47 -4 14 1 -1 -17
1532257656552027 -4 -5 10 -1 -7 -2 2 10
1532257656569979 -1 0 0 0 -2 -6 -3 8
1532257656592917 2 -19 22 -10 4 2 2 6
1532257656614876 -2 9 7 -4 -7 -3 -1 -2
1532257656629835 4 -24 13 13 14 7 3 -3
1532257656652758 -1 23 6 8 36 5 6 4
1532257656687664 2 17 0 -7 1 1 -1 -20
1532257656710603 0 12 0 -10 -3 -3 -1 0
1532257656770442 2 11 3 13 17 4 0 0
1532257656784406 0 -22 -7 -6 -11 -2 -1 4
1532257656830283 -10 21 -4 0 -3 -8 0 -4
1532257656853222 1 -3 11 -2 -6 -3 1 -1
1532257656867184 2 -16 15 1 -2 2 -1 -2
1532257656890123 -11 -11 -7 -7 -6 -2 -1 -3
1532257656913061 5 -1 0 -6 0 -3 -4 1
1532257656936001 7 -1 6 0 -1 1 1 0
1532257656972902 -5 -3 6 1 1 3 5 2
1532257656995849 -14 27 -3 -3 -1 -2 -4 -34
1532257657009803 3 -2 -15 0 1 1 4 11
1532257657033739 0 -11 -31 -3 -4 4 -2 5
1532257657047702 -4 -14 -102 -2 0 -3 0 -1
1532257657084603 8 59 37 1 0 5 -4 27
1532257657107541 21 17 21 1 -12 -48 13 -60
1532257657130491 -26 -48 10 -4 3 23 -14 -25
1532257657153419 10 -17 38 0 2 -22 -9 -3
1532257657167381 -10 2 107 24 6 -1 4 16
1532257657190320 7 14 -54 -9 -1 22 6 8
1532257657213259 -4 18 127 13 7 10 -7 21

1532257657235200 -9 -40 -107 -10 -4 -1 -1 6
1532257657253153 2 -7 -7 -8 -5 -5 -1 -2
1532257657273099 -1 2 -12 -2 -3 -11 2 12
1532257657288059 -9 -3 -17 -4 -6 12 -8 -14
1532257657317978 -7 11 0 -1 2 -1 3 9
1532257657332938 -1 -5 -10 -5 -1 -3 3 7
1532257657369840 7 5 7 -1 0 0 8 26
1532257657384800 7 -8 -3 -1 1 0 5 20
1532257657407739 1 -2 -1 1 0 -2 -3 -6
1532257657429680 -2 1 4 -1 -1 3 -1 15
1532257657444640 -7 14 0 7 5 0 3 -9
1532257657490517 -7 16 127 8 0 -1 -3 -4
1532257657512458 -2 2 35 5 1 2 -1 16
1532257657558336 -2 7 -27 -4 -1 -11 -1 3
1532257657587259 8 -11 -8 -3 -11 -10 19 -18
1532257657610197 -41 -98 -15 -4 0 18 9 7
1532257657633136 6 27 3 0 3 18 -9 41
1532257657648096 9 22 -5 7 1 -3 -3 16
1532257657670038 3 28 78 5 1 11 0 2
1532257657692976 6 -8 -105 -15 -4 -10 -5 4
1532257657707936 2 9 91 20 5 -8 -1 -2
1532257657729877 -7 -4 18 -5 0 -3 -1 -8
1532257657767776 -3 3 2 0 1 2 -1 -3
1532257657789717 3 -24 -28 -1 -1 -3 0 2
1532257657829611 1 -1 30 -9 -5 -4 -1 0
1532257657835594 3 5 16 20 6 5 1 4
1532257657873493 -1 1 -14 -11 -2 0 0 -2
1532257657887456 0 5 32 -4 -4 -2 -3 -3
1532257657910395 7 12 -64 -3 -3 -1 0 0
1532257657933333 1 -16 25 9 2 0 -2 -1
1532257657947296 -2 -2 -8 4 -1 0 1 3
1532257657970234 -1 12 -11 0 -2 -3 -2 -2
1532257657993174 -10 -31 -10 -4 -3 0 -3 -2
1532257658007136 2 4 5 -1 3 0 -1 -1
1532257658030079 0 -2 -1 -3 2 2 0 -2
1532257658053013 2 13 -2 9 6 0 1 -1
1532257658089914 0 -5 1 1 -6 -1 -1 -1
1532257658112853 0 -3 -9 -5 -3 -2 -1 -1
1532257658149754 -1 0 -5 -2 -4 -3 0 -1
1532257658173690 -1 5 -3 -2 -1 0 0 0
1532257658187654 -1 0 1 3 1 1 0 -1
1532257658210591 -3 -5 1 -5 -2 -1 0 -1
1532257658233530 -2 -12 3 -8 -1 1 0 -1
1532257658255471 1 11 -2 -2 -4 -1 0 1
1532257658278410 1 4 8 4 3 0 -1 1
1532257658293370 1 5 -10 -1 -2 -2 0 -1
1532257658315312 2 -5 4 5 2 0 0 0
1532257658353227 0 1 -3 5 4 3 -1 1
1532257658367185 2 3 3 -2 -1 0 0 1
1532257658390112 -3 -2 4 3 1 1 -1 -1
1532257658427013 10 11 11 -7 -4 -3 0 1
1532257658449952 0 2 3 18 -4 -3 -3 0
1532257658472891 -1 -4 -4 -12 -3 -1 0 -1
1532257658533728 10 21 38 6 -6 -4 -1 5
1532257658569632 -3 -8 -19 -9 -1 -4 -2 -4
1532257658593568 -3 -14 -29 10 4 0 0 -4
1532257658630469 -13 -1 -11 0 4 2 1 -13
1532257658653408 4 1 -8 -4 -7 -10 -8 -3
1532257658713263 -21 -6 -9 2 0 -3 -3 -5
1532257658736187 25 6 10 2 0 -28 -4 9
1532257658773088 -61 -33 -30 -9 -7 -3 5 -13
1532257658809989 -34 11 15 12 7 1 3 8
1532257658840906 -41 14 13 0 -9 -15 -40 -21
1532257658869829 75 33 12 0 4 56 22 89
1532257658923685 -72 -13 -5 -5 -5 -28 -126 -33
1532257658975546 106 3 6 0 1 4 80 -5
1532257659013445 -4 9 12 5 10 -6 -52 -27
1532257659037381 7 8 -3 -2 0 13 47 34
1532257659049349 -14 -3 4 -3 -2 3 30 10
1532257659096224 -13 2 -5 -6 -4 1 -35 3
1532257659126144 21 8 3 3 2 6 0 12
1532257659215904 22 95 2 3 -5 1 1 7
1532257659237845 9 56 15 11 4 5 0 5
1532257659289706 -10 -29 -9 0 5 0 -4 -2
1532257659312645 -6 71 15 -4 4 9 -1 -4
1532257659372494 -12 -68 -4 -6 -14 -25 -8 -5
1532257659418367 0 -19 29 1 5 5 1 -2
1532257659439306 0 24 18 -2 -2 0 -1 -1
1532257659553002 -1 -25 -11 -2 -2 -3 -2 2
1532257659718560 -2 -33 -22 -3 2 2 -4 5
1532257659816302 3 17 -11 -3 -3 1 -3 31
1532257659935978 -5 0 -3 2 0 -7 3 -6
1532257659980858 6 15 6 3 3 6 4 5
1532257660091562 -6 3 -4 1 4 6 2 -1
1532257660221215 0 -3 -2 1 2 0 -4 0
1532257660296015 4 2 -29 -3 -1 -1 2 -5
1532257660423674 -3 4 4 1 -1 -3 1 2
1532257660558314 -2 8 0 0 0 -1 -3 -9
1532257660618154 -7 -34 -12 -5 -3 3 9 3
1532257660663035 3 13 3 0 2 10 33 11
1532257660700932 -7 -40 13 0 -7 -10 -95 -26
1532257660737834 3 25 -6 -2 1 1 -20 3
1532257660760772 -3 13 6 -4 -2 4 -17 0
1532257660805652 8 13 4 2 2 5 12 5
1532257660820612 5 23 -2 -5 0 4 -25 -35
1532257660843551 -3 0 -6 -4 3 6 47 5
1532257660890426 -1 2 5 3 -3 -3 9 -1
1532257660911369 19 60 0 -3 -3 1 81 15
1532257660940292 3 -20 -14 4 -1 -2 -21 -4
1532257660954255 -6 7 14 6 7 14 37 3
1532257661001130 14 -19 -4 -5 -6 13 68 28
1532257661039028 17 -48 -6 6 0 3 -10 -6
1532257661060970 12 -10 -23 -5 -1 4 3 5
1532257661083909 17 52 8 3 2 -10 29 21
1532257661107845 9 19 -15 -5 3 3 -44 -3
1532257661135769 3 0 -2 -4 -3 1 -11 -5
1532257661145742 -19 -4 9 7 4 -11 -2 -6
1532257661158708 -2 -13 -8 -6 -7 0 0 -13
1532257661180650 36 -60 -15 11 9 -3 -46 0
1532257661203589 18 -16 -6 -4 -6 -9 19 7
1532257661231514 19 44 1 -1 6 9 -3 -13
1532257661263428 -18 -62 -12 -7 0 6 26 21
1532257661285378 -12 21 8 -1 -2 -12 -25 23
1532257661308308 38 16 17 -2 -1 -3 47 4
1532257661314292 -12 20 3 -1 3 7 1 -19
1532257661331247 -9 5 20 7 2 2 17 5
1532257661355183 12 -6 -2 -4 -9 -19 -15 -10
1532257661400063 24 1 6 0 -5 -22 -71 -16
1532257661405049 7 -20 -13 -5 -6 -5 -71 -21
1532257661423007 -14 11 1 1 4 6 41 19
1532257661450927 -18 8 -1 0 -1 -2 6 -1
1532257661464889 -4 17 -2 -6 -4 0 1 -10
1532257661503786 -6 2 6 1 -1 -9 2 -2
1532257661516750 -9 -72 -3 -1 -2 2 6 -10
1532257661540687 18 19 16 8 4 -5 -32 7
1532257661576591 3 31 0 -2 0 5 25 -6
1532257661591551 -14 9 5 -3 -2 -2 -56 -10
1532257661609503 25 49 27 8 3 8 1 -18
1532257661653393 -10 -28 1 3 3 1 1 6
1532257661682308 10 0 2 2 4 2 5 -4
1532257661697268 -2 -24 4 -1 -3 0 -5 -15
1532257661743145 -2 29 -4 -3 -3 -3 -42 5
1532257661757108 7 48 7 7 2 -4 -13 1
1532257661802985 4 -23 -10 -2 -3 3 26 -3
1532257661825928 11 -1 20 7 6 4 14 19
1532257661842887 -18 0 -18 -10 -3 0 18 -1
1532257661864821 29 69 31 6 2 4 12 0
1532257661887759 8 -11 3 0 0 1 -10 8
1532257661922666 -3 -10 -13 4 -1 -6 -2 2
1532257661936628 -1 17 3 0 1 0 -1 5
1532257661982505 -11 11 4 -8 -2 -3 -6 -8
1532257661997468 -16 32 -3 7 3 4 2 11
1532257662043343 -2 14 -2 4 2 -1 -3 -5
1532257662118143 3 4 -10 -4 -4 -25 -1 -1
1532257662140084 -9 -78 16 -8 -2 -13 -3 -2
1532257662147065 2 8 -17 5 0 12 4 6
1532257662203917 0 17 -15 0 -2 -1 -3 -2
1532257662209897 4 -18 9 0 -1 -19 -4 1
1532257662240824 -3 -41 4 2 1 6 -2 -3
1532257662266745 5 11 -10 11 2 1 0 1
1532257662296665 4 -16 -25 -1 -2 8 -1 2
1532257662433300 2 9 8 1 -2 3 -1 20
1532257662532036 6 11 -2 6 0 2 6 3
1532257662582900 30 64 38 19 6 2 4 10
1532257662643737 3 -22 -7 0 0 0 -1 -5
1532257662725518 1 21 5 5 5 6 2 -5
1532257662778377 -11 6 9 0 1 2 3 4
1532257662830238 -8 -6 -18 -5 -1 -14 -1 -1
1532257662933961 -7 10 -41 -6 -7 -11 -2 -4
1532257662979839 -2 8 16 16 -1 -5 -3 -3
1532257663003774 5 41 34 5 4 -6 -2 -1
1532257663025715 1 -14 -66 -3 4 -14 0 1
1532257663085556 -3 4 45 -10 -7 -14 0 -1
1532257663145396 -15 -28 16 4 -2 -11 -7 -4
1532257663159359 -9 9 -14 -7 3 8 2 -3
1532257663249118 -11 25 -3 -1 -3 -26 -4 -2
1532257663302975 1 -19 14 3 -7 17 0 -1
1532257663355832 -2 -1 -22 4 4 -5 2 3
1532257663362814 -2 -16 16 -3 -5 17 1 0
1532257663393732 3 10 11 3 5 -5 -1 1
1532257663421657 -6 -13 -28 -5 -3 -6 -5 -4
1532257663430639 -3 -17 -9 -2 7 18 -1 -3
1532257663481497 -1 -8 0 -1 -1 -2 1 1
1532257663497454 -2 2 -2 -5 0 -11 -6 -2
1532257663544329 0 -3 3 1 0 3 -5 -1
1532257663587214 -1 0 -3 0 1 -5 -4 18
1532257663625113 -4 -23 15 -1 -1 9 -8 -7
1532257663684953 0 8 -8 -5 0 4 -2 -4
1532257663729833 2 -33 -5 1 1 -5 -1 0
1532257663804632 -1 21 -13 -7 -3 2 3 2
1532257663887411 -10 1 -2 -6 -2 -1 0 -3
1532257663910350 6 12 -7 2 2 4 2 1
1532257663925310 -2 20 12 1 -3 -4 -1 0
1532257663955230 3 -10 -10 8 8 0 1 1
1532257663985162 1 73 -66 -1 1 1 2 1
1532257664008089 3 7 46 -1 -3 -3 4 12
1532257664030030 3 -25 8 -2 1 -7 -2 7
1532257664075908 32 -6 11 5 0 -38 30 16
1532257664089870 17 -5 18 1 2 21 -2 -6
1532257664127769 -9 -11 50 -19 -6 6 0 9
1532257664151704 0 -32 38 13 5 11 -5 12

1532257664187609 7 3 -69 2 1 1 10 10
1532257664218526 12 -7 -31 5 2 4 1 11
1532257664247449 2 -5 -3 -2 -2 1 1 4
1532257664270387 -18 -4 -3 -2 -2 0 0 -1
1532257664285360 4 -5 -10 3 0 -4 -2 -6
1532257664307289 -1 4 1 -4 -3 -1 -2 -4
1532257664331225 1 2 -7 3 -1 -2 -3 0
1532257664345193 -10 8 6 -1 0 0 0 -19
1532257664368126 16 -10 -9 -2 -3 -5 -4 7
1532257664407021 4 -1 -8 2 2 7 2 5
1532257664419988 1 -3 -13 1 0 -1 1 0
1532257664457886 -2 -2 8 0 0 -2 -1 5
1532257664487806 0 -16 4 -2 -1 0 -2 -2
1532257664510745 2 3 -3 -2 0 -4 -1 -1
1532257664547646 -2 6 1 3 3 -1 1 0
1532257664570599 -1 -3 6 -2 -2 18 -3 -2
1532257664585559 0 8 5 0 -2 -5 1 2
1532257664615472 -3 -3 3 -2 -1 -1 0 0
1532257664646390 -2 -2 -1 0 -3 -17 -3 -1
1532257664667337 -4 1 3 3 0 -2 1 -1
1532257664691275 4 -21 -7 -1 -1 0 -1 1
1532257664727179 2 15 2 1 2 10 1 -1
1532257664751115 0 -1 3 -2 -4 -6 -6 -2
1532257664765078 -4 6 1 -3 0 -2 3 1
1532257664788017 -3 11 0 -2 -5 -7 -1 1
1532257664810955 0 -13 0 -1 -2 -2 -2 -2
1532257664824925 -5 -7 -19 -3 -3 -13 -1 -2
1532257664847862 -4 -7 5 1 6 19 1 -1
1532257664878787 -4 3 -7 1 0 4 -2 -4
1532257664893734 11 6 33 -1 -2 -6 0 0
1532257664907696 0 13 7 1 -1 1 1 1
1532257664930636 -1 0 -12 0 2 1 0 2
1532257664952577 3 -4 -65 2 -1 3 -3 3
1532257664967536 -3 -5 21 0 0 -6 0 -2
1532257665006432 2 -3 -23 0 2 7 -1 -3
1532257665012428 -3 -13 28 1 -7 31 -8 -1
1532257665035357 1 10 -1 2 -1 -8 6 2
1532257665057296 -3 4 -16 -1 1 -21 4 4
1532257665087217 0 -3 -40 -4 1 12 3 1
1532257665124117 -2 -13 13 1 -4 -11 -1 0
1532257665170992 4 5 5 -3 -8 -56 -5 3
1532257665184967 -2 -21 -30 -2 3 20 0 -1
1532257665207912 -3 5 1 -1 1 16 0 0
1532257665299666 -3 -10 -9 0 -1 0 -2 -1
1532257665305944 -4 -14 18 3 5 -25 28 4
1532257665350824 -6 -13 107 10 4 -17 8 3
1532257665373763 -4 -8 -81 -5 -3 0 7 -1
1532257665410665 0 23 62 6 -1 -6 2 -1
1532257665433603 1 7 52 -8 -2 -2 2 0
1532257665470505 1 13 8 -4 0 -1 2 -1
1532257665493443 -2 14 32 0 -1 -2 0 -2
1532257665507406 0 -2 6 0 -3 -3 2 0
1532257665531341 -3 4 -6 -2 0 -1 1 1
1532257665553283 2 8 -29 2 1 -2 1 -3
1532257665585213 -9 -35 32 -1 3 2 2 0
1532257665613123 0 4 -22 -3 2 1 0 -1
1532257665628101 -1 0 18 -4 -3 -2 -2 0
1532257665651022 -1 -15 -104 3 3 2 1 0
1532257665672963 0 23 32 5 0 1 0 2
1532257665687924 -6 27 41 -10 -10 -4 -3 -4
1532257665710861 5 53 70 5 3 0 0 2
1532257665747762 2 -31 -3 2 0 -1 0 0
1532257665769705 1 -12 -2 -1 1 1 0 -1
1532257665793641 -8 -3 43 3 0 1 2 1
1532257665815582 -8 -23 15 4 4 4 0 -10
1532257665838541 2 48 19 3 4 3 0 1
1532257665855486 3 -20 -19 -1 -2 -2 1 0
1532257665890381 1 -2 -33 5 9 1 1 0
1532257665913320 -1 -10 -19 -4 1 0 1 1
1532257665957203 2 11 -3 2 0 4 -2 1
1532257666005076 -3 2 4 0 -1 1 -4 10
1532257666017042 0 -3 -1 -3 0 1 2 10
1532257666034995 -2 -10 -1 0 2 1 3 2
1532257666063918 1 4 -1 -3 0 -1 0 0
1532257666092841 1 -13 2 4 10 2 2 5
1532257666106803 2 -8 0 -2 -8 -3 -1 2
1532257666129741 0 4 -2 -2 -1 -1 -1 -2
1532257666153677 1 3 9 4 11 2 -1 3
1532257666175619 -4 -29 3 0 2 0 -1 2
1532257666190579 4 9 -4 -3 -17 -5 -1 0
1532257666213518 -1 8 1 -4 3 -1 -2 -1
1532257666273358 -10 -15 -13 -2 7 -1 -1 -2
1532257666295298 5 9 11 0 -6 0 2 3
1532257666326216 -7 -2 -2 4 5 -7 -6 -3
1532257666369107 -8 0 3 1 3 -2 -10 -6
1532257666407000 4 19 22 2 -8 -1 -4 3
1532257666498766 -1 -1 1 2 1 2 0 3
1532257666558606 -2 -12 -6 -9 -5 -3 -1 -14
1532257666579539 -3 2 -5 -2 0 0 -7 -19
1532257666618434 14 17 18 10 5 4 -6 -6
1532257666633395 -19 -24 -15 -5 -3 -6 -5 11
1532257666686254 -13 9 12 -1 -1 -4 2 44
1532257666693235 -4 -11 -8 -9 -12 -6 1 -19
1532257666753075 66 -4 -6 -4 1 4 11 53
1532257666776013 79 20 8 6 7 2 25 31
1532257666812914 35 -8 -16 4 4 -4 -102 -63
1532257666849816 -28 -18 -12 -2 -9 -5 25 -48
1532257666872755 24 19 10 0 0 -4 -78 24
1532257666909655 39 1 5 -15 -19 -18 -34 -6
1532257666932595 -59 -20 -8 -5 -4 -15 59 -33
1532257666992435 -54 8 13 1 2 11 13 -46
1532257667029336 33 -5 -3 3 0 -15 15 -18
1532257667052275 10 7 10 -11 -4 -3 -59 -5
1532257667098152 19 0 1 4 5 7 -14 6
1532257667113112 1 38 5 2 -2 1 11 7
1532257667157992 20 10 8 1 6 15 9 8
1532257667180931 7 3 -5 0 2 -2 -8 -1
1532257667233789 -3 -22 -9 -4 -3 -1 2 1
1532257667284675 1 -58 -4 -4 -3 26 -1 8
1532257667300610 -3 -5 -16 -3 -4 -6 0 -2
1532257667352475 1 17 3 0 -6 4 0 -2
1532257667361448 0 -13 -13 -6 -2 -8 0 4
1532257667421288 2 -31 -2 2 3 5 3 2
1532257667555928 0 -16 -9 -3 -2 -6 -5 2
1532257667651671 7 0 -1 -2 1 -2 0 7
1532257667698547 -2 3 0 0 0 0 0 -4
1532257667796284 7 11 1 0 -2 -4 -1 -14
1532257667878066 -2 -8 4 -2 -2 -7 -2 -1
1532257667937905 -7 7 1 1 0 -4 -2 -2
1532257667998744 1 -3 2 -2 -2 15 -3 6
1532257668178264 -8 -13 1 -9 -2 -4 0 -5
1532257668238103 -1 13 -3 -10 -3 8 -1 -2
1532257668274008 3 -2 -7 0 -3 -4 -3 -2
1532257668320882 2 11 8 -1 1 5 -2 -1
1532257668343821 0 18 8 3 0 -5 -5 -3
1532257668380722 -1 -13 0 2 2 -1 -2 1
1532257668463511 -1 14 -2 -2 -1 -3 6 1
1532257668523341 -3 -5 -6 -1 0 0 0 -1
1532257668553261 1 0 -1 -1 -3 -1 -2 -1
1532257668560242 3 5 11 2 -1 3 12 2
1532257668636040 0 -11 0 -1 1 0 -3 0
1532257668681917 2 9 12 -1 -1 3 13 1
1532257668702860 -3 -19 -8 -3 -4 -2 -14 0
1532257668740759 3 -7 -12 0 -1 0 -5 -1
1532257668800599 -5 6 3 0 -3 4 -7 1
1532257668846477 -12 19 4 -5 -4 18 -21 4
1532257668900343 -3 -8 4 2 2 -14 -41 -9
1532257668921277 -7 -2 -4 -6 -7 7 57 4
1532257668934242 7 25 12 5 4 -9 -86 -5
1532257668966157 10 29 -3 1 1 -10 -45 1
1532257669005053 -4 -64 -11 0 -2 -12 -57 -8
1532257669018023 4 19 1 1 0 -3 -9 3
1532257669024002 -6 25 6 0 -6 -28 -88 -17
1532257669062898 -19 -24 -8 -3 -5 4 -32 -12
1532257669077858 -3 -1 -12 -2 2 -2 19 -8
1532257669100796 15 8 12 -5 -6 -4 -41 0
1532257669146673 -3 6 0 0 -2 -6 1 1
1532257669168615 -1 -5 1 0 -2 -2 0 -8
1532257669184572 24 18 5 2 4 6 -3 15
1532257669196541 6 34 -4 -4 2 16 38 -6
1532257669243415 -14 -10 -17 1 2 -1 -35 -12
1532257669257378 -2 -36 -8 -3 -1 10 55 -3
1532257669281313 -5 -10 -4 -3 -5 -15 9 3
1532257669303255 5 -13 -11 2 1 -2 -19 15
1532257669317217 -12 12 4 -3 -3 5 -38 -10
1532257669326194 -1 -22 -4 0 -3 -3 1 3
1532257669363096 -6 -11 16 2 -1 -10 -14 -14
1532257669393015 15 22 2 -2 -1 4 44 1
1532257669407975 -23 -33 -14 -5 -3 2 -4 24
1532257669446871 -9 -20 0 3 3 12 30 5
1532257669475794 0 -14 9 0 2 9 -4 -9
1532257669490754 -22 -11 1 1 2 0 9 -6
1532257669496738 9 37 1 0 -2 3 -17 -31
1532257669520674 17 -25 11 5 4 -8 -35 -1
1532257669556578 3 39 -11 -5 -3 -1 27 8
1532257669580514 8 46 -13 -8 -7 -5 23 -24
1532257669610434 -12 4 -12 -4 -1 2 19 12
1532257669633373 2 2 10 4 1 -5 -48 -5
1532257669654316 -9 -7 -1 2 0 6 5 -17
1532257669679250 1 -32 4 0 -2 -6 1 9
1532257669701190 -2 -14 16 7 5 5 -15 -3
1532257669723132 9 14 -3 -1 -3 -2 12 5
1532257669746071 11 10 5 1 0 -7 -14 -3
1532257669768013 4 40 2 -2 -3 -1 1 21
1532257669790951 4 -2 -3 -1 -1 0 -30 30
1532257669819874 -9 -7 -5 -4 -2 -5 -10 -1
1532257669843810 -3 -19 -15 -5 0 2 9 4
1532257669879714 -8 -7 1 0 1 2 -1 -14
1532257669910631 -9 -10 -6 -3 -4 1 -4 5
1532257669925590 4 17 13 2 0 -4 -7 -2
1532257669940551 2 22 -9 3 2 5 27 5
1532257669946535 14 12 3 -6 -1 0 0 1
1532257669985445 9 -1 6 -1 1 -1 19 3
1532257670000391 -5 33 14 5 3 2 -4 -5
1532257670024326 -5 -14 2 -2 -4 -2 5 3
1532257670046268 -15 21 -10 -2 0 0 -28 0
1532257670060231 7 -26 -28 -15 -5 -5 -10 -1
1532257670083170 -6 2 -1 2 -2 -12 -38 -6
1532257670106108 8 -44 -4 0 -3 -3 34 -1
1532257670119074 -19 -29 -15 1 1 -1 7 -5
1532257670165948 1 -18 -13 -6 -3 -6 -6 1
1532257670179910 11 17 5 4 4 6 0 5
1532257670210828 -1 -6 1 0 -2 -3 0 4
1532257670225788 2 12 4 2 0 -8 -18 -7
1532257670239750 -6 -1 2 -1 0 1 -22 -11
1532257670255709 -1 0 -6 0 0 4 -1 0
1532257670288620 -36 -13 -6 -1 -1 -10 -8 -4
1532257670308567 -1 -1 -6 -1 2 3 9 -1
1532257670322537 -3 58 4 -4 -4 -1 2 -3
1532257670345468 6 84 41 0 0 -2 -1 1
1532257670382370 -9 -61 -26 -4 -15 -25 -9 -6
1532257670405308 -3 15 -51 -4 6 2 1 0
1532257670442210 11 26 -1 -1 2 8 1 2
1532257670473127 3 -32 -9 -5 -1 0 -1 3
1532257670506039 -9 -34 30 -2 -1 -14 4 1
1532257670524988 9 57 63 0 -1 29 -1 -2
1532257670593804 -11 -3 22 -3 -2 0 1 -3
1532257670653644 -10 -11 8 1 2 -3 -2 -26
1532257670667607 1 25 20 1 0 -1 -1 1
1532257670737421 7 -5 17 5 7 -4 6 10
1532257670773324 -5 -10 -31 -1 -3 -3 -1 -44
1532257670834162 3 37 11 1 -2 -2 -10 2
1532257670967804 1 -17 -15 -4 0 6 4 1
1532257671045596 3 -4 -4 2 1 -4 -2 -3
1532257671156299 -4 -16 -26 -9 -5 -19 -2 0
1532257671207165 -2 -41 -117 -11 7 7 -1 -1
1532257671245063 7 17 -59 0 -1 -23 -3 1
1532257671268001 0 -27 64 10 8 21 5 1
1532257671290940 0 4 3 -5 4 21 0 -3
1532257671312881 -3 16 -4 -8 -6 7 -2 -3
1532257671357761 8 29 21 0 5 -1 -1 -1
1532257671472454 0 4 3 -5 4 21 0 -3
1532257671545260 7 5 -35 4 -10 7 6 15
1532257671567201 -5 -3 13 -2 1 1 -3 -6
1532257671598118 2 7 -30 -1 0 12 0 0
1532257671642001 1 -3 2 1 -2 0 -2 -1
1532257671665937 1 -6 39 4 6 -2 0 -1
1532257671687879 -1 1 25 5 0 0 1 -2
1532257671701844 -5 -18 50 -5 -3 -1 -2 -2
1532257671747719 1 10 26 2 1 0 -1 1
1532257671761681 0 9 -30 -3 -2 0 1 -13
1532257671785628 -1 17 12 0 4 -1 0 2
1532257671807559 1 5 -6 -2 -6 -2 -2 0
1532257671830497 0 -8 32 1 0 -1 -3 0
1532257671867399 1 -15 -29 -1 -3 -4 -1 4
1532257671905297 2 -6 -2 -3 0 -1 -2 0
1532257671927239 -22 -30 13 0 -7 -7 -4 -6
1532257671951175 7 -15 -9 2 2 1 3 6
1532257671988089 -2 -22 -18 -3 -3 -3 -3 0
1532257672011014 0 17 5 3 -3 -2 -1 -1
1532257672024977 6 11 5 -2 5 1 -2 3
1532257672047915 -3 -15 8 -3 -4 -2 -2 0
1532257672070854 -3 13 14 -1 1 -1 0 -1
1532257672084831 -5 -10 -7 -2 -3 0 1 -1
1532257672108753 4 29 -9 -3 -1 2 1 1
1532257672130695 5 -11 5 -1 2 -1 -1 2
1532257672144656 -2 10 -26 0 -1 0 0 1
1532257672167611 -8 -17 -94 -10 -6 -7 -4 -5
1532257672198519 24 21 53 4 -2 3 -3 -4
1532257672220461 -1 -23 -2 -2 0 -1 -1 -7
1532257672258359 -3 0 3 5 5 5 -5 -21
1532257672273326 -8 -20 16 -3 -4 26 21 60
1532257672311218 10 35 -28 -2 -2 -7 -6 5
1532257672348120 -2 7 34 4 2 2 0 -5
1532257672371058 2 -11 -103 -20 -6 -14 -5 -6
1532257672385021 -6 4 95 -29 -13 -6 -3 3

1532257672407985 -15 -9 -40 4 1 6 1 -1
1532257672430929 0 -23 16 1 -1 -6 0 6
1532257672444892 3 27 35 9 2 2 -3 -11
1532257672467830 1 -31 -2 11 3 -2 3 13
1532257672497751 0 -3 11 7 2 0 -1 -7
1532257672522684 2 -3 30 4 2 0 -1 1
1532257672535650 -2 8 -6 -2 0 -4 -5 -3
1532257672564572 5 -20 -5 2 0 -3 -4 -2
1532257672573548 0 -14 -3 -1 -1 1 1 9
1532257672596487 4 3 -3 -2 1 -2 0 -8
1532257672624412 -1 9 16 2 -1 -2 1 17
1532257672647350 -1 5 1 -2 -2 0 -2 -37
1532257672654332 -3 -1 1 -2 -1 -2 -3 -3
1532257672708449 -4 4 4 0 -1 0 0 5
1532257672739367 -5 -7 3 0 0 -2 0 7
1532257672754327 6 1 1 -1 -1 -2 1 3
1532257672778263 0 -14 -3 -1 -1 1 1 9
1532257672790231 -3 2 -7 -2 -3 -1 2 5
1532257672813170 -1 1 27 -1 1 1 -3 -2
1532257672828129 -3 0 -11 -2 -1 -1 -2 2
1532257672851068 -3 1 -1 -2 -2 -3 -4 0
1532257672873009 9 -13 -8 -3 -3 -1 4 3
1532257672887969 0 7 8 -1 -2 1 -3 -3
1532257672910908 -6 -4 0 1 0 -1 1 -4
1532257672932849 4 5 -8 -2 -1 -1 2 4
1532257672954816 1 13 1 0 0 -2 -2 -11
1532257672972801 -2 10 3 2 2 1 -3 12
1532257673007708 -6 0 -2 1 -1 0 -3 -2
1532257673021671 -6 -3 2 -3 0 -2 -1 -8
1532257673053585 4 -3 4 0 0 1 -5 7
1532257673066551 0 -9 0 0 0 2 3 8
1532257673090487 -5 -4 0 1 2 -1 -4 -8
1532257673113425 0 -2 -1 -1 0 -2 1 -11
1532257673127388 -7 -1 0 2 1 -3 1 8
1532257673151356 2 3 -4 -3 -4 -2 1 12
1532257673173273 8 -10 -16 -1 0 1 -1 -6
1532257673187241 3 2 2 -2 -2 0 -1 11
1532257673211179 -6 1 0 -2 -3 4 -1 -26
1532257673233121 2 1 1 0 1 0 -2 -4
1532257673256058 -8 0 -13 0 0 0 2 1
1532257673271019 0 10 8 1 -2 -2 2 4
1532257673292974 1 -7 1 0 1 -2 -4 -21
1532257673306923 5 3 5 -1 0 -6 1 18
1532257673330859 0 -12 -3 1 -1 3 2 -2
1532257673353798 9 -7 -2 -3 -3 -1 -1 3
1532257673375739 -5 0 4 1 0 1 -3 -12
1532257673391696 0 -5 -5 -1 -3 -1 -4 -1
1532257673413638 0 0 0 -2 0 -6 1 9
1532257673426603 0 6 -3 -1 -1 1 0 18
1532257673487441 -1 -1 -18 -1 -1 1 0 0
1532257673496416 -1 -11 -13 1 -3 -2 -3 -9
1532257673533318 -4 1 42 4 0 5 0 -6
1532257673547281 1 5 -16 -1 -1 -1 2 -4
1532257673593158 -1 1 8 3 0 1 2 10
1532257673616096 3 -13 80 -1 -1 1 -5 -14
1532257673666960 3 -3 -23 -3 -4 -6 -1 2
1532257673690896 0 -20 -31 -3 -2 -2 0 7
1532257673712838 -14 3 -116 -15 -3 7 -1 -9
1532257673750736 -4 5 29 4 6 5 5 10
1532257673773675 -1 -16 1 -1 0 15 -1 -17
1532257673795616 15 54 19 4 2 9 16 39
1532257673810576 4 14 14 2 5 45 12 -27
1532257673848475 12 39 11 -3 -7 -22 16 48
1532257673869426 1 -2 -109 -9 -4 -19 -9 7
1532257673946214 3 5 78 8 2 -4 -2 3
1532257673976134 -10 -12 11 5 0 -3 -1 6
1532257673998075 -3 -17 -16 -3 -2 -1 -1 -2
1532257674049936 1 -4 -8 2 -1 -1 -3 -11
1532257674072884 -5 -11 -4 2 -1 -3 1 -3
1532257674125740 4 1 -13 0 2 -1 0 -2
1532257674185574 -4 -19 -8 -2 0 0 -2 -2
1532257674215494 -8 0 -17 0 3 1 -1 -2
1532257674253392 3 -5 -15 0 -3 -3 0 1
1532257674289296 -8 -16 2 -1 2 1 0 -1
1532257674314230 -3 27 0 5 -3 -1 -1 0
1532257674349136 2 30 -20 0 -5 -2 -2 -3
1532257674373071 0 -2 -4 -2 2 0 0 -1
1532257674416954 -3 6 11 0 2 -1 -2 -2
1532257674432911 -1 -16 -12 -5 -4 -3 -1 -1
1532257674499733 0 -15 13 -1 5 0 -1 1
1532257674517688 -1 10 5 -6 -2 -3 0 -3
1532257674559573 -2 -8 -17 -6 -3 -5 -1 -3
1532257674612432 1 -2 -19 -3 -1 -2 -2 0
1532257674658310 6 3 -3 -1 1 -2 -1 0
1532257674672272 0 3 4 -5 -4 -6 -2 -4
1532257674702191 -3 -1 5 -4 -6 5 5 0
1532257674741088 -9 -10 -9 -4 2 2 -2 2
1532257674792949 0 -3 -13 -7 -1 0 -2 0
1532257674838827 0 9 8 1 -3 -2 -1 0
1532257674851792 -2 -15 -3 3 2 -1 -2 -2
1532257674898671 17 9 6 -7 -10 -5 -7 6
1532257674937563 9 -3 -5 -4 -2 -2 1 19
1532257674988427 22 6 7 1 -3 -6 -2 44
1532257675032309 1 -26 -42 39 7 -8 -19 -24
1532257675199861 -30 -14 -13 -13 -7 10 -19 15
1532257675226789 -59 -1 21 5 6 5 59 -1
1532257675257706 112 45 82 11 3 -2 23 100
1532257675288624 21 3 -1 -2 -2 6 -84 -20
1532257675324528 -81 24 31 2 -4 -18 81 -1
1532257675355445 20 9 -25 -3 -6 17 89 12
1532257675378383 127 33 3 9 13 13 -1 67
1532257675392347 -69 -16 11 4 6 9 -21 14
1532257675423274 -1 5 -5 -1 -3 0 -35 -35
1532257675452187 -33 -4 -3 -2 0 -1 -15 -21
1532257675475125 -10 -5 -3 1 0 2 -11 -16
1532257675498063 -18 -10 -2 -2 2 4 -13 -8
1532257675528981 -8 -35 -1 -2 -3 -2 -2 2
1532257675551919 17 -8 -3 0 1 -1 -56 -2
1532257675557904 -4 5 -2 1 0 -1 -4 -7
1532257675609765 14 84 -3 5 -1 0 7 5
1532257675661626 -6 -6 9 3 3 3 -5 -3
1532257675700522 10 41 -6 7 2 6 0 5
1532257675738437 4 -24 -2 -3 5 -2 0 0
1532257675791294 -2 -20 -10 7 7 6 3 0
1532257675821200 2 23 -4 -4 0 -3 -3 0
1532257675866079 -2 40 16 3 -2 -1 0 -2
1532257676000719 -3 -11 -35 -2 1 -1 -1 -6
1532257676038618 9 18 18 -5 -8 -2 0 -2
1532257676074522 -3 8 -9 2 -3 -1 0 -3
1532257676151351 -2 2 2 -1 -5 -5 0 4
1532257676194219 7 18 3 1 -2 -4 -2 13
1532257676368735 -1 13 5 1 -5 -7 4 25
1532257676436554 -10 2 -8 0 4 24 -12 -24
1532257676480437 7 27 -26 -14 -6 -11 2 -7
1532257676645994 -2 -18 54 1 1 27 6 0
1532257676743733 -18 15 -11 -7 -2 -5 5 5
1532257676802575 -9 8 8 1 0 0 0 0
1532257676816538 -6 -12 -3 5 0 -1 -2 -10
1532257676869397 3 -16 -7 -1 0 1 0 -2
1532257676908293 0 9 2 -3 0 0 -1 -3
1532257677020991 7 -1 5 1 0 -2 1 3
1532257677080831 -2 -12 4 4 2 3 4 -1
1532257677162613 3 20 6 -3 -5 -1 22 6
1532257677185551 -1 -12 1 3 3 2 -19 -9
1532257677200511 -1 0 -15 -8 -3 -4 -15 -3
1532257677260351 17 10 9 5 1 -4 36 9
1532257677305231 4 18 8 8 2 -5 -6 9
1532257677320191 -3 -27 -9 -8 -5 3 8 -1
1532257677365071 -4 -7 -15 -7 -2 -8 -3 -8
1532257677402969 -4 -18 -4 0 5 13 82 7
1532257677424911 2 12 7 11 3 -10 -2 -1
1532257677462810 -8 13 -10 -6 0 25 16 3
1532257677501706 1 43 5 -1 1 1 -22 -1
1532257677522650 24 -5 4 1 -2 -13 4 13
1532257677545588 2 18 -5 0 5 -2 -5 -9
1532257677575509 -11 -16 1 0 -8 -16 -9 1
1532257677582490 5 5 10 1 -2 -1 2 -8
1532257677605429 -24 -23 -2 3 7 21 33 15
1532257677620388 -15 -7 -9 -3 -2 3 23 -8
1532257677665269 1 -8 -3 -2 -4 -20 -53 -4
1532257677680229 -43 43 3 -1 1 10 0 0
1532257677702170 44 13 19 0 -2 -1 17 10
1532257677725109 20 -5 4 4 2 -10 -30 0
1532257677740068 -25 -31 -13 -2 5 14 55 5
1532257677763007 2 -18 -6 0 -4 -7 -21 -5
1532257677792927 11 -36 -6 -1 -3 -13 -22 -3
1532257677801903 -7 4 4 2 0 3 29 2
1532257677846783 -1 23 7 1 2 11 23 8
1532257677898644 21 -18 2 0 -2 2 -19 -10
1532257677920585 -2 22 -8 -5 -3 -7 -48 19
1532257677942527 12 -28 -9 0 2 3 1 2
1532257677965466 -10 -21 -6 -3 -3 0 5 -13
1532257677980426 4 26 11 3 -1 -3 1 5
1532257678003365 -15 30 -3 -4 -4 -2 10 19
1532257678049242 -3 -41 -4 0 1 -5 -34 -7
1532257678056223 -13 -36 -12 -1 -3 -1 12 -15
1532257678078164 17 21 3 -3 -1 1 21 7
1532257678100106 13 2 21 7 1 11 23 13
1532257678144986 6 17 -4 -2 1 4 29 -14
1532257678204826 -5 -36 -10 -4 -2 -6 -11 15
1532257678227764 -5 -21 -10 0 1 3 16 10
1532257678281620 -3 10 -9 -2 -4 0 9 -6
1532257678325503 14 23 13 5 2 6 -14 11
1532257678339466 1 -2 4 -2 -1 11 17 10
1532257678362404 -4 -27 -9 1 2 1 -37 -9
1532257678399306 19 10 0 0 2 7 -8 14
1532257678422244 -5 -17 -18 -1 0 1 11 -6
1532257678445183 14 -32 5 15 3 -3 -11 4
1532257678483082 -4 -7 -27 26 6 7 7 -5
1532257678505023 -6 -1 5 -13 -5 -7 0 -3
1532257678527961 -14 -18 7 -1 -1 -1 11 -8
1532257678549903 -12 -12 2 -5 -8 -10 -6 -19
1532257678589797 -5 6 12 -2 -2 -2 5 -4
1532257678602762 13 12 10 -2 -4 -2 7 5
1532257678624704 -6 -11 -6 -5 0 -3 -8 -3
1532257678648639 1 11 0 2 5 4 -6 18
1532257678685551 1 -13 -5 -4 -2 -1 -4 -1
1532257678708479 0 29 -17 -4 -1 0 -2 -2
1532257678745380 -5 -45 -25 2 0 0 3 -6
1532257678776297 -3 -92 -61 -1 -2 -4 -2 -11
1532257678805220 0 9 119 0 -1 1 -5 0
1532257678828159 7 62 30 15 5 13 -1 -2
1532257678858079 -3 -2 -11 -3 1 1 6 4
1532257678872041 -12 -47 3 -10 -7 -1 -3 -6
1532257678934874 0 8 9 -1 0 -6 -2 0
1532257678962798 2 16 -2 -1 1 -2 -1 -9
1532257679008677 -14 -2 10 2 1 -1 -1 -2
1532257679068520 -2 2 -5 -3 -2 -1 4 -4
1532257679196175 -8 2 -3 -1 0 0 -3 -7
1532257679226095 10 3 -3 1 2 2 1 3
1532257679261999 8 14 1 -10 -2 -3 -1 0
1532257679330815 -7 10 3 -4 -2 -3 -2 -3
1532257679404617 -7 -10 0 -3 -1 -2 4 4
1532257679481411 -1 19 4 1 2 5 1 0
1532257679593113 -5 -41 -37 -3 -5 3 -1 -2
1532257679643977 -9 -49 -10 -1 -3 -26 -2 -4
1532257679690852 6 16 -40 3 2 -16 -3 0
1532257679730746 0 20 25 10 -2 -12 -3 -1
1532257679750692 4 -11 15 4 -5 -13 -1 -1
1532257679764654 2 -3 -97 -11 -3 20 3 3
1532257679810532 4 30 50 4 -8 -1 0 0
1532257679848430 0 23 -6 4 0 3 -1 0
1532257679878351 -1 -1 20 1 -3 -1 1 0
1532257679908270 0 -7 -64 -2 1 -3 0 1
1532257679931209 -4 4 2 -1 -6 0 -1 -1
1532257680021968 0 -5 -11 3 1 -12 0 1
1532257680026953 -1 5 -13 3 4 -5 0 -2
1532257680067844 -1 -1 38 0 1 2 1 -1
1532257680088787 -3 -8 -38 -1 -1 9 -1 -1
1532257680124692 -4 0 -41 -4 -3 -2 0 -3
1532257680147630 -5 32 48 5 0 2 -2 -2
1532257680170569 2 11 16 0 -1 -1 -1 -1
1532257680202484 -4 5 5 -1 -3 -1 1 -6
1532257680230409 4 3 4 -1 -1 -2 -2 1
1532257680283268 7 -15 1 3 0 -1 0 2
1532257680321167 -7 -5 -2 -6 -3 0 -1 -6
1532257680351086 -5 6 0 -4 0 -7 1 4
1532257680387987 4 18 3 -2 -5 -8 -2 0
1532257680410926 0 -8 -3 -6 -3 3 -2 -3
1532257680446830 -12 -7 0 -6 1 1 0 -2
1532257680470766 2 16 11 1 2 2 1 3
1532257680508665 -8 -19 18 -3 -2 0 -2 0
1532257680532601 -5 9 0 5 1 -2 -1 -1
1532257680537587 0 -14 -11 -7 0 0 2 0
1532257680560526 -4 3 26 2 0 -1 -1 -1
1532257680594436 -11 21 4 3 -1 -4 1 1
1532257680613385 -10 28 69 4 -2 1 -2 -3
1532257680627348 9 -14 -25 2 3 1 -1 -1
1532257680651283 2 2 11 3 0 4 2 1
1532257680687188 -6 -30 1 3 5 -1 -1 -11
1532257680711124 -14 18 -7 1 -2 -51 -19 -86
1532257680733065 3 63 0 -1 -1 0 10 77
1532257680747027 -13 -3 5 3 14 78 3 14
1532257680761987 -6 7 1 6 3 -15 2 12
1532257680771961 2 -40 -3 -1 7 3 5 -4
1532257680817845 -10 -52 -73 1 -5 -16 -7 -13
1532257680821828 8 43 -76 -11 -7 -5 -3 -7
1532257680852746 -10 25 46 10 -1 -3 -1 -2

1532257680877678 -26 19 76 2 -1 2 -5 -11
1532257680881668 2 -26 7 6 3 0 -1 -3
1532257680913582 19 -22 -6 -3 -5 1 2 8
1532257680926547 -3 8 -14 2 -1 -8 7 0
1532257680950483 0 1 3 3 1 -24 2 -2
1532257680973429 -3 13 -4 0 1 -1 -3 -4
1532257680987385 -8 2 0 0 -2 14 -6 -20
1532257681032296 1 -16 -14 -3 -4 16 -7 -1
1532257681047258 -16 -13 5 4 0 3 -2 -2
1532257681071193 -3 -13 -7 -5 -1 2 0 0
1532257681092138 2 0 0 0 0 1 -2 11
1532257681118068 -1 2 4 2 0 4 1 -8
1532257681131034 10 -5 -1 1 -2 1 1 2
1532257681160954 9 41 -13 -2 -1 3 7 8
1532257681166938 4 -7 -36 -1 2 -15 1 -1
1532257681189876 -3 -11 5 -1 -3 -59 0 -8
1532257681212815 -4 21 11 4 1 7 2 -2
1532257681226777 3 13 -15 -5 -3 16 -2 -4
1532257681250713 -6 -8 14 -2 -2 9 -2 1
1532257681280633 3 -10 7 1 1 6 -2 2
1532257681325514 -2 -6 27 2 4 19 2 0
1532257681348452 -3 -5 9 0 1 -4 2 -4
1532257681369445 5 -3 -1 -1 -4 0 -2 -1
1532257681416316 9 8 3 2 -1 -3 1 2
1532257681431276 0 2 3 1 1 -3 0 6
1532257681490119 -2 -9 -1 0 3 0 1 0
1532257681535997 -3 2 -7 -1 -2 -5 -2 -10
1532257681549959 -2 -16 -24 -4 -3 10 -3 -5
1532257681595836 -4 -4 -1 0 2 -6 3 1
1532257681618775 -2 1 -1 -2 -3 9 -5 1
1532257681669675 3 -12 -15 0 -3 -22 2 -3
1532257681736496 -1 9 7 1 0 -7 -1 -3
1532257681775431 -3 8 -6 2 0 1 -4 -2
1532257681843250 2 4 16 1 0 16 -3 -5
1532257681849234 1 1 1 0 -3 -26 5 9
1532257681875164 6 -2 5 -1 -1 -6 1 3
1532257681909074 2 -3 -28 1 -1 -3 2 10
1532257681940989 -1 2 39 -1 -3 -12 -6 -6
1532257681963928 0 -6 8 -1 1 4 2 -2
1532257681993847 -5 -13 6 1 -1 2 1 -5
1532257682029751 -5 -18 -6 -3 -1 2 5 -2
1532257682089591 2 13 9 -7 -3 -8 -3 -1
1532257682135469 -2 -3 3 2 4 -9 2 2
1532257682203287 2 10 4 -2 -5 -3 -4 0
1532257682240189 -1 -1 -3 0 -2 23 -6 -7
1532257682278106 1 -6 1 1 0 -5 -3 -1
1532257682337976 2 -2 -5 -1 -2 4 0 4
1532257682352937 -1 -12 2 3 2 10 -10 -1
1532257682419758 -10 10 6 0 0 -1 -4 -4
1532257682464654 7 0 -2 0 -4 4 3 5
1532257682518504 9 9 62 -2 -2 -18 1 -1
1532257682555395 9 2 -7 0 -1 -6 -2 13
1532257682578366 2 -25 -28 -6 -1 31 5 4
1532257682616265 -5 2 2 3 5 25 0 -8
1532257682638206 0 5 -6 -1 0 -2 -1 -1
1532257682683085 -17 -4 -54 -6 -2 -14 -2 -12
1532257682697048 9 10 -27 -7 0 6 1 0
1532257682714016 -1 0 31 -5 -5 -12 -12 12
1532257682750904 0 -2 15 2 -1 -15 -6 -1
1532257682767865 -4 1 6 2 8 28 12 -3
1532257682786808 11 104 19 3 3 28 -8 -13
1532257682818726 13 10 0 1 -6 7 12 -4
1532257682831688 4 -3 17 0 5 27 8 4
1532257682855627 7 37 101 3 -1 -5 -2 -4
1532257682878563 8 3 -103 3 -1 3 0 1
1532257682900504 2 -2 63 3 -2 -10 -2 1
1532257682917459 -2 -6 -65 -3 -2 -5 -1 0
1532257682952367 2 9 -44 -10 -3 -2 -3 -10
1532257682976302 -4 -8 -23 -8 -5 -2 -3 -4
1532257682998243 -1 7 -5 -3 0 7 1 0
1532257683021181 3 -7 -11 -4 -2 9 -2 -3
1532257683035159 -4 -4 -6 -2 1 -6 -1 -2
1532257683058082 -3 -4 -11 0 -3 -14 -2 -4
1532257683072046 4 1 -7 -3 -3 15 5 4
1532257683117923 3 1 -33 0 1 -14 2 3
1532257683131886 3 -12 10 -1 1 14 1 -3
1532257683178760 -3 10 3 1 -2 0 0 2
1532257683200701 -7 13 2 -1 -3 11 -3 -8
1532257683223651 -6 -9 -6 -2 -1 -8 -5 -4
1532257683260541 -3 0 3 -3 2 4 3 3
1532257683275501 1 12 1 0 0 -12 -2 8
1532257683298440 -1 3 2 0 0 -14 1 -3
1532257683343320 4 9 0 0 -1 13 1 0
1532257683358280 0 5 -39 -2 -4 -2 -3 -2
1532257683364265 -6 -24 -8 -3 0 0 -4 -7
1532257683402163 0 19 2 -2 -2 -2 2 4
1532257683441058 -3 -1 1 -2 1 0 -2 1
1532257683455021 2 2 40 0 -3 -1 0 1
1532257683477960 -2 6 2 -3 -1 0 -1 0
1532257683514862 -6 27 -33 0 -1 -2 -2 -4
1532257683530825 -1 -7 -14 -2 -3 -1 -1 1
1532257683559741 -1 -11 4 2 -1 0 -1 0
1532257683576702 2 7 24 0 2 -1 1 3
1532257683597639 2 0 -1 -6 1 2 -1 2
1532257683620579 -5 -65 0 2 3 -4 8 1
1532257683658478 -3 5 5 -8 -5 1 -5 -4
1532257683680419 4 11 9 20 1 0 -1 -1
1532257683694381 -3 -1 -4 -18 -7 -3 -3 -1
1532257683718332 -1 0 8 12 4 2 -3 -2
1532257683741256 -2 2 -4 -10 -3 -3 0 1
1532257683754222 -2 3 6 2 4 2 -1 0
1532257683786136 -3 -2 -7 -9 -8 -7 0 -3
1532257683801096 -4 0 -3 5 5 1 -2 -2
1532257683814061 3 8 2 -2 2 2 0 1
1532257683837997 2 1 0 1 6 5 1 0
1532257683859939 -14 -17 -12 -3 2 -1 -1 -5
1532257683897837 2 11 15 4 -1 -9 2 1
1532257683919778 8 19 14 9 2 9 -1 4
1532257683957677 -2 5 -1 -2 -4 3 -2 -4
1532257683980616 2 -7 0 1 -3 4 -1 0
1532257684040456 9 -5 -13 -2 -1 -1 -6 4
1532257684077358 -1 -5 -6 -2 -2 -8 -8 -10
1532257684161134 -17 -20 -13 -5 -4 -9 -2 18
1532257684219976 2 -9 1 0 -1 -6 3 3
1532257684242915 -18 -11 -6 -1 -2 6 -1 -20
1532257684279816 16 3 1 10 0 3 5 12
1532257684302756 3 -4 1 -7 -7 -13 -5 -4
1532257684339656 -9 -10 -1 2 3 5 0 -14
1532257684362595 -10 11 1 2 8 1 -24 -18
1532257684377554 -11 -12 -5 1 2 11 46 9
1532257684400493 37 23 6 4 3 -1 -12 -1
1532257684422434 -101 -2 18 0 0 3 -4 -6
1532257684437394 -74 6 5 -2 -8 10 -56 -22
1532257684460333 -55 26 0 1 9 42 16 -14
1532257684499229 127 -13 -24 3 10 -10 -69 51
1532257684520173 41 -31 20 1 0 -47 -50 -27
1532257684543128 88 4 1 -3 -6 -12 64 -3
1532257684580013 72 33 -17 -1 5 21 116 39
1532257684603950 103 1 -99 -5 -10 39 95 2
1532257684625891 23 -2 39 -5 -7 -11 -44 -31
1532257684639853 60 24 12 -6 -9 -16 -24 2
1532257684678749 -36 31 16 9 6 19 -24 22
1532257684715650 -60 -6 41 2 2 -7 72 -46
1532257684745571 -28 -24 5 -5 -7 -4 38 -11
1532257684760530 -14 3 17 8 6 2 -15 -33
1532257684782472 -20 18 -13 -1 -2 -5 13 -14
1532257684797432 1 6 1 0 1 -1 -15 -1
1532257684820371 -16 6 -7 5 4 0 0 -5
1532257684842312 3 59 -2 -3 -5 -1 2 3
1532257684902153 -9 34 2 1 3 -4 -5 -4
1532257684917112 -5 -59 -17 2 -8 4 -4 -4
1532257684962989 2 22 -12 1 0 2 0 1
1532257684999890 2 18 5 2 1 8 -1 -1
1532257685232269 6 20 14 2 0 6 -4 -9
1532257685286125 2 -3 2 5 6 4 3 -6
1532257685465644 1 41 8 -1 -5 -7 2 9
1532257685562386 1 -5 -2 -1 3 0 -3 -9
1532257685622226 7 12 5 -1 -2 -3 -4 -1
1532257685750882 4 -1 5 -1 -2 -2 -2 4
1532257685787783 10 33 5 -14 -7 -4 1 0
1532257686006200 -1 1 2 -1 -3 -1 -2 0
1532257686028141 -2 11 -3 -6 -1 -2 0 -1
1532257686111917 -4 -4 -1 0 0 -1 1 2
1532257686164775 1 -1 -10 -21 -4 1 -2 -2
1532257686178738 -3 -29 -9 33 3 -6 -74 -6
1532257686208658 -1 17 1 2 0 4 34 1
1532257686281463 -2 -9 -2 1 -3 2 23 -1
1532257686352274 0 -61 -13 -4 1 5 30 4
1532257686412114 -7 -39 -15 -3 -1 -6 -5 -9
1532257686461980 6 39 6 3 0 -6 0 -4
1532257686470960 -7 16 3 -3 -4 -16 6 -14
1532257686523815 33 56 8 3 6 14 28 7
1532257686568696 -7 16 6 -1 -3 8 -23 -14
1532257686581660 -3 2 -5 6 -3 -8 -1 -4
1532257686613575 -19 -6 1 -3 0 6 26 -16
1532257686635517 -4 11 -6 -7 -8 -5 0 2
1532257686688375 0 12 -8 -1 -2 -2 24 -2
1532257686711314 10 40 14 5 5 -4 -4 -20
1532257686732258 -12 -90 -16 -8 -2 3 5 -3
1532257686750209 0 -20 -2 -4 -1 -4 36 19
1532257686771169 -1 18 4 3 -1 6 12 -11
1532257686792098 -34 6 -8 -1 -4 -16 -18 6
1532257686810050 4 -11 0 4 5 14 12 21
1532257686852935 11 -19 7 3 5 0 4 -11
1532257686884850 -6 9 0 -1 -5 -5 6 1
1532257686906790 -11 -11 -8 1 4 3 -3 -48
1532257686942695 2 -6 -20 -3 1 -1 14 14
1532257686951671 8 -21 9 1 0 1 33 -34
1532257686979596 -5 28 -4 -4 -4 -4 -41 -13
1532257687001538 2 -2 7 0 0 5 40 0
1532257687012511 -13 -50 -11 0 1 2 13 -35
1532257687032455 3 -22 6 3 2 5 1 23
1532257687071351 18 39 -9 -5 -3 4 -10 -12
1532257687085331 15 81 17 4 2 -1 4 39
1532257687108259 -7 0 6 3 2 5 27 -5
1532257687131197 3 -4 4 2 -1 -3 1 35
1532257687153139 -2 12 4 -1 0 6 63 25
1532257687190040 6 10 5 2 0 2 36 -4
1532257687212978 -7 -23 -6 -3 -1 -2 10 1
1532257687250877 0 -20 0 2 2 1 -12 -3
1532257687264840 3 10 -2 -2 -3 -4 -7 2
1532257687279800 0 -2 -7 1 1 2 4 -2
1532257687310717 13 21 -7 -11 -7 -10 -22 -4
1532257687333656 2 1 5 4 0 1 -10 -5
1532257687348616 1 -11 -11 -4 2 7 29 0
1532257687370557 -4 -6 -7 -2 -3 -5 -17 -7
1532257687384520 -12 -33 -8 0 0 -1 -11 -6
1532257687430397 -8 -7 -6 -10 -5 -5 -27 -8
1532257687444360 6 8 14 3 -2 -11 -2 0
1532257687461315 -13 19 -9 -4 0 5 18 6
1532257687476275 17 9 12 6 4 2 -1 -5
1532257687497218 12 24 20 -3 -2 -4 12 3
1532257687513176 12 20 14 5 2 -1 -12 -3
1532257687551075 51 35 23 4 -1 -6 -2 8
1532257687564040 -15 -1 -32 -7 -4 4 17 -9
1532257687573016 -3 -1 4 -2 -2 -2 1 -1
1532257687589974 1 -1 -13 -5 -5 -5 -1 0
1532257687612910 16 53 16 6 -2 -5 -4 3
1532257687647816 -17 -77 9 -2 -2 1 1 -1
1532257687669758 5 40 35 2 2 -7 -14 3
1532257687708662 17 10 -29 3 4 -3 1 7
1532257687730595 3 58 105 10 -2 -5 -8 -1
1532257687783453 -23 -30 -11 -12 -3 -10 -1 -1
1532257687798413 -4 9 -47 0 1 12 0 1
1532257687827336 0 -5 -12 0 -4 3 3 -1
1532257687851272 -7 10 4 0 1 -5 0 -1
1532257687953997 11 -2 -5 -1 1 1 -2 5
1532257688015832 8 14 -4 -1 1 -3 0 -18
1532257688187373 -1 -1 3 6 0 -2 -5 0
1532257688241229 -8 -19 -5 -6 -2 0 1 0
1532257688329991 9 0 3 7 6 35 4 3
1532257688347945 -3 4 13 4 2 -1 0 -1
1532257688480589 2 58 64 -3 -9 -4 -3 -3
1532257688601266 6 -9 -67 -3 6 6 3 0
1532257688633181 4 18 17 -1 5 11 0 0
1532257688667090 -5 -36 10 -2 4 35 0 -2
1532257688690029 1 4 23 5 13 26 3 1
1532257688786770 -6 2 -89 2 -6 -17 -4 -2
1532257688824669 -1 -18 -26 -12 -11 18 -1 -2
1532257688878525 -5 -7 36 -3 -2 -4 -1 -5
1532257688894482 -2 4 -9 8 0 -11 0 -1
1532257688953324 1 -7 -47 -2 4 13 2 1
1532257688990236 -2 -2 11 -5 -5 -3 0 1
1532257689058045 -8 -17 -3 -1 -1 2 -2 -21
1532257689073005 -1 -21 4 2 4 -3 -3 6
1532257689124866 5 12 1 0 -2 2 2 5
1532257689171741 3 16 23 1 0 10 4 2
1532257689215623 0 3 34 2 1 3 -1 -3
1532257689238569 5 -4 6 1 1 2 3 2
1532257689336301 -11 -2 17 0 1 3 0 -2
1532257689418082 -7 6 -14 -2 1 -2 1 -1
1532257689492882 -8 15 78 4 1 -1 -1 -2
1532257689529783 9 10 13 11 19 93 3 -64
1532257689589623 -12 2 -4 2 -10 -37 -16 1
1532257689612562 12 -11 -52 -18 -9 -19 -11 2

1532257689682375 -1 23 109 -6 -4 13 2 -1
1532257689710301 2 -12 -69 -9 -3 45 1 2
1532257689763196 3 -17 -20 -10 -7 -14 -4 10
1532257689770177 2 -2 -5 2 1 4 1 8
1532257689816055 1 3 0 -1 0 5 1 5
1532257689837996 8 -31 -81 -2 -3 8 -5 1
1532257689912838 -2 -9 -16 -2 -4 -15 1 1
1532257689960712 0 -7 -25 -4 -4 3 -2 2
1532257689980658 -2 -24 -5 0 3 11 2 11
1532257690003597 -5 3 16 1 3 39 4 2
1532257690018566 -2 13 6 2 1 26 -3 -10
1532257690041501 -1 -5 -6 0 4 11 -1 4
1532257690078397 -1 1 -6 -1 2 -4 -5 -10
1532257690101336 -2 -7 -32 1 2 11 2 7
1532257690138237 4 -2 -1 0 2 4 12 8
1532257690161176 1 -7 2 1 5 29 7 -4
1532257690198077 0 -10 2 -1 -2 5 6 26
1532257690257917 -2 -6 6 1 1 13 11 0
1532257690287837 -2 -1 -9 1 2 -20 1 -6
1532257690302797 -2 -1 -3 0 0 -22 -3 -8
1532257690331720 -3 1 1 1 5 21 17 -3
1532257690355656 1 -4 -3 -1 2 39 -5 -9
1532257690378595 -13 -1 2 0 0 2 5 9
1532257690400536 -1 -3 -1 3 1 0 5 15
1532257690417490 -1 -10 -7 -2 0 -21 -1 -17
1532257690440429 4 7 -5 -2 -3 7 2 9
1532257690462372 -5 3 -5 3 5 29 4 -6
1532257690482317 -5 0 -2 2 1 -2 -6 -6
1532257690500269 1 2 -2 -2 0 6 14 5
1532257690521213 -4 -4 -2 -2 -1 -16 2 -10
1532257690537172 -2 6 -3 1 1 12 5 -1
1532257690560125 -2 -1 1 2 -2 -7 1 -2
1532257690581069 -3 11 -1 0 -1 -1 -14 -6
1532257690617954 2 2 -3 -5 2 46 0 6
1532257690639895 1 -3 0 1 -2 4 3 8
1532257690654856 -12 4 -1 0 -2 -12 -5 -6
1532257690677794 -6 -23 0 0 -3 -12 3 7
1532257690699747 1 -4 -2 -2 -2 -2 3 -5
1532257690714708 -5 10 8 -1 -2 -21 1 -29
1532257690745625 8 -1 10 0 -3 -2 -3 -3
1532257690784521 -3 -4 -36 -1 0 4 -6 -46
1532257690822419 2 0 -3 -3 -3 -6 3 16
1532257690829400 4 0 13 -2 -1 7 -11 0
1532257690857326 -3 4 26 1 0 1 -3 14
1532257690880265 4 -3 -37 -4 -1 0 0 -15
1532257690917166 -1 0 38 -2 -2 -4 -1 1
1532257690940105 3 4 -14 1 0 2 -1 -4
1532257690955065 -1 1 -7 -3 -2 -9 -4 5
1532257690978003 0 -4 11 -1 0 0 0 -3
1532257690999945 -8 -5 9 2 3 -4 1 11
1532257691014905 -7 -4 4 2 -1 -8 -5 -19
1532257691045822 -1 3 61 1 2 3 -3 0
1532257691067764 2 5 1 -1 -4 -7 -5 -5
1532257691097683 -2 4 34 0 1 -6 7 -3
1532257691128601 0 -7 -21 -2 0 -4 4 6
1532257691135583 -6 -1 -24 2 1 -2 0 -9
1532257691157523 3 0 -22 -5 -5 -4 -13 -10
1532257691180462 -2 21 -13 1 4 14 4 -13
1532257691217364 -4 6 -6 -1 -4 -7 -3 2
1532257691240301 5 0 6 2 1 13 7 30
1532257691277204 0 -5 -37 -8 -8 -14 -8 -7
1532257691300143 -3 -18 -62 -12 -6 0 -3 -11
1532257691325076 -6 -20 17 2 0 -4 1 4
1532257691376937 -2 11 -16 2 1 -1 0 -4
1532257691382921 3 5 -23 -7 -5 0 -1 -5
1532257691404862 9 -3 3 -2 -1 1 1 15
1532257691434782 -5 -2 -31 -1 4 4 2 5
1532257691457720 -2 -72 11 0 -3 -1 -1 0
1532257691479662 -2 12 23 -1 -2 -1 1 18
1532257691540499 5 -3 -1 -1 -3 -1 -2 -2
1532257691554462 1 18 -10 -3 -1 -1 -1 -2
1532257691577401 2 19 -7 0 1 2 0 2
1532257691600339 -6 -3 0 3 2 0 0 0
1532257691623278 -3 -11 -3 -1 -1 -2 -1 0
1532257691637240 9 -9 3 -2 -1 1 -2 0
1532257691660179 4 37 0 2 1 -1 1 2
1532257691698077 0 0 -3 -2 -1 1 -1 -2
1532257691720019 -4 16 -1 1 -3 -1 0 -2
1532257691742958 0 -3 4 1 -1 -1 1 0
1532257691757918 -2 -3 -5 -1 -1 0 -2 -1
1532257691779859 5 10 6 44 15 4 1 2
1532257691810777 -1 -6 -1 -12 -5 0 0 -1
1532257691824739 -6 -31 8 -3 -3 -1 -2 -1
1532257691863635 4 -38 9 6 -4 -3 -2 2
1532257691877598 -2 -10 18 -3 8 2 -1 -2
1532257691900536 -2 4 2 -2 0 1 1 1
1532257691923475 0 -8 -33 4 1 1 0 0
1532257691937438 -2 -1 12 -8 -5 -3 -1 0
1532257691960376 -1 -1 -6 4 14 1 0 -2
1532257691983315 4 1 -4 -9 -10 1 0 2
1532257692020217 -3 0 8 1 6 3 0 0
1532257692057118 -3 -8 -7 -6 -9 -1 1 1
1532257692080056 -4 -1 7 -5 -4 0 1 -1
1532257692102995 -10 -10 -6 -3 -3 -7 -3 -5
1532257692117955 7 5 -4 0 -1 11 1 3
1532257692139896 2 5 -3 0 5 -5 -2 -1
1532257692224670 0 -7 -25 -1 3 5 2 3
1532257692244617 1 -39 -4 5 11 80 6 4
1532257692283512 -19 12 -2 -5 -8 -16 -8 -7
1532257692320413 8 13 8 1 -4 -19 -6 -8
1532257692351331 30 28 23 3 -5 -21 8 -9
1532257692366293 -5 -8 -8 -2 -5 -28 -6 5
1532257692380267 22 -16 -10 6 -1 5 0 -12
1532257692425134 -50 -10 -1 4 11 14 9 30
1532257692437102 -34 -10 -5 -4 -12 -8 -17 -41
1532257692478990 -14 3 22 -2 -6 -10 5 23
1532257692484974 -49 -19 100 7 -3 -1 -26 -6
1532257692499978 21 12 15 -14 -16 -15 -4 -8
1532257692536879 1 11 54 9 7 7 -40 13
1532257692583760 -2 -15 13 -3 0 46 -28 -51
1532257692620654 -68 -21 11 -10 -33 -57 -28 36
1532257692652569 107 29 -37 12 16 25 104 47
1532257692674515 21 12 15 -14 -16 -15 -4 -8
1532257692734350 23 2 19 6 -2 -7 52 -94
1532257692748313 78 -5 33 7 5 -23 3 56
1532257692785217 -21 -37 -93 -9 0 20 37 -28
1532257692800175 -81 9 59 10 5 -3 40 -42
1532257692823113 -66 3 60 -8 7 13 -60 -53
1532257692846052 20 -40 -6 -1 7 0 -47 20
1532257692882954 9 21 -22 -8 -6 -99 -33 8
1532257692905892 9 55 8 3 -15 -44 -30 10
1532257692943791 2 7 -3 3 5 19 -6 4
1532257692965732 5 -58 6 17 9 36 9 9
1532257692988671 -6 9 20 -1 -4 -20 -2 -1
1532257693012607 3 35 16 4 5 20 11 2
1532257693027572 -2 59 3 -1 -14 -66 -13 -2
1532257693063471 2 21 -1 -4 -5 -18 -6 -2
1532257693093391 -1 -30 5 2 8 31 2 0
1532257693146249 -4 -23 -6 -5 -7 -18 -1 -1
1532257693206089 2 -30 -37 -5 14 -52 -4 2
1532257693408551 -4 -11 -2 -3 -3 9 0 -5
1532257693506286 -5 6 13 3 3 4 -5 -4
1532257693549172 -1 -8 -19 0 2 6 -2 -4
1532257693625967 -1 -41 -9 0 5 13 10 8
1532257693647907 -11 -15 -4 -1 3 4 -2 -10
1532257693708745 -3 -13 -5 0 1 1 0 3
1532257693745647 -12 -6 4 -17 -5 -6 0 -1
1532257693796510 1 -1 4 0 -1 -1 2 -6
1532257693911204 6 -9 -11 -15 -9 -4 -6 -1
1532257693947108 -15 -34 -13 -5 -2 -3 -2 -3
1532257693971057 -1 -8 9 -2 -4 -1 -2 1
1532257694007944 -4 -9 -17 -6 -3 -2 -2 -3
1532257694030884 3 -5 7 2 -1 -1 0 -8
1532257694076761 3 -5 -6 2 0 -1 3 -4
1532257694158542 0 -9 1 -3 -2 1 -1 -2
1532257694182478 -10 11 1 0 0 1 -4 2
1532257694225364 -3 6 -2 -4 0 -2 0 -2
1532257694286203 -2 -11 0 -2 -3 -4 3 -3
1532257694316121 0 18 10 18 3 -5 12 -3
1532257694367982 -2 -1 -9 0 -3 -6 -67 -2
1532257694404884 13 -4 -12 -8 2 8 -7 8
1532257694451769 -5 0 -2 -3 -1 4 -44 0
1532257694467715 -1 -21 0 -1 -2 -10 56 5
1532257694501638 -1 -35 -3 -2 -2 -2 17 5
1532257694525572 11 42 5 -1 -2 -4 -11 3
1532257694548500 5 19 9 3 2 -1 17 7
1532257694570440 23 66 10 1 4 3 24 8
1532257694608339 -10 -38 -4 -1 0 3 -22 -14
1532257694631278 -3 -7 -2 2 1 11 17 6
1532257694661198 1 45 -6 -2 -2 -14 -57 -9
1532257694691118 19 48 -8 -6 1 8 31 6
1532257694698100 -10 -3 10 -6 -1 0 -12 -2
1532257694730014 10 35 7 3 -5 -1 7 -20
1532257694750958 6 48 8 -1 -4 -5 -1 15
1532257694756942 16 20 10 1 0 4 14 9
1532257694780877 -16 16 23 9 4 4 35 10
1532257694810798 -5 1 5 7 5 5 18 -16
1532257694824761 10 -32 0 1 1 -3 -14 8
1532257694870638 -16 -9 4 3 0 -9 -45 -28
1532257694884601 24 19 5 6 4 3 45 8
1532257694929481 -36 -44 -4 3 1 6 -14 -25
1532257694984334 -11 -19 7 2 2 -3 2 -6
1532257695005277 -12 9 5 6 2 -15 -50 -37
1532257695024228 -11 12 -9 -6 -5 2 33 19
1532257695051155 13 -2 -1 -3 -1 0 0 1
1532257695073097 -17 -25 -9 2 3 5 15 -11
1532257695110995 -6 -16 6 2 5 7 35 14
1532257695170835 -10 -19 -16 -6 -3 -8 -6 55
1532257695184800 5 20 1 -5 -2 -1 -27 -19
1532257695215715 18 10 0 2 0 3 15 26
1532257695274558 -16 -15 -26 -12 -6 -4 15 -6
1532257695292510 -7 -31 -13 -4 -2 -2 -12 1
1532257695313454 -2 6 -1 -1 -1 0 -2 26
1532257695334398 -5 40 10 3 0 2 49 -15
1532257695352350 5 -6 -3 2 1 1 -9 -15
1532257695387272 -2 7 -8 -5 -4 7 48 1
1532257695411193 10 28 8 2 2 1 8 -14
1532257695424158 9 -33 -16 22 6 1 8 9
1532257695441112 6 6 -12 -2 0 -8 18 10
1532257695471032 -9 -20 -3 -5 -3 0 4 4
1532257695483998 12 44 12 3 2 0 1 -1
1532257695499955 0 5 -15 -5 -4 0 -7 -5
1532257695530873 -4 13 14 -5 -6 -3 28 0
1532257695590713 9 -2 -18 -9 -6 -4 13 -2
1532257695613651 -12 30 1 0 -2 1 -21 -7
1532257695627614 -3 -14 14 2 3 1 20 3
1532257695650552 1 -1 -2 2 -3 -2 -4 1
1532257695695432 7 -5 -21 -7 -2 -4 -11 -4
1532257695710392 7 -6 -5 1 1 -6 -12 -3
1532257695763251 -2 -1 26 0 0 -4 -1 -1
1532257695794168 -8 -83 -39 0 2 2 4 -4
1532257695816110 6 31 -5 1 -2 3 3 1
1532257695853011 15 8 -5 10 2 16 -5 1
1532257695875956 -2 -21 8 3 -1 -3 -2 -5
1532257695892904 -7 -32 -82 -10 -4 -5 -3 -4
1532257695926814 13 29 -4 1 2 14 -1 0
1532257695973688 6 9 7 3 3 0 2 4
1532257696063448 -3 11 -4 -4 -2 -9 -9 -14
1532257696101346 0 17 7 2 -4 3 6 8
1532257696176146 -9 -19 8 5 -2 -1 -1 -5
1532257696235987 11 13 5 5 2 -1 3 9
1532257696272888 5 16 13 6 4 2 0 -6
1532257696490307 6 -26 16 1 2 7 4 5
1532257696536184 1 2 -94 -5 1 2 -1 0
1532257696715704 -1 15 -1 0 5 -3 1 0
1532257696851341 2 -6 -24 -5 -11 -4 -2 0
1532257696919160 -1 -30 -25 11 11 3 2 1
1532257696933123 -1 -15 -20 -9 -1 -4 -1 -3
1532257697015901 4 13 17 -1 5 4 1 1
1532257697158520 -1 4 -6 -2 -1 1 1 7
1532257697227336 0 12 -2 -1 -3 -2 -1 17
1532257697270222 0 37 5 2 1 -2 -3 0
1532257697293160 -2 4 4 0 1 1 -2 1
1532257697329064 -6 8 -24 -1 0 0 -3 -1
1532257697353011 0 25 15 -2 0 3 5 2
1532257697411862 -1 -2 -5 -4 -2 -1 -1 -2
1532257697434782 -3 -3 31 -1 0 -4 0 1
1532257697457720 -6 12 1 11 5 2 0 -3
1532257697482653 0 8 -1 -3 -1 -1 -2 -1
1532257697494621 5 9 -8 2 -1 0 1 1
1532257697531522 1 -1 17 -2 -1 0 -1 2
1532257697555459 6 1 7 -3 -4 -1 0 -1
1532257697577400 -5 4 -15 4 -1 2 0 0
1532257697592360 -2 16 -14 3 2 2 -1 2
1532257697615313 -1 -35 6 -1 0 -1 0 -2
1532257697637239 14 8 -6 -4 -1 1 2 29
1532257697661176 15 -68 8 -1 2 -12 2 58
1532257697700072 7 41 -1 6 12 45 11 14
1532257697705059 -5 7 9 -4 0 -19 -11 4
1532257697721016 4 -3 47 5 -1 -4 12 27
1532257697765895 -6 26 119 27 5 -3 -4 -5
1532257697780856 2 -31 123 -14 -10 -9 -2 -1

1532257697794818 4 23 -111 -12 -5 -1 1 7
1532257697817762 0 -11 -49 -9 -6 -4 6 -15
1532257697855656 -3 22 -16 2 2 -1 5 -10
1532257697877597 2 4 10 2 0 -9 2 -5
1532257697891560 -3 -3 5 -2 -1 -3 1 -12
1532257697915495 -5 -4 -7 0 0 -2 -1 -2
1532257697937437 10 15 19 -3 -4 -6 4 12
1532257697975335 4 -6 -2 -1 -2 -7 -2 -18
1532257697998275 -9 -8 -6 0 0 -3 -2 -6
1532257698028194 -6 5 -9 -1 -1 0 -1 -1
1532257698035192 -4 3 -2 -1 4 1 5 9
1532257698058115 -1 -14 -1 2 1 -2 -6 -5
1532257698080056 -3 -1 5 1 -2 3 -12 -3
1532257698095016 -1 -7 -1 -1 -1 1 2 -2
1532257698117962 0 -4 -3 1 -1 -2 -2 10
1532257698139895 -4 13 2 2 1 -1 0 3
1532257698154856 4 -4 5 2 1 2 1 2
1532257698191757 -4 -5 -3 -2 0 1 -1 9
1532257698214696 7 -4 -5 0 0 -6 -4 -3
1532257698237635 -3 -4 -5 -4 -1 0 -1 0
1532257698251597 -1 3 -2 1 0 5 3 -4
1532257698275532 0 -3 -3 -3 -1 -2 -5 -7
1532257698297474 1 4 2 -3 -3 0 -1 -5
1532257698313431 0 3 24 1 -1 1 6 9
1532257698343352 -4 1 -2 0 0 0 0 8
1532257698373272 6 -14 -7 -1 0 -1 2 17
1532257698381250 -2 1 -25 -1 -1 0 -2 -9
1532257698395213 3 2 2 1 -1 -3 -2 -2
1532257698418151 -8 8 -2 -2 -1 -1 -2 -3
1532257698441090 -2 0 17 -1 -1 -1 -3 14
1532257698455053 2 3 -1 -3 -1 -2 -7 -5
1532257698477992 -6 -11 -57 -3 -2 -6 3 -16
1532257698500930 -1 3 7 2 0 3 3 2
1532257698569752 1 5 6 -1 -1 2 -3 -11
1532257698605656 3 1 10 -3 -2 -3 0 -1
1532257698620616 0 -8 -15 -1 1 -2 0 0
1532257698657517 4 8 37 3 0 -2 3 4
1532257698680475 -7 2 -48 -2 -2 -3 -4 -5
1532257698717377 -1 -11 -9 3 -1 -3 -4 -11
1532257698741313 3 6 37 3 2 -5 0 -20
1532257698755275 -4 0 17 -1 -3 -8 -15 -9
1532257698777217 -9 3 17 -3 -10 -2 -12 -7
1532257698801153 7 -35 25 0 2 29 10 6
1532257698855010 -8 -22 2 -2 10 24 14 22
1532257698876950 3 -11 -67 -12 4 7 -2 -5
1532257698897894 0 20 23 8 1 3 -2 7
1532257698928811 -4 -44 -95 -8 -5 -7 0 0
1532257698942774 0 11 91 4 1 3 1 12
1532257698980675 -8 -1 -34 -1 -1 -1 -6 -10
1532257699002618 -1 16 -59 2 0 0 2 0
1532257699017573 -2 -32 44 -3 -1 -2 -1 -5
1532257699047494 2 -39 -16 -1 1 1 -1 2
1532257699077413 3 7 3 0 3 -1 1 0
1532257699102347 -1 14 6 3 2 1 0 1
1532257699123291 7 -5 19 2 3 1 -3 0
1532257699168186 0 -10 36 1 -3 -1 0 3
1532257699174155 1 -4 23 4 8 3 -1 -1
1532257699201083 1 -5 -15 -6 -7 -4 2 0
1532257699221030 -7 20 40 -3 -6 -5 -4 -2
1532257699233994 4 -15 -95 -14 2 3 0 1
1532257699257931 -5 -20 -35 -7 -3 -4 3 -2
1532257699302811 0 1 8 4 -2 -1 0 0
1532257699348688 -1 -2 15 3 2 4 -1 0
1532257699377611 4 25 4 8 3 1 2 5
1532257699462384 4 15 -2 2 3 0 -1 0
1532257699497291 -4 -5 1 1 -1 -1 -3 -4
1532257699543168 -3 -1 -4 -1 0 -3 0 -1
1532257699566107 2 1 1 -1 3 0 0 1
1532257699582064 -6 -11 -7 -1 1 -2 1 0
1532257699605003 2 19 -1 0 -4 -2 -1 0
1532257699631931 5 7 1 0 -1 -1 -1 -3
1532257699662848 3 -3 18 4 15 7 2 0
1532257699685797 0 -22 -1 6 0 -1 0 0
1532257699702742 0 -1 -9 0 -1 -1 2 1
1532257699760586 -9 -3 -9 -2 5 2 -1 -1
1532257699796491 -1 -8 5 7 12 -1 3 -3
1532257699843365 -14 -4 0 -7 -6 -8 -67 -49
1532257699857328 -4 19 20 5 -1 22 -51 33
1532257699880267 16 12 10 4 -3 -14 35 2
1532257699911184 20 7 -1 0 0 7 16 15
1532257699917168 -19 -14 -5 0 0 -2 9 -19
1532257699977008 27 3 -7 -10 -9 -9 7 35
1532257700016902 -58 5 -7 -2 0 4 1 3
1532257700074747 -76 -12 -2 -14 0 10 18 -10
1532257700096688 43 6 29 -6 0 6 -48 -17
1532257700120624 -24 29 24 0 -4 -9 -3 58
1532257700126607 67 19 43 1 6 24 -83 5
1532257700144561 -73 2 -14 -14 -19 -64 -7 -17
1532257700181461 -28 -55 -116 -7 5 23 -40 -33
1532257700203402 29 -13 13 -9 -13 -17 -73 85
1532257700225344 63 -18 -39 -7 -6 -25 36 -57
1532257700256262 -128 -34 -24 -12 -14 -18 66 -59
1532257700286189 -15 11 6 -5 2 2 -49 34
1532257700316101 57 21 34 6 3 -18 127 -25
1532257700346021 32 -7 -42 4 6 -4 -26 42
1532257700366966 30 20 7 2 -1 -1 28 28
1532257700405861 -1 10 12 2 4 5 0 0
1532257700442763 2 -36 4 14 1 -2 16 1
1532257700449743 13 46 5 11 6 -2 -7 6
1532257700474678 14 106 17 6 2 -3 2 10
1532257700495621 18 -2 -1 -8 -5 -1 -2 -16
1532257700525541 1 4 2 2 1 1 7 -4
1532257700548480 0 7 6 -4 1 1 4 7
1532257700570422 15 36 16 5 4 -7 -1 11
1532257700608321 -3 -3 1 -1 4 4 -3 -4
1532257700646218 3 2 -3 -5 -2 -9 3 11
1532257700661179 0 -19 0 1 -7 -9 0 1
1532257700721019 -1 14 -5 -4 -8 5 1 -4
1532257700825739 0 -29 -15 1 4 0 -3 -3
1532257700899541 0 22 5 4 14 3 3 10
1532257700945418 3 27 7 -1 -3 0 1 5
1532257701162837 5 -3 -2 -1 -1 0 5 -10
1532257701282517 -5 -39 -12 -2 -2 1 -2 -4
1532257701366297 -9 -16 -11 -6 -3 -2 -7 -6
1532257701448074 -34 -10 8 -4 -7 -3 -11 4
1532257701486985 -11 27 -12 24 8 3 -8 -1
1532257701545813 -2 0 0 -1 0 -2 -7 -4
1532257701568766 0 2 3 -3 0 1 -2 -5
1532257701605653 2 6 0 -7 -1 -3 1 2
1532257701613631 0 5 -10 7 1 -1 1 11
1532257701669482 -3 6 4 -3 -1 -1 1 2
1532257701681450 3 20 1 -2 -1 2 1 0
1532257701771210 -9 -6 -10 -5 -6 -6 -40 -6
1532257701787184 -2 12 4 -1 -4 -10 -14 -18
1532257701897872 -4 23 -4 1 -4 -7 61 -9
1532257701906848 3 31 -4 0 3 11 49 3
1532257701950731 -11 -30 0 0 2 2 50 -9
1532257701988628 4 -44 9 6 10 14 39 16
1532257702001594 10 22 9 2 -2 -6 9 2
1532257702025530 -16 -4 2 1 -5 -9 -44 -9
1532257702055450 4 7 -7 -3 -1 0 17 -17
1532257702062431 24 44 8 4 2 12 49 5
1532257702085371 -21 13 -12 -3 -4 0 -1 -15
1532257702099333 -27 -10 -10 -4 -4 -4 21 -4
1532257702140223 3 -40 5 2 2 4 -49 1
1532257702145210 8 31 -3 1 5 14 37 3
1532257702168149 6 20 -3 -6 -5 -21 -84 40
1532257702215024 12 -19 3 4 0 -4 -12 -9
1532257702221025 -16 12 -1 -3 -3 -2 -1 -2
1532257702249930 -30 9 9 1 -4 -21 -22 15
1532257702264889 25 18 9 4 9 33 26 4
1532257702288825 -18 8 -8 -5 -1 1 -27 -24
1532257702324730 39 29 9 6 3 9 10 15
1532257702370608 1 -19 1 6 3 1 35 17
1532257702399530 2 42 25 8 3 4 -18 -8
1532257702414490 -27 -25 -10 -3 -1 -1 37 7
1532257702445408 14 15 -11 -4 0 -2 -6 -28
1532257702461365 -13 -6 -9 -4 -4 -4 23 11
1532257702491285 -1 -13 -4 0 0 -8 -29 4
1532257702537163 -23 -10 -4 2 3 2 -14 10
1532257702647866 -10 1 10 1 0 -6 -43 -7
1532257702693743 -8 -58 -10 1 1 1 43 21
1532257702709713 -4 -13 2 0 0 -1 15 30
1532257702747599 -3 -20 6 2 2 -4 40 2
1532257702768544 -5 3 0 0 -2 14 15 30
1532257702790484 -1 -27 -6 -1 -2 -16 2 24
1532257702804447 6 17 14 5 6 2 -36 -15
1532257702828383 10 30 1 0 1 9 84 19
1532257702850325 -12 10 -7 -4 -4 2 27 -13
1532257702873263 -8 26 -1 -3 -4 -10 -64 -23
1532257702887226 0 -9 -3 -2 2 -5 -22 -22
1532257702911162 -5 -19 -2 -1 0 -2 11 -3
1532257702924127 -14 -22 -15 -7 -2 6 8 -42
1532257702948063 9 2 1 0 0 -3 11 21
1532257702984970 -4 20 -25 -4 -1 -3 -11 5
1532257703007903 2 9 16 -1 1 -1 -9 0
1532257703044805 1 -22 -4 -7 -2 2 9 0
1532257703067743 -4 23 -22 -4 -7 6 35 1
1532257703113621 -8 -28 -3 -9 -4 -4 -2 0
1532257703127583 -2 17 1 2 4 11 14 18
1532257703150522 1 28 13 2 -3 0 -23 -6
1532257703173460 -51 -36 -19 -8 -2 -2 3 7
1532257703194404 7 42 3 3 1 10 48 6
1532257703217343 13 0 3 2 2 -4 5 -17
1532257703271199 6 -23 3 1 2 2 12 -3
1532257703323060 -8 -107 -15 -5 -5 -2 -2 0
1532257703360959 2 5 2 -3 -2 0 0 -1
1532257703366943 4 17 -8 5 2 8 2 -1
1532257703390880 -11 32 -9 0 0 0 -1 -3
1532257703428778 -3 -2 -85 -8 0 -3 -3 -1
1532257703510559 3 -11 -46 7 3 -6 2 1
1532257703607301 -6 -23 -4 0 1 6 0 0
1532257703662153 9 -39 15 4 -2 -17 -2 1
1532257703706037 -1 -5 -3 -1 -3 2 -1 -29
1532257703953375 6 57 10 4 0 -3 -3 -1
1532257704013215 -1 -12 -49 -4 -1 1 1 1
1532257704073055 -1 41 6 -2 6 8 -1 -1
1532257704215674 1 -35 -64 -4 -7 3 -2 0
1532257704238613 -11 3 6 -7 -3 -4 -2 -3
1532257704312415 -3 -8 65 -2 10 -10 -1 -1
1532257704372254 8 32 -5 3 2 -17 -1 2
1532257704409156 -5 -2 8 -3 10 -8 -2 -1
1532257704514873 -9 -28 -3 4 5 -5 -1 -3
1532257704552773 -6 5 20 -2 -2 -2 0 -4
1532257704598649 13 4 14 -3 -13 -5 -1 0
1532257704635551 0 8 -2 -4 -5 2 -1 0
1532257704649513 -4 -8 -8 -3 -4 -2 1 0
1532257704695390 -4 33 28 3 -6 -2 0 -3
1532257704709353 2 -26 -24 -3 3 0 -1 5
1532257704732292 -12 -11 3 1 3 -1 -2 -19
1532257704763210 7 -25 1 1 -3 0 2 15
1532257704778170 -1 -42 -3 0 0 1 1 6
1532257704793129 -5 -6 -2 0 5 0 0 -2
1532257704815071 1 2 -2 -2 -4 1 5 2
1532257704838009 -10 14 2 -2 -8 -3 -4 -15
1532257704852969 0 1 2 2 -2 0 -1 -1
1532257704875908 -6 -19 -8 -4 0 1 -3 0
1532257704897849 -8 -26 -4 -8 -1 2 1 -2
1532257704920788 7 9 -6 1 1 2 1 6
1532257704943727 -2 3 -4 2 3 0 -3 1
1532257704965668 -11 11 6 3 -1 0 -3 -1
1532257704980628 -2 10 0 2 1 0 1 -1
1532257705018538 4 6 25 1 1 1 0 1
1532257705032489 -9 -4 21 4 1 -3 -2 -5
1532257705078367 3 -1 18 -5 -2 -3 -1 -1
1532257705092330 1 -19 -82 -7 0 0 0 4
1532257705115268 -3 -14 34 3 0 0 -1 2
1532257705138207 -8 8 -15 -2 -2 2 2 0
1532257705185100 -17 -2 0 -8 -2 -1 -2 -3
1532257705215001 6 -4 6 -5 -6 -7 1 12
1532257705234958 6 26 -5 -1 6 19 -2 -61
1532257705274841 -9 -27 14 6 3 10 1 5
1532257705294788 24 -11 6 9 4 -14 -12 12
1532257705318723 11 -7 12 -7 -4 -1 -3 -6
1532257705354628 -4 -7 30 13 6 1 -1 -10

1532257705378565 7 -5 12 -2 -1 -7 -2 4
1532257705415466 12 -4 -10 1 3 5 10 26
1532257705445385 -6 13 10 -1 1 -4 -5 -14
1532257705460345 -1 21 1 0 0 2 -3 8
1532257705514201 2 19 12 0 -1 -1 -2 -1
1532257705535154 -6 18 6 -1 0 1 1 16
1532257705558084 -9 -11 -9 -3 -3 -31 -9 -34
1532257705572046 2 -6 -7 -2 1 3 1 15
1532257705631886 6 -13 -5 -3 -3 11 -3 -2
1532257705654825 18 -8 -2 2 -1 3 2 4
1532257705678761 -4 -4 -1 2 4 1 -2 -7
1532257705714665 -3 -1 -5 -1 1 1 -6 -3
1532257705738601 -2 14 -5 -2 -3 1 0 -5
1532257705768546 -8 19 3 0 1 -1 1 -6
1532257705783494 6 -14 -2 -4 -6 -25 6 -3
1532257705805436 -3 9 -2 -1 1 4 1 0
1532257705820396 -2 0 2 2 -2 -1 -6 -8
1532257705835361 1 -3 -9 0 0 7 3 7
1532257705858295 -4 -6 17 0 0 5 -7 -1
1532257705880236 -3 5 36 4 2 2 -9 -2
1532257705918135 1 -6 43 1 -4 -5 -1 7
1532257705941073 -7 -10 -99 -7 -3 -1 0 -14
1532257705977975 1 -9 -42 -4 3 23 11 7
1532257706007895 8 -1 -77 -4 -1 0 -2 6
1532257706039809 -6 -1 5 -6 -10 -76 -8 1
1532257706068733 -11 3 8 2 -5 -23 14 -11
1532257706098652 4 -12 0 2 -2 4 -6 -1
1532257706128572 -6 -8 63 12 7 4 -1 -19
1532257706158492 7 -24 -107 -25 -7 6 -5 1
1532257706180434 -1 -22 -14 5 2 1 3 -5
1532257706195393 -5 15 16 9 2 -1 2 -9
1532257706241271 1 8 11 -1 1 1 1 8
1532257706278172 1 21 17 3 1 -2 0 4
1532257706301111 1 12 14 0 -3 -1 -2 0
1532257706323051 -1 9 14 -1 1 0 -1 0
1532257706367932 -3 -20 68 3 -2 0 -1 -1
1532257706382892 -3 14 -3 0 0 -1 1 0
1532257706397852 1 -5 -79 0 -6 -1 -1 -3
1532257706420791 0 -21 -1 -4 -2 1 -2 0
1532257706458690 -2 10 32 5 -5 -1 -3 -2
1532257706480631 5 14 -6 0 2 3 1 1
1532257706503575 -2 -53 35 5 3 1 1 1
1532257706540488 -3 -28 -1 -1 -2 -3 -1 0
1532257706554434 -4 28 54 -2 -1 -1 -2 -3
1532257706601308 0 -4 17 -4 -1 1 0 0
1532257706646188 -4 14 39 3 -1 -2 -1 0
1532257706698049 -1 -25 -24 0 2 2 0 0
1532257706734951 1 17 2 2 -3 0 -1 -2
1532257706757889 4 14 23 3 -1 -1 0 -2
1532257706817729 -5 2 2 -3 -2 0 0 -2
1532257706841665 -6 -17 -1 -4 1 -2 -2 -1
1532257706863607 -5 0 3 -1 2 0 -1 -3
1532257706908487 2 21 0 2 0 2 -1 0
1532257706923447 1 -16 3 -1 -8 -3 0 0
1532257706937409 -5 -18 -2 -8 -4 -2 -2 -3
1532257706961345 0 0 -19 -5 4 -1 0 0
1532257706997249 0 -9 -9 0 -3 -2 -2 0
1532257707043127 -13 -19 -24 -7 6 0 -2 -7
1532257707066065 8 10 17 1 -13 -2 1 1
1532257707082023 0 7 3 0 8 2 -1 0
1532257707116930 0 7 6 2 3 4 1 3
1532257707140865 10 14 21 2 -1 -12 -12 -30
1532257707171782 2 9 10 0 -6 1 6 10
1532257707176769 -15 -17 -19 -7 -5 -3 0 0
1532257707200705 8 -13 -24 -8 0 3 2 -1
1532257707245585 12 15 19 4 0 0 3 14
1532257707262540 -19 -4 -1 -2 -2 3 4 -11
1532257707306422 -20 -6 -2 24 6 2 -1 12
1532257707343324 7 29 11 4 3 1 -2 -9
1532257707357287 18 -15 -5 0 -2 1 15 32
1532257707366262 2 -3 -2 -6 -6 -11 -4 -16
1532257707382220 -82 -9 4 -5 -4 -5 -20 -46
1532257707428114 -12 8 -15 -1 0 1 4 7
1532257707479958 56 11 10 2 4 8 14 40
1532257707486940 114 7 2 9 4 6 4 35
1532257707501899 -1 -10 1 -6 -2 -8 27 33
1532257707522844 -128 -6 7 0 -10 -22 71 -80
1532257707545799 -97 4 -1 2 2 -6 34 78
1532257707584678 64 6 7 4 5 32 14 -13
1532257707596646 32 -27 -21 -9 -11 -25 -62 -43
1532257707643521 -38 -3 0 2 1 -12 -75 27
1532257707657484 9 28 31 6 -3 4 -56 61
1532257707764198 -47 -7 -1 -9 -8 -3 117 -26
1532257707778161 -44 -10 -4 3 0 0 -31 15
1532257707800117 11 0 1 9 2 1 9 12
1532257707845979 4 11 10 4 0 -2 -5 1
1532257707883879 -1 -14 1 0 3 3 1 -1
1532257707921777 1 -10 -2 0 1 7 0 0
1532257707973638 2 -33 -1 -1 -7 -5 -2 22
1532257707979622 0 -14 -4 -3 -3 -4 0 6
1532257708032481 3 35 -4 -5 -3 -3 -3 -8
1532257708086337 -12 -66 -13 -9 -7 -11 -3 -3
1532257708099302 4 -39 -16 0 -2 -4 2 -14
1532257708159142 3 51 7 -1 1 25 9 5
1532257708265857 -4 5 -3 -3 2 -3 -4 -29
1532257708271841 2 6 -1 -5 1 4 2 -12
1532257708445377 -6 -29 -6 -4 -4 -7 -5 -33
1532257708625894 -2 17 0 -1 0 4 2 4
1532257708685734 3 12 -1 6 -1 0 -3 0
1532257708708673 -3 15 14 -5 -3 -1 1 2
1532257708729617 14 1 9 3 -2 -4 1 -5
1532257708782475 -24 -7 -4 4 0 0 3 9
1532257708805414 20 -8 -14 5 2 1 0 5
1532257708828353 6 0 5 -3 -2 -1 0 -4
1532257708850294 -3 7 3 -3 -3 -1 -1 0
1532257708911131 4 -22 -1 1 5 -1 0 1
1532257708926091 2 0 0 -2 -3 -1 -3 0
1532257708961995 2 -3 -4 -3 -1 -3 0 2
1532257708985943 2 7 3 -1 -2 -2 -1 -6
1532257709007872 -2 2 -1 0 -3 -1 -1 4
1532257709045771 -1 0 1 1 0 -3 -2 -5
1532257709081675 -1 -5 -12 -4 -4 -4 13 -3
1532257709098642 1 9 8 0 1 4 -2 3
1532257709141515 -3 -13 0 1 -1 6 38 6
1532257709166448 2 12 23 21 8 -1 -5 0
1532257709187393 -11 -10 -1 -11 -5 1 -13 -4
1532257709202353 2 -22 -24 -7 -7 -14 -50 -14
1532257709233270 -1 -25 -11 -4 -1 -2 -57 -1
1532257709262192 -14 9 -2 0 2 10 87 12
1532257709286131 -2 -10 -4 2 6 19 -3 1
1532257709316049 14 5 7 1 -3 -12 -35 0
1532257709345968 -5 -17 1 1 1 3 6 -2
1532257709383867 -29 -20 -15 -14 -9 -6 8 -38
1532257709406806 21 51 19 2 -1 -6 -26 7
1532257709431739 25 -14 6 -2 1 9 -9 9
1532257709450688 -5 10 5 -4 -3 -3 27 15
1532257709471633 -2 9 3 -1 2 12 42 0
1532257709489585 -6 14 -8 -1 -7 -12 -9 -3
1532257709532470 4 -2 2 -1 2 -7 -19 2
1532257709572365 -14 27 21 7 2 3 -11 6
1532257709630209 -21 -36 -4 0 1 -7 -10 -19
1532257709690048 21 21 5 4 4 22 14 9
1532257709824688 14 -23 -13 2 7 16 51 16
1532257709848624 24 -10 6 -1 -2 4 32 9
1532257709884528 -22 -5 -7 -5 -4 -3 23 0
1532257709910460 20 9 2 -1 -3 6 -8 13
1532257709999223 -7 2 7 1 2 5 10 1
1532257710022166 4 53 -8 -7 -4 -9 -2 -9
1532257710034139 8 32 23 3 -1 2 14 11
1532257710064049 -18 -58 -37 -12 -4 -2 -19 -9
1532257710087984 6 27 15 5 -2 -5 -26 5
1532257710110923 15 23 15 8 1 -4 -13 20
1532257710124886 10 -8 17 3 3 4 53 15
1532257710148821 -1 -6 0 -2 -4 -4 14 -17
1532257710192704 19 35 18 4 0 -7 -75 -2
1532257710207664 13 8 5 2 2 -3 -3 10
1532257710244566 -3 17 14 3 -4 -7 -16 -15
1532257710290443 0 2 -3 -7 -1 0 11 2
1532257710304405 3 -27 -5 5 2 0 18 -6
1532257710328341 -12 -20 -16 -5 -3 3 14 -3
1532257710364245 -8 -50 -11 7 -4 -10 -58 -3
1532257710433062 9 -33 4 -1 3 0 -45 1
1532257710470960 -1 -14 20 3 0 -5 -8 5
1532257710515840 11 29 -8 -6 -2 2 32 4
1532257710552742 -11 -3 -11 -2 1 4 -9 -3
1532257710581664 -2 57 11 0 -1 -1 7 0
1532257710613579 -18 -90 -15 -4 2 1 0 -5
1532257710634523 -18 -42 -12 -5 2 0 4 -5
1532257710673419 19 117 36 12 5 -17 0 13
1532257710694363 11 75 71 8 10 15 3 -2
1532257710733259 -19 -128 -77 -5 5 8 3 -6
1532257710786121 -12 -3 -25 -2 0 0 0 -1
1532257710816037 12 25 -17 -8 -7 1 -1 0
1532257710935727 -20 -47 -23 -8 -5 9 0 -34
1532257710972635 -4 -1 5 3 -1 1 -1 4
1532257711040438 0 -5 0 1 1 1 6 1
1532257711176075 1 -26 -9 -1 -2 -1 0 0
1532257711394490 4 9 14 -7 -3 -2 -1 -1
1532257711537116 0 -19 -63 -7 -4 25 0 -1
1532257711625872 5 34 61 3 1 17 1 3
1532257711656789 -6 -31 -16 -11 1 -4 -2 -1
1532257711752547 9 -12 -2 -1 0 17 0 1
1532257711790432 -1 24 60 4 -1 -12 -2 -2
1532257711850272 -4 -7 -51 -5 -5 -15 -3 -2
1532257711896149 -3 -21 13 0 4 8 1 1
1532257711933051 11 34 86 8 2 7 1 3
1532257711955989 1 45 -26 2 2 1 1 0
1532257711969952 3 -50 -40 0 -2 7 1 2
1532257711992890 -10 7 34 -3 -3 -2 -5 -4
1532257712015828 8 -17 41 1 -1 4 2 2
1532257712037770 1 -6 8 -4 -3 0 -1 0
1532257712052730 -4 -19 -41 0 -3 0 -1 -2
1532257712089632 -1 -23 29 -5 -3 -7 -2 -2
1532257712112571 -3 13 -61 -4 -1 1 0 2
1532257712135509 0 -2 5 -1 -2 0 0 -3
1532257712158448 -1 -2 1 0 0 -1 -3 8
1532257712173408 0 0 11 -3 3 3 -1 -8
1532257712197344 1 -1 -3 -3 -2 -11 -2 2
1532257712226266 -4 -19 -41 0 -3 0 -1 -2
1532257712256186 -7 -29 -1 3 2 4 0 -4
1532257712278127 -5 17 6 -2 3 0 -2 -6
1532257712316026 -3 8 -3 -8 -4 -3 -3 -4
1532257712330003 1 2 -5 -3 -1 3 -3 -4
1532257712352928 -3 9 3 -4 -1 0 1 1
1532257712375867 -1 7 -3 3 0 2 -1 -2
1532257712389828 2 19 3 3 1 0 2 3
1532257712434709 1 -6 4 -7 -3 3 -2 -3
1532257712449669 -2 3 -85 -7 -6 -5 -1 -1
1532257712480586 -2 -4 31 1 -2 -3 -2 -1
1532257712509525 0 7 18 -1 3 2 2 1
1532257712532448 5 8 1 -4 -4 -5 -2 -5
1532257712555386 -4 -6 21 1 4 0 -5 -6
1532257712578325 -14 -17 -25 0 0 5 3 0
1532257712592288 -2 25 24 -1 -10 -22 -6 -5
1532257712616224 22 -12 3 6 -20 -72 -23 49
1532257712638165 -9 3 -11 -4 9 49 2 -43
1532257712653125 7 12 17 2 7 27 17 8
1532257712675067 -4 -12 -128 -42 -12 -20 -7 -6
1532257712698005 0 -6 69 -1 4 1 0 8
1532257712712965 -4 -1 14 5 5 16 8 21

1532257712735905 2 10 31 10 1 0 1 10
1532257712758859 -5 -7 25 11 4 5 6 -3
1532257712795743 1 16 14 -5 -1 2 8 12
1532257712818683 -3 6 -12 -5 -1 2 1 -14
1532257712832645 -5 -1 8 4 -1 4 0 7
1532257712855583 0 -9 -1 2 1 -4 -4 -7
1532257712878522 4 -13 -12 3 3 -2 7 6
1532257712892485 -3 -6 9 1 3 7 -3 -7
1532257712915423 3 -18 -7 -3 -3 -5 -3 -2
1532257712938361 12 7 15 -1 1 1 -1 4
1532257712976261 -2 7 -3 2 2 2 2 10
1532257712998264 -12 0 -10 -1 0 -7 -3 -1
1532257713012227 -2 16 4 2 0 -1 -4 -6
1532257713036163 4 -18 -10 -1 -1 2 1 1
1532257713058103 2 -4 1 -3 -3 -2 -4 -2
1532257713117944 7 7 2 2 0 -6 4 8
1532257713131906 0 -1 -2 -2 -2 1 -4 0
1532257713140882 1 -23 5 -2 1 2 0 11
1532257713157838 1 -8 7 2 3 2 -1 -5
1532257713191747 -1 2 7 -1 -3 -4 5 -3
1532257713200723 -1 16 28 1 -2 -18 -2 23
1532257713221667 -3 -9 -9 -3 0 4 -6 -21
1532257713260562 -8 -2 14 -3 -2 2 1 -16
1532257713277523 3 -4 -29 -8 -4 2 2 2
1532257713312444 3 -4 6 1 -1 -1 -1 7
1532257713336368 3 8 35 -3 -2 0 2 0
1532257713358307 0 -10 -87 -6 -1 -2 -5 4
1532257713372270 -3 1 -13 -5 -2 3 3 1
1532257713381246 9 13 -17 1 -1 -13 1 46
1532257713397463 -8 11 19 2 2 -31 -2 8
1532257713420401 -1 13 -20 -1 3 -4 5 -32
1532257713463287 -7 48 26 6 -2 -3 15 -37
1532257713478247 -1 -2 14 2 3 1 -12 9
1532257713508167 11 17 -102 -5 -2 11 1 23
1532257713522129 -5 12 -10 2 0 0 -1 -5
1532257713553047 6 -3 0 -22 -13 -7 -3 -10
1532257713563023 -4 14 12 5 0 -3 1 -15
1532257713584961 -19 -11 44 6 1 -1 -4 -40
1532257713620867 -4 -2 -20 -4 -2 -1 -3 -2
1532257713658764 2 -7 -4 -3 -1 0 -3 4
1532257713680705 -2 7 19 1 1 0 -3 0
1532257713694668 1 6 -16 0 1 2 3 14
1532257713718615 0 -2 -7 -3 -2 -3 -1 -7
1532257713740545 4 -28 -12 3 0 1 -3 3
1532257713754508 -4 -4 -4 -3 -2 -1 -1 2
1532257713801383 6 9 -7 -1 -2 -2 0 2
1532257713838284 -2 4 -4 0 3 0 -5 -5
1532257713861223 1 11 -11 -2 -8 -2 2 3
1532257713928044 -1 10 -26 -6 0 1 -2 1
1532257713950983 -1 14 13 -1 -1 0 -2 -1
1532257713994866 4 -2 -63 2 -2 0 -3 -2
1532257714018801 1 -2 42 6 2 -1 1 0
1532257714040742 -9 -26 9 -5 -3 -3 -2 -1
1532257714078641 1 -6 -12 -4 -4 -1 -1 1
1532257714138481 -7 -10 6 -1 -1 0 0 -3
1532257714198321 1 10 1 2 0 -2 0 2
1532257714221260 5 -4 -1 1 1 -1 0 2
1532257714281099 0 -4 -3 -1 -6 -3 0 1
1532257714379836 0 -8 -4 -2 -6 -1 -1 -1
1532257714414742 -3 -11 9 -5 6 -1 -1 -4
1532257714557361 1 -6 -9 2 9 6 2 1
1532257714633158 0 -2 -14 -11 4 -3 1 -2
1532257714701974 -4 -8 -14 -7 -5 0 -1 3
1532257714722918 9 30 34 6 2 2 -1 -4
1532257714783755 -8 -6 -1 22 2 -1 3 26
1532257714805697 -11 -12 -10 -6 2 -6 4 15
1532257714820657 -93 -17 -5 -11 -5 -7 -7 -35
1532257714856561 -30 -3 15 -1 0 26 1 -3
1532257714903436 14 -18 -3 -7 -6 -10 22 15
1532257714926374 -67 -4 -9 -7 -14 -16 -13 -52
1532257714956295 -128 -9 20 14 7 -6 4 -95
1532257715037078 5 10 4 3 -1 -5 -40 0
1532257715061014 106 -17 -24 -9 -5 6 60 44
1532257715082956 80 17 43 5 9 -1 88 -24
1532257715105894 -94 -21 -58 -11 -6 -4 33 -49
1532257715119856 11 6 12 -4 -7 -1 36 -7
1532257715143793 -15 -11 -4 -3 -2 -10 -52 -14
1532257715225574 38 23 37 11 5 -5 -61 3
1532257715277436 6 -5 -7 -3 -4 -6 -17 -4
1532257715389137 -13 -84 -34 -11 -3 -12 -4 -5
1532257715441995 -7 -62 -6 -5 -5 -8 -4 -4
1532257715480891 0 35 6 4 -2 1 0 -2
1532257715502833 0 44 -2 -11 -3 -5 -2 0
1532257715525771 -1 17 18 -7 -10 -3 -3 -2
1532257715593591 6 39 26 3 0 0 0 0
1532257715608550 0 31 95 10 2 -2 -1 0
1532257715645451 3 49 14 -1 1 1 1 2
1532257715825969 -7 11 -1 4 0 1 -11 -49
1532257715945649 -5 -24 -25 -3 -2 -3 -6 -29
1532257716051366 -1 -7 -10 -3 -5 1 -2 1
1532257716079291 4 12 9 0 -4 -8 2 -9
1532257716245846 5 -1 -21 7 1 -1 1 8
1532257716312667 -7 17 -2 1 -3 -1 5 4
1532257716388464 -3 -31 -16 1 0 0 -1 -2
1532257716427361 -1 24 7 7 0 0 0 -3
1532257716493184 0 8 0 0 0 2 1 2
1532257716516122 5 -5 2 -1 2 1 -2 2
1532257716598902 1 -7 2 5 1 1 4 4
1532257716643781 -6 -27 0 -1 -2 6 -11 -1
1532257716667717 -6 3 2 -1 -1 2 -79 -5
1532257716687664 -5 21 5 2 5 6 24 6
1532257716701627 3 3 12 7 1 -2 -23 -6
1532257716725563 -2 -18 -9 -2 3 4 -39 1
1532257716748501 8 -3 -3 1 -3 0 22 4
1532257716808342 -10 -33 -7 -3 3 9 65 1
1532257716831280 0 -17 -10 -7 -7 -17 -37 3
1532257716898102 -2 7 1 -2 -4 -6 -5 17
1532257716936001 3 17 6 2 3 18 33 8
1532257717001824 7 14 -1 -1 0 -3 -34 -1
1532257717070640 -9 -45 -8 -1 -1 1 11 0
1532257717121504 -21 -41 -19 -7 -4 -2 -33 -12
1532257717175360 -7 0 -14 -4 1 10 43 10
1532257717236198 17 4 4 1 0 9 -3 2
1532257717242181 -1 -23 9 5 3 -4 25 13
1532257717401759 -8 -5 0 -3 -3 -4 -26 -11
1532257717477552 5 48 12 2 -2 0 30 -13
1532257717498496 -8 -15 -14 -1 -1 -6 -14 -9
1532257717528416 0 10 10 4 2 -4 -32 17
1532257717558336 -6 -21 -13 -7 -3 1 41 1
1532257717581275 3 -7 13 5 1 -2 13 22
1532257717611195 -2 -25 -7 -3 0 2 -56 -2
1532257717641114 -2 -3 4 1 -3 2 -8 -9
1532257717678016 -3 -5 -6 -5 -2 -7 -22 6
1532257717729877 -4 -14 -17 -9 -5 3 44 -5
1532257717798693 -7 7 -1 0 4 2 7 3
1532257717849557 -15 -54 -39 -11 -1 2 32 -9
1532257717887456 1 -2 17 5 1 4 -4 -8
1532257717947296 -14 -24 -6 7 6 8 28 -1
1532257717970235 3 19 15 2 -2 -1 -13 -3
1532257718023093 -4 13 3 2 0 -1 9 -4
1532257718030074 3 -26 -20 0 6 12 19 5
1532257718112853 -2 51 -19 -7 -3 -4 -11 -1
1532257718135792 -7 -17 -19 -5 -4 -1 1 -2
1532257718172693 11 87 16 6 6 25 9 25
1532257718195631 -12 -82 15 0 -3 -10 -8 -10
1532257718247493 -4 22 0 -5 -5 -11 -6 -9
1532257718315328 0 5 6 -3 -1 -2 -1 -2
1532257718390112 -17 -9 -20 -11 -4 -1 -5 -4
1532257718517771 -4 0 -10 -5 -3 -3 -1 -3
1532257718563647 3 9 -1 -2 0 -2 3 -1
1532257718599552 1 17 -11 -5 -3 1 1 -1
1532257718750149 5 3 6 4 5 3 3 4
1532257719072287 3 -24 -25 -1 3 -10 -1 -1
1532257719192965 0 -8 33 -2 -2 -1 2 0
1532257719216901 -4 -26 -17 0 -2 5 -2 -1
1532257719275744 -7 -12 16 -6 -2 5 1 -1
1532257719298682 0 2 -9 -1 -1 -5 0 0
1532257719328602 6 -7 -59 4 2 0 0 1
1532257719357524 -2 -7 -32 5 10 0 -2 2
1532257719382458 0 17 8 1 -2 26 -4 -2
1532257719433322 -1 28 35 2 4 -8 1 1
1532257719442298 0 -11 -11 0 1 -5 -5 -7
1532257719470224 -5 -18 -13 0 5 2 -1 14
1532257719495157 0 -13 -1 0 -3 -5 -3 16
1532257719553002 2 7 -40 3 6 4 4 -29
1532257719575941 3 7 -20 -2 -1 -1 -3 -9
1532257719597881 4 37 23 0 -1 -3 0 32
1532257719628799 0 -14 16 6 7 8 2 16
1532257719651738 -1 31 13 -8 -5 -4 0 -10
1532257719665701 -3 -12 3 2 1 1 0 -1
1532257719695621 -4 6 14 0 -1 0 0 -7
1532257719710580 0 -45 -19 -3 -3 -4 1 -1
1532257719733519 -4 9 1 0 1 -1 0 -4
1532257719755462 -4 -4 64 1 0 0 0 -4
1532257719770421 0 -2 -11 5 3 0 0 1
1532257719793359 -3 1 -2 -6 -6 -4 -1 -1
1532257719816297 -3 0 15 5 -1 -2 -1 -1
1532257719829263 0 -7 -9 -7 -1 1 -4 -2
1532257719853200 -4 11 -12 -3 -5 -4 -3 -3
1532257719876138 0 -3 -53 -9 -4 -5 1 -1
1532257719906058 6 -10 12 -5 -1 -2 -3 0
1532257719928997 -12 7 -1 2 1 -2 -1 -3
1532257719971882 -3 25 -15 -3 -1 5 23 20
1532257719995817 16 -8 10 12 -11 -62 -25 48
1532257720018777 0 -47 -1 10 17 29 -8 -44
1532257720032719 6 39 1 0 3 -1 -14 4
1532257720055658 -15 21 112 9 -1 2 3 -29
1532257720069621 1 -18 67 -31 -13 3 -4 -7
1532257720092559 -5 -43 -128 0 1 18 10 6
1532257720099540 -8 -2 88 -17 -6 -5 -1 -8

1532257720138436 3 13 -23 -4 -3 -1 0 0
1532257720175338 10 6 -2 1 -1 -2 -7 -9
1532257720197279 -9 16 8 3 3 0 1 -7
1532257720235197 4 -3 4 -3 -1 1 1 10
1532257720243157 -1 9 1 -1 -1 3 0 -5
1532257720260111 6 -4 -19 -4 -1 0 -3 -14
1532257720275078 -2 7 8 0 1 2 1 -4
1532257720297016 -4 -8 -8 -3 -2 -3 -8 -24
1532257720319962 1 4 2 -2 -2 -1 0 16
1532257720339897 3 0 0 2 2 1 7 7
1532257720357850 -9 -3 2 2 0 1 1 3
1532257720379791 0 -2 0 -1 1 -1 -1 -9
1532257720399738 5 10 -2 -2 -2 -1 -3 4
1532257720417690 2 1 -2 -3 -1 -2 8 42
1532257720439639 8 -5 2 -4 -3 -1 -4 -4
1532257720469551 -10 -5 -29 2 -1 1 -1 -9
1532257720484511 -8 1 20 2 3 1 -5 -23
1532257720512437 3 3 2 -1 1 -1 2 7
1532257720527396 5 2 28 -2 -1 -1 -5 7
1532257720543370 -8 1 -3 -1 -1 1 1 -8
1532257720572293 4 -8 0 -1 0 -3 -10 -16
1532257720579274 -2 -8 -6 1 2 0 8 11
1532257720618171 0 -1 -1 -4 -1 0 4 6
1532257720639114 5 -1 -1 -2 -1 -3 -8 -13
1532257720678010 -2 -2 -4 0 0 -1 -4 -4
1532257720691972 3 3 -3 -1 -1 0 4 -13
1532257720700948 4 0 -3 -2 -2 -1 0 2
1532257720724884 -2 -2 -2 -1 -1 -1 0 0
1532257720739845 0 -3 0 -1 0 -2 -1 2
1532257720762950 -3 -5 0 -2 1 -1 -1 -4
1532257720784894 1 1 -1 -2 -1 -1 -1 -2
1532257720811821 5 1 -2 -2 0 -3 -2 -3
1532257720858696 1 -1 -2 0 1 -1 -1 6
1532257720871662 -5 -2 -2 -1 -4 -9 -1 -23
1532257720918536 3 4 0 -2 -1 -2 1 6
1532257720931502 0 1 0 -2 0 0 0 2
1532257720948458 3 0 14 -2 -2 0 -3 1
1532257720978376 -1 -10 -37 0 0 2 -1 -6
1532257720992339 8 0 -60 -3 -2 1 12 32
1532257721007299 -9 2 -1 0 -1 -7 -8 -3
1532257721029240 -2 2 -6 -2 0 5 -3 -25
1532257721040211 -1 -3 -23 -12 -5 -2 -8 -17
1532257721061155 -12 8 51 4 2 3 -7 -2
1532257721085091 -3 -8 -4 0 -2 -2 -1 -6
1532257721100050 4 -9 -59 -5 0 11 -1 -1
