1532261544771091 -1 -1 -1 -1 0 -2 0 6
1532261544789044 -2 -1 -1 -2 -1 0 -4 -6
1532261544857860 -2 -2 -1 0 0 1 -1 1
1532261544875811 -1 -1 0 -1 -1 0 -2 -3
1532261544895758 4 0 0 1 1 -1 1 0
1532261544925678 -1 -2 -3 -1 -2 -2 -3 -3
1532261544946622 0 0 -1 -2 -2 0 0 0
1532261544965572 -2 -1 0 -1 -1 0 -1 3
1532261544991502 -2 0 -1 -1 -2 -1 -2 -1
1532261544998483 -3 -4 -2 -1 1 0 0 2
1532261545059321 -3 -1 -1 -2 0 0 -1 0
1532261545105210 1 -1 -2 -1 -1 0 0 1
1532261545172019 0 0 -1 -1 0 -2 -4 0
1532261545226872 2 -1 -1 -1 -2 -1 -2 -5
1532261545241847 3 2 -2 1 1 -3 -2 -2
1532261545284718 -3 -2 0 -1 -2 -2 0 0
1532261545373481 4 -2 -1 1 1 2 1 1
1532261545412377 1 -1 -1 0 -1 -1 -1 -3
1532261545435315 3 -1 0 0 -1 0 -1 -2
1532261545451272 13 -2 -2 0 -2 -3 -2 1
1532261545472216 -5 1 -1 -1 0 -2 -1 -4
1532261545502137 -6 -2 -1 -1 -2 1 0 -1
1532261545517097 -10 0 -2 1 -2 -1 -2 -3
1532261545561977 0 -1 1 1 0 3 3 4
1532261545629795 0 -1 0 -2 1 -2 1 -1
1532261545751470 17 -2 -2 -3 -1 -2 1 -1
1532261545772414 11 0 -1 -1 0 -1 0 0
1532261545796350 -6 0 -3 0 -3 -1 0 -1
1532261545816297 -3 0 0 -2 -2 -2 1 -2
1532261545825273 -1 -3 -4 -2 -2 -1 0 -1
1532261545876136 -8 -2 0 -1 -2 -2 2 -1
1532261545965896 2 -1 -1 -2 -2 0 0 1
1532261546005790 3 0 -2 0 -1 -1 -2 -1
1532261546034712 -2 0 -1 -2 0 -2 -3 -2
1532261546049673 1 -3 -3 -2 -3 -1 0 0
1532261546086574 3 0 -1 0 -1 0 -2 -2
1532261546100536 -3 -2 -1 -1 -1 0 0 -2
1532261546148409 -3 0 -1 0 1 -4 0 1
1532261546214232 -4 -1 0 -3 0 -1 -2 -1
1532261546259111 -4 -1 -2 0 -2 0 1 7
1532261546334910 -1 -3 -1 -1 -3 -2 -1 4
1532261546351864 1 1 -1 -1 -1 -2 -1 4
1532261546386771 -4 -1 0 -2 0 -2 -1 -1
1532261546462568 -1 -2 -1 -1 -1 0 -2 -1
1532261546514430 0 -1 -1 -1 0 0 2 -2
1532261546626130 1 -1 -1 -1 -1 -4 -1 0
1532261546641091 -2 -1 0 -2 1 2 -2 1
1532261546694947 -2 -2 -5 -1 -2 -6 0 -2
1532261546821608 2 2 4 -2 -6 6 10 3
1532261546950264 -4 -2 -10 4 -2 -2 -7 -3
1532261547151726 -4 -37 -8 -2 -12 1 -10 -4
1532261547183641 0 17 0 -7 -23 -11 7 1
1532261547196605 -2 -10 -5 -15 -3 2 -1 -3
1532261547251459 -6 9 -3 1 -25 -17 -3 -1
1532261547296339 -6 -7 -6 2 17 12 3 -2
1532261547377123 3 29 -4 -7 -11 -10 0 -1
1532261547462893 2 26 7 1 8 6 2 5
1532261547511763 -5 3 2 -1 4 22 -1 -5
1532261547549661 2 22 -5 -4 -5 15 -7 4
1532261547655379 0 -8 -3 -2 -5 5 -6 -3
1532261547700259 -3 -14 -1 -3 -14 -19 1 -2
1532261547761096 8 1 0 -3 11 -3 -13 -8
1532261547796002 -14 -7 -7 -2 4 22 -3 1
1532261547825923 0 0 -2 -2 -3 -5 3 -2
1532261547950630 -18 12 7 2 1 6 8 -1
1532261547978554 -12 1 -4 -2 -1 -20 10 52
1532261548014459 13 -6 5 -2 -6 15 2 0
1532261548051359 -12 1 -2 -6 -2 -21 -5 -48
1532261548066320 -10 -5 0 2 2 6 5 29
1532261548097237 -20 -9 4 4 1 -23 1 5
1532261548120176 1 -12 -8 -4 1 10 -1 5
1532261548142117 -3 -1 -6 -2 -1 8 -6 -2
1532261548193978 1 2 0 -2 -1 7 -1 9
1532261548234883 -12 -3 -4 -4 -7 -5 1 -14
1532261548255826 2 3 1 3 4 6 2 8
1532261548276757 7 1 -1 4 3 24 6 1
1532261548299696 -4 3 -2 -11 -15 -74 -10 -4
1532261548322634 4 -5 3 -7 -18 5 4 4
1532261548352554 1 -3 -4 7 7 -17 -4 -2
1532261548374495 -2 -4 -4 -17 -21 12 0 -1
1532261548434336 4 1 4 0 -19 18 9 2
1532261548472235 -3 -6 5 -6 2 7 -11 -4
1532261548526090 -2 -13 -16 -14 0 24 2 -1
1532261548540053 0 3 -1 2 32 -19 -8 -1
1532261548555013 3 -1 -9 -2 -14 0 2 2
1532261548578949 -9 -5 -3 10 6 -18 -7 -4
1532261548593909 -1 -8 -8 -12 -21 9 2 4
1532261548616848 2 1 2 6 3 -2 -2 -2
1532261548635797 0 -4 -1 3 -1 25 -4 -4
1532261548653749 0 2 1 -5 -11 -54 -2 1
1532261548676688 1 -5 7 -3 -11 -11 1 0
1532261548719573 -2 -10 -7 2 6 20 -3 -3
1532261548735529 -4 -1 -5 3 -6 -18 0 0
1532261548758483 0 3 -2 -5 -22 -57 0 1
1532261548794373 0 4 0 -6 -6 -3 -3 -4
1532261548808336 -1 0 0 1 13 2 -1 0
1532261548840267 -2 -3 -3 6 -14 13 0 -2
1532261548856208 -2 1 -1 -5 -10 6 -3 -3
1532261548892112 -2 -4 -2 -6 -2 -2 1 -2
1532261548921035 -2 0 -1 7 10 13 8 0
1532261549041711 4 9 0 3 -10 -11 1 0
1532261549056672 0 9 -1 -3 -4 5 -7 -4
1532261549085594 3 10 -5 -3 2 1 3 2
1532261549108533 -1 -1 2 8 6 9 -11 -4
1532261549155413 -3 -10 -5 -4 -9 -7 4 1
1532261549169370 -2 -2 0 5 4 -6 1 3
1532261549299023 2 -3 3 -3 15 15 8 0
1532261549366849 -4 -3 -1 7 2 -5 1 -3
1532261549403750 -1 -1 0 -9 1 11 0 0
1532261549410731 1 9 7 17 -6 51 4 0
1532261549424694 -1 -2 -3 -3 -3 -17 -3 0
1532261549462592 -4 -1 -2 1 29 10 4 -3
1532261549484534 -1 -13 -6 -3 -2 -7 -1 1
1532261549598230 0 -2 -1 -4 2 4 0 -3
1532261549620171 -2 -2 -2 -2 -2 -17 -2 -4
1532261549644113 -1 -1 0 -1 -3 -6 -1 -1
1532261549717910 -3 -2 -3 -1 -1 -24 3 -2
1532261549731873 1 0 0 1 -1 19 1 -2
1532261549853546 1 -1 0 3 0 -2 1 1
1532261549911392 0 -1 -4 -1 1 -2 -2 -2
1532261549971232 -3 -6 -3 -1 -3 -2 7 1
1532261550010128 0 -1 -1 -1 -2 -40 -1 -2
1532261550203635 -1 0 1 -3 -1 -2 -1 -2
1532261550257490 -5 -3 1 2 -1 -4 -1 -2
1532261550443993 -1 -5 -3 -1 1 -6 -2 0
1532261550519790 -2 -1 0 -1 -4 -8 -1 2
1532261550664403 -2 -2 -3 -3 2 0 -5 -2
1532261550745187 0 0 -1 -1 -1 -30 -10 -1
1532261550776104 1 0 -2 -4 -2 5 -7 -3
1532261550798046 0 -2 -1 -1 1 8 4 0
1532261550847939 -2 -3 -3 1 0 -2 -1 0
1532261550939694 -2 -2 0 -2 0 -2 1 -5
1532261550992552 1 3 -1 2 0 1 4 -2
1532261551029492 -2 -4 -1 -1 -4 -6 0 -2
1532261551098308 -1 -2 -1 -3 -3 0 -7 -1
1532261551239939 -1 0 -2 -2 4 5 0 -3
1532261551308745 0 -2 -4 -11 9 16 -1 -1
1532261551336670 0 -1 -6 -1 -12 -10 1 -1
1532261551382548 1 -4 9 18 12 3 -2 -2
1532261551449376 -1 -1 -8 -9 0 14 2 1
1532261551502234 -1 -3 -4 -13 -8 -11 -3 -4
1532261551593989 -1 -1 -1 3 6 32 2 -1
1532261551668812 -1 -2 3 5 2 -11 1 -2
1532261551691750 -9 -15 -2 -11 -4 19 7 1
1532261551713692 2 4 -2 7 30 25 9 2
1532261551839356 -2 -3 0 -4 -34 37 3 3
1532261551903186 -3 1 -3 -11 -15 -10 -1 -6
1532261551925127 -3 1 4 7 -4 -13 -1 1
1532261551947068 8 13 9 18 26 9 -6 0
1532261551968012 1 4 -11 -11 14 51 -14 -9
1532261552011895 -72 -19 -2 10 27 9 6 -29
1532261552022865 23 -18 3 11 15 16 16 11
1532261552064753 0 -3 -4 -12 -11 -4 -12 -3
1532261552101655 -76 -24 -10 -2 17 13 10 -4
1532261552132572 -24 -11 3 42 -18 20 -7 -2
1532261552178450 5 3 5 -5 -54 61 -9 4
1532261552266214 -26 60 -10 -17 24 -6 15 5
1532261552343009 6 2 -1 -2 18 13 23 0
1532261552370934 8 -2 -1 -4 7 -3 38 12
1532261552431772 5 -3 1 5 12 21 18 3
1532261552453713 20 6 3 -11 21 25 21 10
1532261552484631 18 -9 0 -8 -11 -8 1 10
1532261552505574 -12 -6 4 -2 -6 3 -3 0
1532261552544471 5 61 -3 -11 -10 -56 -14 -9
1532261552567410 8 3 -16 -7 7 42 -7 2
1532261552733964 -7 -9 1 1 -9 -18 3 0
1532261552815745 -20 -30 -8 -3 0 20 18 10
1532261552874588 -17 -17 -1 3 28 53 -8 -11
1532261552912486 -9 -1 5 -14 -128 -36 -8 -4
1532261552981303 1 22 -3 -5 17 -12 -4 -8
1532261552995265 30 21 12 14 13 10 6 3
1532261553062086 -2 -5 -2 7 -17 -13 -4 -3
1532261553182763 -2 0 3 -1 9 -2 -2 -2
1532261553249585 -1 -2 -1 -8 1 4 1 -1
1532261553296460 -1 2 -2 -2 -3 -3 -1 -1
1532261553369265 -1 -2 -1 -2 6 -3 -2 -3
1532261553392203 -1 -3 -2 0 4 -4 -5 -2
1532261553452044 1 0 -4 -10 -2 2 -2 -1
1532261553474982 -2 -1 -4 0 2 4 1 0
1532261553528838 0 6 -2 0 -5 -2 -1 -1
1532261553548785 -2 0 -2 5 -5 4 -2 -1
1532261553586684 0 0 -1 -5 1 4 0 0
1532261553632560 -2 -2 -4 -2 -11 -4 -4 -2
1532261553721324 -3 -7 -2 0 0 -15 -5 -3
1532261553796124 0 2 -1 -11 14 -3 -3 -2
1532261553826043 -2 0 0 12 0 11 -3 -1
1532261553848982 -1 0 2 8 0 -6 -6 -3
1532261553886881 -4 -4 -4 -12 -2 7 -3 -2
1532261553925784 -1 -3 -3 -4 -30 -16 -9 -1
1532261553969667 -1 -1 0 6 27 42 10 0
1532261554037485 2 0 -1 2 -1 0 -4 0
1532261554066407 -2 -4 0 1 -10 3 1 -1
1532261554089347 0 -4 -3 4 12 15 6 1

1532261554126247 -3 -3 -6 -6 -3 -3 0 -4
1532261554164147 -2 0 1 -7 -17 8 5 1
1532261554186088 3 2 0 9 11 15 14 0
1532261554217005 1 0 -3 2 -19 -24 -1 -1
1532261554223987 -3 -1 -2 -7 -24 14 -2 -2
1532261554269864 2 -3 -6 -1 38 -19 -11 2
1532261554306804 1 1 -1 -2 6 17 3 -3
1532261554329742 -3 5 4 -1 -3 -20 -8 -3
1532261554366644 2 -2 -2 -1 2 12 -1 -1
1532261554403545 -3 -3 -2 6 3 5 -1 -3
1532261554426484 -1 -1 -2 -4 5 5 2 -1
1532261554486325 -1 0 -1 -2 4 2 0 -2
1532261554539183 -1 -3 -1 2 3 3 -2 0
1532261554571098 -1 -1 -1 -2 2 2 -1 -2
1532261554592041 1 0 -2 -1 0 -3 -2 -1
1532261554629940 -1 0 -2 -2 0 -1 1 -1
1532261554643903 0 -1 0 0 -1 -1 0 -1
1532261554666842 1 -1 0 -1 1 0 1 -1
1532261554703751 -1 -2 0 -1 -1 -1 -2 -2
1532261554749621 -2 -2 -3 0 -3 -4 -2 2
1532261554772559 -3 0 -3 0 0 0 -1 -2
1532261554825418 -1 -1 -1 0 -2 -1 -1 0
1532261554846361 1 -1 -1 -2 -1 -1 -1 -1
1532261554915177 -1 -2 -2 -1 -1 0 -1 0
1532261554931134 -2 -1 -2 -1 0 1 0 -2
1532261555011919 0 0 -1 0 -2 -1 -2 -2
1532261555147556 0 1 -1 0 -2 0 -1 -1
1532261555252276 -2 -1 0 1 -1 -2 -1 -1
1532261555356996 -1 1 0 1 -1 1 -3 0
1532261555424815 -1 1 1 -1 1 1 0 -1
1532261555446756 0 -2 -2 -1 -1 -1 -2 0
1532261555469701 -1 -1 0 2 0 0 -2 0
1532261555491641 0 -2 -2 -1 -1 -1 -1 -1
1532261555529558 -1 0 -3 -2 -1 -1 0 -1
1532261555552496 -1 -1 0 0 -1 1 -3 -2
1532261555574438 -1 0 0 0 0 -1 0 0
1532261555591411 0 -1 -2 -1 -2 -1 -2 -1
1532261555613335 0 -2 -1 -1 0 0 -2 -2
1532261555635275 0 -1 -1 -1 -1 0 -1 -1
1532261555651246 -1 -1 -2 -2 -2 1 -1 0
1532261555685900 -1 -2 -2 -1 0 -2 -4 -2
1532261555701857 -1 -2 0 0 -1 0 1 -1
1532261555723799 -2 0 -1 -1 0 0 -3 -5
1532261555741751 0 0 0 0 0 1 -1 0
1532261555769675 -2 -2 0 -1 -1 1 2 1
1532261555792615 0 -1 -1 -1 1 1 -7 -4
1532261555805580 -2 1 0 -1 0 0 -3 -2
1532261555829527 -2 0 0 0 -1 0 -1 1
1532261555852454 -1 -1 0 0 -1 0 -2 0
1532261555889356 0 0 0 0 -2 -1 -3 -1
1532261555912294 -2 -1 -2 -2 0 -2 1 2
1532261555965153 -2 -1 -1 0 0 -2 -2 -2
1532261555972142 -2 -3 -2 -2 -2 2 0 -2
1532261555995073 0 -1 -1 0 -2 1 -2 -1
1532261556011031 -1 -1 -3 -2 1 -2 -2 -1
1532261556033969 -1 -1 -1 -3 -1 -1 -2 0
1532261556054913 -1 -1 1 1 0 -2 0 1
1532261556091815 0 -1 -1 -1 1 0 -2 -2
1532261556105777 0 -1 -3 0 -2 0 -1 1
1532261556114753 0 -2 -1 0 -1 0 1 1
1532261556152651 -1 -1 -2 0 -1 -1 -1 -1
1532261556174593 0 1 1 -1 -2 1 0 2
1532261556188555 -1 0 0 -1 -1 -2 0 0
1532261556257372 -1 -2 -3 -1 0 -1 0 0
1532261556272339 -1 -1 0 -2 -1 -3 -1 0
1532261556294273 -1 -2 -1 -3 -1 0 -1 1
1532261556325190 -2 0 -1 -4 -56 1 1 -1
1532261556341159 -1 -1 -1 2 6 -2 -1 0
1532261556362091 -1 -1 0 -1 12 -1 0 0
1532261556414950 -2 -2 0 -2 -3 -1 -2 0
1532261556427916 -3 0 -1 -1 -1 0 0 -1
1532261556481772 0 -1 -2 -2 -1 -1 -1 -1
1532261556512694 -1 -1 -2 -1 -3 -3 -1 -3
1532261556534630 -1 -1 0 -2 -2 1 -1 -1
1532261556572529 -3 0 -2 0 1 0 -2 0
1532261556594470 1 -1 -1 -1 -1 -1 0 -1
1532261556639350 -1 -1 0 -2 -1 0 0 -1
1532261556654310 -2 -1 0 -1 0 -4 0 -1
1532261556677253 -1 0 0 -1 1 -3 1 0
1532261556722129 -2 1 0 0 1 -1 -2 -2
1532261556728113 -2 -2 -1 -1 0 1 -1 -1
1532261556774987 -1 -1 -2 0 -1 -1 -2 -1
1532261556787953 -1 0 1 -2 -1 2 -1 -2
1532261556810892 0 -2 -1 -1 -1 -2 1 -1
1532261556834828 -3 -2 -1 -1 0 -1 2 -1
1532261556871735 -1 -3 -1 -1 0 -2 -2 -1
1532261556894667 -1 0 -1 0 -1 -1 -1 -1
1532261556908630 -1 -2 -2 -4 -1 -1 0 -1
1532261556932573 1 0 0 0 0 -2 -1 0
1532261556954507 -1 -2 0 -1 -2 -1 -1 -2
1532261556977446 -2 0 1 1 -2 -1 -4 -1
1532261557088150 0 -2 -1 -2 0 -1 1 1
1532261557111089 -2 -2 -1 -1 -2 1 -1 -1
1532261557135042 -2 0 -1 -2 -2 -4 -1 0
1532261557172923 0 -3 0 0 -1 -1 -5 -1
1532261557216806 1 -1 -1 -2 -1 -2 -2 0
1532261557270662 -1 -2 0 0 -1 -3 -2 0
1532261557305569 0 0 -1 0 -1 -1 -1 0
1532261557367404 1 -2 -2 -1 -2 -3 -2 -1
1532261557418267 -3 0 -2 -2 0 -1 1 0
1532261557457163 -8 -2 -1 -2 -2 -5 -5 5
1532261557471126 -1 -1 -3 -1 0 0 0 -2
1532261557517003 0 2 1 -2 -2 1 0 2
1532261557584822 0 0 -1 0 1 -1 1 -3
1532261557614742 -1 0 -2 -3 -2 0 0 0
1532261557667601 0 -1 -1 -1 -1 -1 -3 -1
1532261557711483 -2 0 0 -1 0 -3 -8 2
1532261557757361 0 -3 -2 -1 -3 -3 -1 -1
1532261557770326 -1 1 -3 0 -1 -1 -1 2
1532261557794262 -3 -1 -1 -2 0 -2 -3 -2
1532261557878038 0 -2 -1 -1 -2 -1 -2 -3
1532261557922918 -1 -3 -6 -8 -4 -2 0 0
1532261557958822 -1 1 42 -54 -27 -38 -7 -2
1532261557967798 -4 -3 -24 -19 1 7 2 -2
1532261557988755 -3 -1 -7 -12 -22 2 -3 -3
1532261558019676 -2 0 18 16 15 15 2 -2
1532261558087478 -2 -4 -25 -12 9 -3 2 0
1532261558102438 0 3 3 -2 -16 26 4 2
1532261558328841 1 0 6 43 33 6 -1 0
1532261558365734 -5 1 -3 1 -18 -27 -6 -2
1532261558380694 3 59 1 -15 11 22 -2 -1
1532261558408619 -3 -35 -12 -3 -34 -38 -4 -3
1532261558426571 -1 17 -1 11 -24 0 4 -3
1532261558510347 1 -4 -2 -12 23 -7 0 5
1532261558562208 -17 4 -3 -18 8 10 -1 -5
1532261558582155 -2 -26 -5 -4 -2 13 0 5
1532261558649974 -3 7 2 9 9 8 0 3
1532261558671915 -11 -1 0 6 -6 -8 1 -8
1532261558718789 5 -11 -2 -10 -11 -5 0 -19
1532261558838469 13 11 -1 4 6 -2 -20 4
1532261558874374 -7 0 -1 -4 1 -8 -2 -15
1532261558921248 33 3 -3 -1 4 6 -2 23
1532261558971114 2 0 0 3 22 30 2 11
1532261559025968 3 -5 -4 0 3 -1 -6 -18
1532261559031952 -6 1 0 -5 -18 -15 -10 -8
1532261559092790 -9 0 3 -1 -2 -3 1 -10
1532261559121712 8 12 -4 -5 -1 1 2 24
1532261559143653 5 1 -1 -1 19 4 1 15
1532261559182549 -11 -3 2 -2 5 -1 -1 -3
1532261559212469 -19 9 0 0 -7 -9 -2 -10
1532261559242389 -1 -8 -1 -1 -3 -1 0 -1
1532261559272312 3 -3 -2 -1 -5 -18 -4 3
1532261559317190 5 -1 -1 -1 1 -20 3 -8
1532261559364064 7 8 5 9 5 5 -6 -3
1532261559384010 -3 3 -1 0 1 -6 -6 0
1532261559395979 4 16 1 12 6 12 -7 -1
1532261559421909 -7 4 6 4 -3 -20 -10 -1
1532261559450832 8 9 1 1 -4 -7 0 3
1532261559489729 -9 1 -6 -11 37 26 -4 -7
1532261559519648 4 10 5 23 33 6 2 3
1532261559542587 -7 -19 -7 -1 -24 8 1 1
1532261559564528 1 -12 -8 4 -2 15 3 1
1532261559609408 -3 -1 -6 2 12 -5 2 -2
1532261559639328 0 2 -8 7 10 -18 -8 -2
1532261559662267 -7 -7 -8 -9 -26 -26 2 -1
1532261559722109 4 8 27 4 6 -8 -11 -2
1532261559767984 -5 -4 -4 -3 8 7 -5 -2
1532261559841786 1 2 -9 -2 -9 10 -4 0
1532261559856747 9 -7 0 -3 -12 -18 4 5
1532261559879685 -3 1 -1 0 -10 -28 -5 0
1532261559909605 -2 3 0 5 16 0 -2 -2
1532261559923568 10 3 -3 -6 -8 -6 -3 0
1532261559962464 -4 -2 -2 -4 -2 5 5 -2
1532261560074165 -1 0 1 -2 -1 2 -9 -7
1532261560111066 -10 2 -1 2 7 6 -3 -16
1532261560186864 2 0 1 1 0 10 -10 -5
1532261560262662 0 -4 -2 1 -4 0 -3 4
1532261560373366 -2 1 2 -1 0 1 -1 22
1532261560465119 -2 3 -1 -2 0 -4 -2 -2
1532261560502021 -1 -4 -3 -6 -3 -3 -5 -12
1532261560546901 2 -3 -2 -1 0 0 1 5
1532261560561861 4 1 0 1 -1 -3 -5 -4
1532261560643642 1 -1 -1 0 1 -1 -1 -1
1532261560711462 -3 -1 -1 -1 -2 -5 -1 3
1532261560751355 -1 -3 -1 -1 0 3 0 -2
1532261560779280 -2 -4 0 -1 -1 1 -2 -2
1532261560801221 2 -3 0 1 1 2 -1 37
1532261560824160 -8 -3 -1 0 0 -5 -4 -16
1532261560863055 -1 0 -2 -3 -1 4 3 -1
1532261560884000 1 -2 1 -3 -3 2 -5 -6
1532261561036609 1 1 1 0 0 -3 0 5
1532261561124357 0 0 -2 -1 -1 -8 -4 7
1532261561147296 2 2 -2 -2 -2 4 -2 4
1532261561267972 2 1 -3 -2 -1 7 -11 -10
1532261561313850 -1 -4 -3 -2 -1 -1 0 -6
1532261561447493 -18 -10 -3 -2 -3 -6 -1 -2
1532261561516308 -3 2 -3 -3 -3 -2 2 -2
1532261561544234 1 2 -1 0 -1 -3 -5 -5
1532261561612053 -7 -4 -1 -1 -2 0 1 0
1532261561640975 -2 1 1 -1 -3 0 2 0
1532261561700815 3 9 -3 -1 -1 -1 -2 2
1532261561820495 4 0 0 -1 -1 -3 -3 0
1532261561867369 -4 -2 1 -1 2 2 3 -2
1532261561950148 1 -2 -2 -1 4 3 0 -1
1532261562108724 -48 -47 8 13 14 18 9 0
1532261562130666 7 8 -16 -10 -9 -15 -5 -1
1532261562143631 4 3 -5 -10 -7 -5 -1 -2
1532261562248351 -1 6 -8 -3 1 18 3 -1
1532261562311194 -3 -4 -2 -4 -1 -1 2 0
1532261562369029 3 12 6 2 16 1 -4 -4
1532261562461785 11 19 8 13 40 38 -4 -2
1532261562473748 1 -9 3 6 16 -4 -2 -1
1532261562506660 -11 -3 -10 -10 -16 2 -11 -5
1532261562512645 34 4 -3 -14 -13 -19 -6 6
1532261562563514 16 3 5 9 7 42 8 0
1532261562596421 -9 14 -1 4 10 3 2 -5
1532261562639313 -6 20 3 2 23 18 4 1
1532261562677204 0 -7 0 -6 19 3 -1 1
1532261562708122 -3 -7 -10 -13 14 -12 5 0
1532261562730063 5 -55 -16 -11 -10 -17 -30 -17
1532261562743029 -27 -17 -4 10 -4 17 -18 -8
1532261562789903 4 26 -1 -5 -7 -24 22 5
1532261562812842 15 8 2 -4 4 31 15 6
1532261562865700 -1 5 -2 -1 5 6 -7 -4
1532261562934516 3 9 1 3 7 -14 -1 5
1532261562939503 -7 25 1 -3 24 44 -4 -3
1532261562978399 2 -5 4 -2 0 13 2 10
1532261562984383 -10 -20 -7 -18 -29 -127 -69 -25
1532261563015300 1 1 11 17 -17 12 2 5
1532261563031258 4 10 -1 -11 -9 26 -9 0
1532261563066164 -7 -24 -11 -4 -11 -61 5 -1
1532261563082122 8 9 -3 -5 -24 -59 14 2
1532261563143956 -17 1 0 3 -5 3 1 0
1532261563278596 -7 12 5 15 55 63 26 4
1532261563291562 2 23 10 9 13 2 9 4
1532261563328463 15 4 3 -1 23 54 43 14
1532261563388304 22 6 -10 -10 11 -28 11 24
1532261563473076 2 -9 2 0 -25 5 -4 9
1532261563497012 15 49 4 -1 21 -73 -9 -8
1532261563518954 32 -15 -6 -5 8 24 16 15
1532261563540894 -7 -14 -3 -8 -28 -42 3 -12
1532261563554857 22 5 3 -2 -20 9 -8 0
1532261563568820 21 -4 -11 -10 21 32 38 5
1532261563591759 -16 -22 -12 -15 -1 54 9 -7
1532261563637636 -13 -2 8 -2 -10 -38 -21 -5
1532261563673540 -2 3 -1 -3 16 -2 -6 0
1532261563704457 0 -5 0 7 18 3 -11 -6
1532261563758314 -7 -1 6 -1 -31 -4 1 2
1532261563781252 -14 -12 -5 -9 -18 0 3 -3
1532261563786239 6 -7 -3 -3 5 -8 -3 -1
1532261563817156 5 5 3 8 2 -13 -6 -1
1532261563840095 10 -1 -3 -3 -5 -36 -10 -2
1532261563869017 1 -2 -6 0 2 5 3 -1
1532261563983711 1 5 2 1 -6 3 -3 -1
1532261564050532 0 -3 -4 -6 6 17 1 0
1532261564068483 -6 -3 -2 2 0 -3 -1 -2
1532261564085438 -3 0 -2 0 -8 4 0 -1
1532261564108377 -1 -1 -3 -3 1 -3 -3 -1
1532261564154255 -1 0 -2 -4 0 11 2 -1
1532261564194166 -2 0 -3 -5 11 8 -8 -3
1532261564274932 1 -2 -4 2 16 -10 -2 -1
1532261564325796 -2 -1 0 -2 7 0 -5 -3
1532261564342751 -3 -3 0 -1 22 6 -2 0
1532261564371673 -2 -4 -2 -3 -33 -24 -4 0
1532261564394612 -1 1 1 2 10 10 -2 0
1532261564417551 3 2 0 -4 -11 25 6 0
1532261564455461 -1 -3 2 7 10 -24 -1 -1
1532261564484372 0 0 2 12 66 17 1 -1
1532261564514292 -3 0 -4 -8 -30 -15 3 -1
1532261564537230 -1 -3 -1 -1 7 -1 1 1
1532261564560169 -4 -4 1 -7 -12 -23 0 -2
1532261564605049 -1 -3 -2 -2 3 11 2 -2
1532261564633971 -3 -4 -2 2 6 27 -1 -3
1532261564671870 -1 1 -2 -3 -7 8 -3 -1
1532261564753652 -1 2 1 3 12 10 -2 -1
1532261564777588 0 9 4 4 11 -4 2 1
1532261564829454 -1 -3 -3 -1 4 7 1 -1

1532261564859369 -3 -1 0 -6 6 5 -3 -1
1532261564875326 -3 -1 0 -2 -8 8 1 -2
1532261564904249 -3 -3 -3 -3 3 1 0 -1
1532261564911230 -1 -1 0 -3 4 6 -1 -1
1532261564935166 0 -1 -1 -4 7 6 -3 -4
1532261564957107 -1 -1 -1 0 -3 -3 1 1
1532261565038897 0 -2 -1 -2 1 0 -4 -1
1532261565083769 -1 -1 -1 -2 2 2 0 -2
1532261565122665 -1 1 1 -1 -1 0 0 1
1532261565151588 -1 -3 0 2 0 -2 -3 0
1532261565175524 -3 0 0 -1 -1 -3 -3 -1
1532261565197465 -1 0 -1 -1 -2 0 0 -3
1532261565210430 0 0 -1 1 -3 1 -1 0
1532261565257305 0 -1 -1 -4 -1 -2 2 1
1532261565302185 -2 -1 0 1 0 -2 2 -1
1532261565346068 -2 -1 -2 -3 0 1 1 -2
1532261565421893 1 -2 -4 -2 -3 -1 -1 0
1532261565459792 -2 -2 -3 -1 0 -1 -3 0
1532261565497691 0 -1 1 -2 -1 0 -9 -1
1532261565510655 -2 0 1 0 -1 -4 0 -1
1532261565519632 -3 -2 0 0 0 1 4 0
1532261565624714 -1 -1 -2 -3 -1 1 -5 -1
1532261565699514 -2 1 -1 0 -1 -1 0 -2
1532261565737412 2 -1 -1 -1 0 7 3 0
1532261565774313 -2 0 0 0 0 -4 -3 -3
1532261565797252 -1 -2 -1 -2 -2 -1 -1 0
1532261565819193 0 0 -3 -1 0 -2 2 -2
1532261565834154 -1 2 1 2 -1 -4 -6 -1
1532261565841135 -1 0 0 -1 0 5 -1 -2
1532261565880031 -1 -1 -1 -2 -2 -2 0 0
1532261565900975 -1 0 0 -2 -2 0 1 0
1532261565924911 -2 1 -1 0 -2 -6 -15 -1
1532261565948847 0 -1 0 0 -1 2 -1 -1
1532261565968794 0 -3 -2 -3 -3 1 3 -1
1532261566005703 -1 -1 -2 -4 -3 -34 -6 -3
1532261566020655 -1 -3 -1 12 9 24 3 0
1532261566059551 -1 -2 -3 -2 -1 10 1 1
1532261566073513 -2 1 -1 1 3 4 -3 -1
1532261566082490 1 1 -2 -1 0 9 5 0
1532261566133353 -1 -1 0 -2 -19 -11 -2 0
1532261566157290 -2 -5 -5 -2 1 10 -5 -5
1532261566201172 -2 -5 -1 1 0 11 3 1
1532261566219124 1 -1 1 0 -6 -5 2 2
1532261566223113 -1 -1 -2 -2 3 -2 -5 0
1532261566269988 0 -1 1 0 6 41 2 1
1532261566306889 3 -2 -2 -4 -5 0 2 -1
1532261566329833 0 0 -1 -2 1 32 16 0
1532261566359754 1 -1 -1 1 3 -12 -2 -4
1532261566382687 -6 -2 0 0 -1 -4 -2 -1
1532261566546249 1 -2 -2 -1 0 10 -6 -9
1532261566564201 -3 0 -1 0 -2 -39 -9 0
1532261566607087 -1 -2 -1 -2 -1 6 0 5
1532261566637006 -2 0 -1 0 -2 26 9 1
1532261566689865 -1 -1 -1 -1 -4 4 3 4
1532261566757684 -3 -1 -1 0 -1 -1 -2 -8
1532261566793588 1 -1 -3 1 -1 -5 -1 6
1532261566862404 1 0 -2 -1 0 3 -4 -1
1532261566960142 -3 0 -1 0 -2 -17 -7 -5
1532261566990062 2 0 1 1 -2 -3 5 30
1532261567162601 -5 -1 1 -1 1 -10 -9 5
1532261567184542 6 -1 -1 -2 -2 1 -3 6
1532261567289262 0 -1 -1 -2 -3 2 -2 -3
1532261567358078 8 -1 -1 -1 -2 2 7 15
1532261567402958 -4 1 0 0 1 2 -2 20
1532261567439860 -4 -1 -2 -1 -1 2 6 1
1532261567484739 -5 -1 0 -1 -2 0 -3 -5
1532261567544580 4 -1 1 0 1 6 6 38
1532261567588462 -1 -2 -2 -1 0 -9 -2 -6
1532261567657278 2 -1 -1 -3 -3 -3 0 3
1532261567673236 1 0 1 0 0 -5 -8 -7
1532261567682212 -2 -1 -3 -2 -3 -9 -1 2
1532261567739060 1 0 -1 0 -2 4 3 -2
1532261567844777 0 0 -1 -2 -2 11 0 -3
1532261567903620 2 4 1 -5 -12 -13 0 2
1532261567927556 -2 -8 3 4 -6 -22 -1 5
1532261567949497 -2 -3 -1 27 -6 0 0 0
1532261567994377 -3 -2 -17 -22 -7 -10 -7 -4
1532261568054216 0 -1 -7 -29 55 14 -2 -2
1532261568061198 -2 -5 -8 -5 -43 -5 -1 -2
1532261568106089 -2 -2 -5 -4 7 1 -1 -2
1532261568143977 -2 -1 -7 -30 -25 -20 5 1
1532261568167913 4 2 4 19 32 21 17 7
1532261568211795 7 9 24 75 5 -2 6 5
1532261568234734 -3 -2 -4 -11 -1 8 -3 -2
1532261568258670 -1 0 -2 -9 -7 6 -2 -2
1532261568279614 -4 -27 -7 -17 -4 -6 -3 -3
1532261568309534 -3 -4 -9 -12 -5 -2 -4 -1
1532261568324516 1 4 3 -3 -4 -4 0 8
1532261568377353 -1 -4 -7 -9 -8 -7 -1 -4
1532261568399294 -1 -4 -2 -1 -1 -3 -1 -4
1532261568422233 -1 5 -1 -3 -4 -10 -3 -2
1532261568447167 -2 -3 -9 -19 40 24 -5 -6
1532261568467112 0 -2 -3 7 -11 -20 6 -1
1532261568504014 -1 4 -1 20 -44 17 3 1
1532261568535928 6 11 26 65 16 60 14 4
1532261568540915 0 2 8 -6 27 -53 -4 1
1532261568563859 -4 -7 -21 -34 -35 -25 -9 -4
1532261568616713 1 2 10 11 20 6 -2 -4
1532261568663587 1 2 5 6 -20 -24 2 0
1532261568679545 0 1 -1 -5 -22 -4 5 -2
1532261568699491 -1 -1 -2 -10 -8 -26 -5 -1
1532261568798227 -5 -4 -8 -3 -8 29 3 -2
1532261568843107 -1 -2 3 -35 -21 4 1 2
1532261568893971 -3 -2 -5 -26 1 -8 -7 -4
1532261568941843 1 1 1 15 55 6 2 0
1532261569053544 -1 0 -8 4 10 -7 -6 -2
1532261569068510 -3 -6 -1 -5 1 -4 -5 -1
1532261569097427 8 -26 -5 -1 11 -3 2 -2
1532261569104408 -10 19 4 0 12 3 -3 -44
1532261569127347 14 -13 -4 0 10 2 -1 11
1532261569141310 -3 -11 -7 -4 16 11 2 26
1532261569246030 3 5 -3 1 -4 1 5 50
1532261569300883 -10 2 3 1 -2 -11 1 3
1532261569315846 -2 -4 -2 2 8 -1 -1 25
1532261569336787 11 -6 -3 -2 -8 -63 -13 -16
1532261569380670 0 -2 -2 -3 -4 5 -8 -5
1532261569404606 -2 3 4 2 3 -3 1 -6
1532261569427544 -3 -2 -4 -4 2 -25 -10 -10
1532261569472425 -4 -3 0 5 1 3 3 -3
1532261569578141 -6 21 7 -3 -2 0 -1 -4
1532261569601080 -3 -4 -2 -3 -7 -11 0 3
1532261569615043 0 3 -8 -5 3 -5 -4 -3
1532261569622024 5 -13 0 2 4 4 0 4
1532261569645961 1 -6 -2 0 16 4 1 -1
1532261569675880 -2 -3 1 2 4 2 -3 -3
1532261569698820 1 -3 -5 -2 -6 -4 0 -2
1532261569726744 1 -1 -1 -1 2 1 -1 -3
1532261569748686 1 -2 0 1 -2 3 5 4
1532261569773619 -1 -1 -3 -3 -3 0 0 -6
1532261569863378 -2 -1 0 -3 -2 -3 -2 0
1532261569893298 0 -1 1 -2 -3 3 -5 -1
1532261569915240 -1 -1 -1 -4 -10 -17 -5 -1
1532261569929203 -4 -5 -3 -6 4 22 4 -4
1532261569944163 -2 -4 -3 0 3 -9 -2 0
1532261569990041 -2 -5 -6 -9 23 8 -4 -2
1532261570004002 2 3 8 19 -35 -43 -8 0
1532261570026942 0 -1 -5 4 30 -47 -9 -3
1532261570049880 -2 7 3 3 1 30 0 -1
1532261570062845 0 1 -8 -8 -23 42 2 0
1532261570108723 -1 -5 -5 -7 19 11 5 0
1532261570138642 -7 -4 1 -1 2 6 -6 -4
1532261570147619 0 2 -8 -5 0 -24 -1 -2
1532261570177539 -2 -1 -2 -1 -6 -19 -1 2
1532261570183523 -2 -4 -2 -2 -4 2 -4 -5
1532261570205464 5 4 -5 -6 1 -5 -2 0
1532261570229400 1 -2 1 -2 -3 7 1 -2
1532261570243363 1 1 4 1 -10 -15 -6 0
1532261570266301 -7 -4 2 4 2 -3 3 0
1532261570297219 -1 -2 -1 -1 18 12 -3 -2
1532261570326141 0 -4 -3 -2 2 8 0 -2
1532261570379998 0 -1 -1 4 13 30 5 0
1532261570401939 1 0 1 -1 -8 9 0 0
1532261570431859 7 -2 0 -1 -4 6 4 -2
1532261570447815 -3 -1 1 -1 2 14 4 -1
1532261570469757 -4 -2 -3 1 -5 -2 0 -4
1532261570491699 -2 -1 -2 -2 2 -2 -2 -1
1532261570506659 -1 0 -1 -1 -4 -10 -10 0
1532261570529597 -1 -1 1 0 6 14 6 0
1532261570552536 12 1 -2 -1 2 -5 0 4
1532261570574478 1 0 1 -2 -2 -5 -4 -1
1532261570591432 -1 -3 -2 -4 -7 -2 -2 -4
1532261570613373 2 1 -1 1 -2 1 -2 1
1532261570642296 -1 -2 -1 -3 -3 -4 -1 -2
1532261570666232 -2 0 0 0 1 2 5 -1
1532261570713106 1 -1 0 -1 -5 -11 -1 1
1532261570728067 -2 0 -1 -1 -1 6 -2 -3
1532261570754995 1 2 -2 -2 -1 4 5 1
1532261570769955 1 -2 -2 -3 -5 -4 -1 -1
1532261570791897 3 0 -2 -2 -5 -7 -1 1
1532261570836776 -2 -2 0 -2 0 -2 -1 -3
1532261570934523 -3 -2 -3 0 -1 -5 -4 -1
1532261570957453 5 -2 0 1 -3 -1 -2 -1
1532261571033250 0 0 -1 -1 -2 -7 -2 0
1532261571055194 -1 -1 -1 -2 0 -3 -2 1
1532261571092093 1 -2 -2 0 2 -1 -1 0
1532261571151933 0 -1 1 1 1 2 -3 -1
1532261571235709 -1 -1 -1 -5 -4 -4 -1 -3
1532261571303528 1 -1 -1 -2 -3 -3 -1 -1
1532261571317491 -2 -2 -2 0 0 2 1 -1
1532261571369375 0 0 -1 2 -1 1 -4 -2
1532261571392290 -2 -1 1 1 0 3 7 -1
1532261571429192 -1 -1 0 -1 -3 -4 -5 -4
1532261571475068 -1 -1 -1 -1 0 -3 0 -2
1532261571527933 -1 -2 -3 -2 -2 -2 3 2
1532261571555858 -1 -2 0 -1 -1 -1 -1 -1
1532261571601736 0 1 -2 -7 -7 -11 -1 -1
1532261571632653 2 2 0 16 2 -11 -3 3
1532261571677542 -3 -3 -5 -13 6 4 -6 0
1532261571715432 -1 -1 -2 -8 -12 21 -4 -4
1532261571804195 -6 0 -4 -3 3 10 3 -4
1532261571820152 1 0 -2 0 -8 -14 4 -2
1532261571857055 2 0 2 4 -11 -37 -1 0
1532261571893955 0 0 -4 -6 -6 -28 -4 -2
1532261571907917 -2 -1 -1 -6 -14 3 -1 0
1532261571931853 -1 -2 1 1 -52 21 5 -3
1532261571954792 3 4 4 10 -5 13 2 2
1532261571968755 -2 -2 -1 -2 -1 -17 3 1
1532261572007650 -2 -2 -2 -11 -36 -10 -2 -3
1532261572051533 -1 -1 3 -6 15 -13 5 1
1532261572067491 0 -3 0 -11 -22 -14 -1 -2
1532261572088434 -2 -1 0 -5 -1 4 -1 -3
1532261572111373 -1 -4 -6 -3 2 14 0 1
1532261572148285 1 1 -3 -2 1 8 -4 -2
1532261572171214 2 5 -1 0 0 11 3 0
1532261572195149 -3 -5 -1 -1 2 9 2 0
1532261572231053 -1 -3 1 0 -1 10 7 0
1532261572267954 -1 -1 -1 1 2 -9 -2 -3
1532261572321811 -1 -2 -1 0 1 3 0 1
1532261572344749 -4 -4 -3 -1 -9 -5 -2 -2
1532261572389629 -3 1 -1 0 0 3 -2 -2
1532261572397608 1 -2 -2 -1 -1 3 -1 -1
1532261572411571 0 -3 0 -1 3 -3 -7 -3
1532261572434509 0 0 0 -2 -1 4 0 1
1532261572464429 -1 -3 -1 -1 -2 -4 -1 -2
1532261572478407 -3 -2 -2 0 -2 6 7 -3
1532261572585106 -1 -1 -1 -1 1 2 -1 0
1532261572629986 -2 -2 -2 -3 -3 1 -2 -1
1532261572665891 0 -6 -3 -2 1 0 -2 -2
1532261572696808 0 -1 -2 -1 -1 2 1 2
1532261572710770 -1 -4 3 0 -3 -2 -1 0
1532261572719747 -2 0 -2 -1 4 3 0 -1
1532261572764627 0 -2 -1 -2 1 4 8 1
1532261572795544 1 0 -1 0 -1 -5 -6 -3
1532261572802525 2 -1 -2 -2 -3 -1 -8 -1
1532261572868349 1 0 -3 0 -2 -6 -3 0
1532261572936167 -2 -1 0 -2 0 0 -2 -1
1532261572961101 -1 0 -1 0 -1 -2 2 -1
1532261573010968 1 -1 -2 -4 -4 -1 -1 0
1532261573094744 -1 2 5 4 16 5 1 0
1532261573176525 0 -1 0 -9 -11 -5 -3 -1
1532261573207442 -1 1 -7 -28 -13 -1 -2 -1
1532261573239374 -1 7 31 -1 -16 5 1 -1
1532261573282252 -2 -4 -10 -1 4 22 -5 -3
1532261573327122 -4 -5 -1 -5 1 8 -1 -3
1532261573545538 -3 -2 -17 -15 3 4 -11 -1
1532261573568477 -4 -7 6 -4 -11 -9 -1 -3
1532261573592413 -2 6 5 17 -15 -60 9 -7
1532261573613356 -12 10 9 -2 -5 -34 10 2
1532261573672199 -19 -6 -2 1 20 37 -1 -7
1532261573688156 14 -1 -1 1 -5 13 -2 -3
1532261573740018 -6 0 -6 -17 28 4 -3 1
1532261573761960 -5 -5 -8 -12 -24 6 1 -4
1532261573814818 -8 5 1 5 -4 -5 23 7
1532261573845736 -25 -5 3 11 3 2 19 1
1532261573873661 11 -4 -6 -1 -2 -71 -18 -7
1532261573963421 -2 1 -5 -2 -9 -36 21 4
1532261574041212 -99 -3 -3 -4 -2 14 0 -12
1532261574076119 10 6 6 4 -42 3 -1 -13
1532261574083101 32 6 -1 3 6 72 5 21
1532261574136957 7 12 3 1 16 32 7 14
1532261574159896 -2 1 -7 2 22 35 13 4
1532261574225719 75 0 -4 -10 -33 7 -51 -2
1532261574286557 -9 -12 0 5 7 -41 -15 -8
1532261574376317 11 11 0 10 42 -3 7 7
1532261574504972 -8 -18 -3 0 -29 -58 -24 -14
1532261574570796 -9 -6 -6 1 8 29 12 3
1532261574610690 -22 -5 -14 -24 -47 29 -10 -11
1532261574616674 18 5 -5 -2 103 22 -14 -1
1532261574654574 -79 -17 2 13 -31 -10 -2 -27
1532261574675516 79 23 -2 -7 12 -45 27 34
1532261574730370 -31 -13 2 -8 28 -2 7 -7
1532261574834092 5 -4 2 8 -1 -11 -2 3
1532261574848056 -3 6 -1 14 10 -3 4 -1
1532261574919407 -2 3 3 -4 1 7 -1 0
1532261574933370 -3 -4 -1 -3 -8 -3 -1 -3
1532261574962293 -1 0 -1 -2 -2 4 -2 -1
1532261574998727 -3 -7 3 5 7 -1 0 0
1532261575053580 0 4 1 -1 2 10 0 -2
1532261575141346 0 -1 -3 1 2 -4 -1 1
1532261575164284 -2 0 -2 -11 -3 -4 -1 -2
1532261575180242 -2 -3 -1 2 8 -15 6 -1
1532261575201185 0 -1 -2 -5 1 10 1 -1
1532261575283964 -1 0 2 0 2 4 -3 -2
1532261575336823 4 -1 -1 0 0 37 3 -1
1532261575442541 -3 -2 -4 1 4 24 -1 -4
1532261575459495 2 0 -1 4 -11 10 -2 0
1532261575486423 -3 -6 -3 -1 -9 -14 -1 -3
1532261575501382 3 1 0 11 -3 -13 1 0
1532261575584161 -1 0 0 1 13 7 1 -1
1532261575763681 0 2 1 1 -9 -22 3 -2

1532261575801580 0 2 -1 -2 -2 10 -2 -1
1532261575846460 0 0 -3 -2 7 -1 -1 -2
1532261575944199 0 1 4 7 -11 -22 -2 -3
1532261575975197 -1 -1 -2 -6 2 3 -2 -2
1532261575981183 -3 -2 -2 -1 -2 7 -1 0
1532261576004121 -1 6 4 1 -1 -8 -4 0
1532261576063787 2 0 0 0 3 1 0 -1
1532261576078748 -1 -1 -2 -1 -1 -3 -2 0
1532261576123628 -1 -5 -4 -2 -2 -3 4 0
1532261576184482 -1 -2 0 -1 -3 -2 -2 0
1532261576207258 1 -2 -2 -1 -2 1 1 1
1532261576221220 -2 -2 -2 -4 -3 -1 2 -2
1532261576266100 1 -2 -1 0 3 -6 0 0
1532261576284053 -2 -1 -3 -2 -1 3 -1 -2
1532261576326948 0 0 1 1 -4 1 2 -1
1532261576341898 -2 -6 0 -2 1 -6 -4 -3
1532261576403732 1 0 -2 -3 3 11 -2 2
1532261576493492 -1 -2 -1 0 3 2 -3 0
1532261576591231 -1 -2 1 0 -1 0 -1 -3
1532261576598213 -1 -2 -1 -2 0 -3 0 -2
1532261576627135 -2 -2 -3 0 -3 -3 0 0
1532261576672015 0 -2 -2 -2 0 -3 -1 0
1532261576686975 -1 0 -2 -1 -2 -1 -2 -2
1532261576701935 -2 0 -2 0 -1 0 -3 -1
1532261576723876 -1 -7 -1 -1 0 -1 -1 0
1532261576762772 -3 -1 0 0 -1 0 -3 -1
1532261576799674 -1 2 -1 0 2 1 -1 0
1532261576830590 -3 1 -1 -1 0 -1 -1 -2
1532261576867493 0 -1 0 -2 3 0 0 2
1532261576889433 -3 -2 1 -11 -5 11 -4 2
1532261576927332 -3 -9 0 -1 5 19 -4 0
1532261576972223 -6 -15 -53 -22 -12 5 -2 -4
1532261577017092 4 6 4 24 29 -24 -1 3
1532261577070948 -4 5 22 -40 -18 -12 -10 -8
1532261577093887 1 2 3 9 -23 -8 -1 -2
1532261577106868 -1 3 1 12 -2 20 -12 -10
1532261577129791 0 2 1 10 14 9 -4 -2
1532261577167689 0 -15 1 6 10 8 3 2
1532261577189633 -1 -2 -1 2 -5 0 -2 1
1532261577203593 -1 -1 0 0 -7 -11 -8 -2
1532261577250468 -3 -7 -1 -7 -5 1 -2 -4
1532261577255471 1 -3 0 1 6 19 8 -1
1532261577317306 0 1 1 1 -38 -2 -2 0
1532261577348223 -3 -3 -7 -9 -13 7 4 -2
1532261577384127 -1 -4 -1 1 3 -20 -5 -3
1532261577415044 1 -1 2 -7 0 -57 0 2
1532261577429006 2 -3 -5 -2 40 -1 2 1
1532261577451946 2 11 3 20 -20 -9 -7 -1
1532261577489486 0 -2 -3 -7 -5 -23 1 3
1532261577512439 0 2 -1 7 9 9 0 2
1532261577549326 -4 -5 -4 3 -8 -4 -5 -1
1532261577594206 0 -8 6 1 6 -3 -1 0
1532261577640088 -2 14 12 11 41 28 -2 3
1532261577655043 1 0 4 5 3 0 0 -3
1532261577682969 -5 5 -10 -11 14 -35 -21 -7
1532261577706904 8 5 3 7 22 -2 20 7
1532261577729843 -7 -5 4 28 55 58 4 -2
1532261577743806 -4 -2 -6 -16 -8 -7 -1 -2
1532261577752781 -4 -3 -4 -7 18 17 -9 -5
1532261577789684 -1 1 -3 -5 2 -22 21 9
1532261577803646 2 9 0 1 -19 9 -2 5
1532261577834562 3 -2 -1 -3 11 -3 -10 -2
1532261577886424 -5 -1 -3 -11 -33 -28 -11 -3
1532261577915348 -2 -1 -4 -8 -31 47 4 1
1532261577953246 -1 -23 0 -3 8 -5 5 2
1532261577971198 -1 4 2 -2 -20 -15 -1 -5
1532261577992141 2 9 2 3 0 -19 -4 2
1532261578013085 -2 1 0 6 6 1 3 -1
1532261578031038 -1 -13 -2 0 0 -1 -1 -2
1532261578066942 2 9 4 -1 -5 -9 4 3
1532261578111822 -2 0 -2 4 21 17 7 -4
1532261578126781 1 1 5 1 -5 24 7 -4
1532261578149720 -1 -38 0 -1 3 -17 -3 3
1532261578179640 2 6 1 0 -22 -9 -7 0
1532261578194600 -5 1 1 1 -1 -4 -3 -2
1532261578218536 2 -6 1 -1 0 0 -3 1
1532261578253443 5 12 3 -4 12 11 7 6
1532261578271395 -13 2 -4 -3 -3 -1 -4 0
1532261578330237 0 -2 -2 -2 -3 -5 -5 1
1532261578352179 -3 10 2 -1 -2 2 -1 -1
1532261578374119 2 0 1 1 -13 -9 2 0
1532261578412630 -4 -2 -2 1 2 -3 1 -2
1532261578448534 2 -3 -1 -2 -8 -6 -4 0
1532261578480448 -8 -1 2 1 -4 -2 0 -6
1532261578486432 -5 6 2 -3 -5 -4 -3 -3
1532261578509371 -13 -22 -10 -5 5 7 3 -3
1532261578532310 -1 -2 -4 -1 5 -2 -3 -4
1532261578546272 -7 2 0 3 23 5 2 1
1532261578555249 -1 -9 -1 2 1 1 2 -1
1532261578592150 13 6 -5 -3 -8 0 1 3
1532261578615088 -6 -2 3 -3 1 -2 -1 1
1532261578651990 -6 10 5 -1 -4 0 1 -5
1532261578689912 -2 6 1 0 -12 1 -1 1
1532261578751724 -7 -26 -9 -4 -9 -9 0 -2
1532261578832507 1 -8 7 -3 3 0 2 1
1532261578845488 -1 4 0 -3 -3 2 2 -3
1532261578892347 1 9 1 -1 -5 -6 -2 2
1532261578906311 -7 -26 2 0 -2 -1 0 -4
1532261578929249 -2 4 -3 -1 -2 1 -2 -2
1532261578958512 4 -13 -1 -2 -3 0 -3 -4
1532261579027328 1 12 -5 -3 -3 -4 3 2
1532261579049270 -10 -6 -4 -1 11 4 -2 -1
1532261579072208 1 2 -1 1 4 4 -4 -6
1532261579095147 1 -16 -4 -2 -2 1 -2 1
1532261579110107 -1 4 3 -1 -4 -4 -1 -1
1532261579132049 -3 8 -7 -3 -6 -1 2 -2
1532261579154987 12 -3 0 -1 -3 -6 -2 1
1532261579168950 -4 -3 -4 -2 -5 -4 -1 -1
1532261579214840 -4 3 3 0 0 -1 4 -2
1532261579244761 -13 6 0 -2 -15 0 1 -3
1532261579268696 -1 -11 -5 -1 2 -4 -2 -3
1532261579289640 12 13 0 3 13 12 -1 1
1532261579335518 4 13 -1 -1 -28 -25 -4 -1
1532261579372426 1 -10 -2 -2 -8 3 -6 0
1532261579394361 -5 -14 -6 -1 5 2 1 -3
1532261579468163 1 -17 0 4 55 36 3 4
1532261579529000 2 3 0 0 -9 -6 -4 -2
1532261579590836 -2 3 1 -1 -10 -4 -3 -1
1532261579707863 -11 7 0 2 -6 -4 -2 -3
1532261579754486 1 4 -3 -3 -11 -3 -4 -3
1532261579817318 -10 -7 -3 -1 -2 10 1 -4
1532261579882145 1 4 -1 -2 5 -1 2 2
1532261579935004 0 4 -3 -2 -2 -3 -2 -2
1532261579994844 -8 -1 0 -1 9 1 3 -2
1532261580054694 -11 -7 -4 -2 -6 0 0 -7
1532261580077634 0 -6 -3 -4 4 -3 -3 3
1532261580122514 -4 -21 -10 -3 -2 -1 -1 0
1532261580137474 0 12 -2 2 12 0 -4 -4
1532261580167393 -1 3 3 -1 -1 1 -2 -2
1532261580204295 -5 2 -1 -2 -5 -8 -1 0
1532261580218258 23 0 -3 0 3 -2 2 0
1532261580271116 -5 -6 2 -4 -7 -5 0 0
1532261580295052 1 -7 3 5 37 11 5 2
1532261580354892 -4 23 4 -2 -20 -12 -5 -3
1532261580376833 -5 1 -2 -1 7 6 0 -5
1532261580450636 -4 -9 0 1 -7 -6 -1 3
1532261580459611 10 26 2 -1 5 8 2 2
1532261580496514 8 14 5 0 -6 -7 5 0
1532261580534412 -4 5 -1 -4 -27 -27 -1 -1
1532261580633118 10 -10 5 1 -13 -16 5 13
1532261580714900 -8 -16 -4 -1 -19 -13 2 -1
1532261580736840 0 10 4 0 50 -12 -3 -3
1532261580759779 4 31 -2 -3 -6 3 -1 -1
1532261580797691 4 -16 -1 -1 -13 12 0 -3
1532261580819620 2 -6 -1 2 15 -12 -1 -3
1532261580857116 -8 -13 -3 3 3 27 -2 -5
1532261580879056 -4 -8 -2 -3 -16 -13 -8 -4
1532261580954863 -3 0 -5 -6 -52 -17 -2 -3
1532261581060114 7 -10 -1 -1 5 3 -3 0
1532261581097015 -1 1 2 -3 -9 -2 -2 -4
1532261581140898 4 6 3 -2 -9 -8 -2 1
1532261581277533 -4 -5 -1 -3 -12 -11 1 1
1532261581299474 2 -22 3 -2 -3 -1 -1 2
1532261581314435 9 3 -2 0 8 8 0 5
1532261581337372 -3 -4 -2 -3 -20 -2 0 -4
1532261581373276 -9 0 -4 0 -12 -1 -2 -4
1532261581399208 0 -16 -7 -2 -11 -17 5 2
1532261581420152 3 10 0 0 -2 -12 0 2
1532261581433127 -4 3 -2 -1 -2 0 -1 2
1532261581457052 2 -1 -2 -1 8 5 0 -2
1532261581479991 2 -3 0 -1 2 3 0 1
1532261581509911 0 25 -2 -4 4 10 0 -9
1532261581540829 1 -2 -5 0 -9 -5 -9 6
1532261581577730 -9 12 0 -2 -6 -5 -4 -5
1532261581599671 0 2 -4 -1 -4 -9 1 1
1532261581613634 -1 -11 -3 -2 -3 0 -2 -2
1532261581659512 -9 3 -5 -3 -12 -5 4 -4
1532261581673474 1 -1 -3 0 -3 -12 -1 -4
1532261581682450 -3 -1 -2 -1 4 3 -6 -2
1532261581719352 3 10 3 1 -8 -1 2 0
1532261581742300 -1 -6 1 0 -6 2 3 -3
1532261581779192 -1 20 1 4 24 -2 -8 -1
1532261581786173 -3 -16 -10 0 6 3 -1 5
1532261581817090 -2 -7 0 -1 -13 -9 1 0
1532261581840029 -4 -7 2 -1 -9 -7 -1 0
1532261581861971 -1 -19 -4 -4 3 8 -7 0
1532261581876930 2 8 -1 0 34 24 0 -2
1532261581899869 -11 2 2 0 -16 -12 2 2
1532261581921818 0 13 3 -1 -2 5 3 -3
1532261581959716 3 -10 -5 -2 -4 -1 3 -3
1532261581965693 -7 -6 -3 1 28 10 -2 -5
1532261581996610 0 -5 -6 -3 -3 10 -4 -3
1532261582042488 -1 10 4 -2 -8 -11 -1 -1
1532261582079389 -4 -11 -5 -3 -8 -1 -2 -6
1532261582102884 1 -1 0 -3 -7 -3 -2 -2
1532261582131806 -1 -14 -5 -2 -6 -4 -1 0
1532261582138800 -14 -19 7 2 -9 -7 -4 -7
1532261582161727 6 4 -1 -2 -2 -6 -4 -1
1532261582176701 4 15 1 -2 -4 3 0 2
1532261582199625 -3 -40 -3 -1 6 1 3 0
1532261582222564 -9 -3 -3 -1 -3 -2 -1 -5
1532261582243508 -18 2 -3 0 0 -3 -3 -4
1532261582268441 3 8 0 -1 6 4 2 2
1532261582296367 -1 -4 -2 1 1 -1 3 -1
1532261582319305 -4 -3 1 1 2 7 -7 1
1532261582364185 6 1 6 -1 -8 -10 2 3
1532261582379145 -4 -9 -5 -2 -2 -3 1 1
1532261582425022 -5 -10 0 -2 -5 -8 -3 -4
1532261582438990 12 0 -5 -1 1 0 1 2
1532261582469903 2 -7 -2 1 -1 -1 -2 0
1532261582521763 -3 3 -1 0 3 2 1 0
1532261582558675 0 -10 -2 -1 2 -1 -1 1
1532261582581604 4 8 2 0 -2 -4 -2 -1
1532261582611524 -1 -2 1 0 -2 -1 -2 -4
1532261582621498 -3 4 -5 -3 1 -3 -2 2
1532261582641444 -2 5 -3 -2 0 -4 1 0
1532261582664383 -5 -1 -1 -2 -1 1 1 -4
1532261582679349 0 -13 -4 1 -3 -1 2 8
1532261582701284 -1 -1 -1 -2 -3 -1 0 0
1532261582724222 -4 -36 -2 -1 7 0 -4 -8
1532261582739183 -7 17 -2 0 -4 -4 -3 -5
1532261582761139 -8 3 -3 0 5 2 -2 -9
1532261582799022 0 2 4 -1 -1 -3 -4 -1
1532261582844900 1 -11 0 0 -1 -6 -7 0
1532261582858863 -7 -16 -1 -1 4 1 -2 0
1532261582881801 -7 -7 -2 0 -18 -12 -1 -7
1532261582904740 -7 -14 -2 1 -3 -8 2 -2
1532261582918702 13 9 -6 -1 3 2 0 0
1532261582941641 0 28 -6 -2 1 4 2 -1
1532261582964580 -1 10 -1 -2 5 7 3 3
1532261582978551 2 0 -1 -3 4 3 0 1
1532261583001481 -5 -6 -3 -2 -5 -1 -4 -3
1532261583024420 5 1 1 0 2 0 -1 1
1532261583039385 8 -4 0 0 0 -5 0 1
1532261583061321 -4 -4 0 -4 -10 -3 0 0
1532261583084260 -5 15 5 2 5 2 -4 -5
1532261583107199 -3 9 -5 0 -10 -7 -1 2
1532261583145097 0 -12 -5 -3 -8 -6 1 4
1532261583159060 -7 -4 -20 -3 -3 3 -7 -2
1532261583204937 -10 -5 5 0 2 -1 -1 -2
1532261583218900 -3 -1 2 -2 -6 -4 1 -5
1532261583241839 1 -3 -1 0 -10 -8 5 2
1532261583264777 6 -16 1 0 1 4 2 -1
1532261583278740 4 -7 2 0 -1 0 -2 -10
1532261583301678 0 -1 -4 -3 1 -4 -1 3
1532261583324617 -4 8 2 -2 -6 -1 2 -4
1532261583361518 -6 -2 1 1 2 -4 -3 -3
1532261583384456 -2 -1 -3 1 3 3 -4 3
1532261583398420 -1 -5 0 -3 0 -1 1 -3
1532261583421358 -2 10 0 0 -12 -4 1 -2
1532261583467236 -3 0 -7 -4 -4 -4 0 0
1532261583504174 5 -26 -2 2 1 -5 -2 1
1532261583565011 -12 22 2 0 0 4 0 -2
1532261583577976 2 0 -3 -1 0 -4 -1 0
1532261583631853 8 -7 -2 2 0 -2 -1 0
1532261583638846 -2 4 5 -1 -1 -3 -4 -3
1532261583661781 -9 6 -3 0 0 -8 -7 -3
1532261583721613 -2 16 3 1 2 -11 -2 2
1532261583744552 10 -22 -6 -2 0 2 5 12
1532261583781453 -5 -5 -7 -2 -4 2 -3 -6
1532261583804392 -20 -18 2 0 -6 -3 -1 -9
1532261583827331 4 10 2 0 -2 -1 1 -1
1532261583864232 13 12 0 -2 -12 0 -4 6
1532261583894152 -2 -4 -3 -4 -5 -5 3 0
1532261583939853 12 -15 5 1 7 -1 -6 -4
1532261583984732 -15 -11 1 0 2 1 -1 -7
1532261584007671 -2 7 -10 -4 4 0 0 -1
1532261584021634 5 4 2 -1 -3 -3 0 4
1532261584045817 -15 2 0 0 5 2 -3 3
1532261584074739 1 7 2 -2 -3 -1 -1 -6
1532261584081722 2 -6 -6 -1 -1 -1 -2 0
1532261584103662 7 -3 -10 -2 -7 -2 -2 3
1532261584127598 -7 -1 2 -3 1 2 3 -4
1532261584141562 -2 12 1 -1 -2 -10 0 -4
1532261584163502 6 -7 -1 -1 -3 -3 0 2
1532261584187454 0 -7 -6 -2 -6 -3 -1 0
1532261584246282 4 -4 3 1 -3 -3 -6 -2
1532261584269220 19 -13 -2 -1 -4 -5 -2 4
1532261584307120 0 -14 -3 -1 10 0 3 -1
1532261584388899 1 -1 4 0 0 -2 -3 1
1532261584440761 1 11 3 3 -1 1 -5 -5
1532261584464697 -2 0 2 -1 26 11 -1 -2
1532261584500601 -6 -7 -9 -2 -4 0 -3 -6
1532261584547476 15 -12 -7 -3 -16 -12 -3 7
1532261584560441 -11 -7 1 0 -2 5 -2 -10
1532261584584376 -2 -3 0 -3 -10 -11 5 1
1532261584629884 10 4 -1 -3 6 3 -4 1
1532261584644844 -10 -12 0 1 -1 -2 -2 -5
1532261584666786 -5 10 4 2 6 3 -1 -1
1532261584689735 15 -4 -2 -4 -1 9 -5 2
1532261584719645 -1 -14 1 -1 4 6 1 -2
1532261584749564 0 0 -3 -1 0 -4 -3 3
1532261584763560 -6 -16 -1 -2 -21 -19 -2 -4
1532261584809405 9 -5 1 1 9 5 -2 -5
1532261584832344 -2 -12 0 0 0 -4 1 3
1532261584847304 -3 1 0 0 0 1 -2 -3
1532261584869245 -10 9 -3 -1 2 8 2 2
1532261584891188 -2 -15 -4 -2 2 6 2 -2
1532261584909138 -3 1 -1 0 4 4 -3 -5
1532261584931082 10 19 0 -2 6 12 -3 -2
1532261584966984 0 -3 5 -1 4 3 1 -5
1532261584989922 -5 -18 -4 -2 7 4 4 -1
1532261585003885 8 -6 -1 1 34 25 1 0
1532261585026827 -5 -8 -13 -3 -18 -11 -2 -4
1532261585049762 4 8 2 -1 0 -1 -2 0
1532261585070713 8 -9 0 -1 0 2 0 2
1532261585096649 -6 -11 -7 -2 -7 -2 -5 -1
1532261585132543 -2 -10 -5 1 33 13 0 0
1532261585177421 0 -8 -1 -3 -5 0 1 -5
1532261585193378 -4 -6 2 0 -2 -6 0 -1
1532261585207340 -5 6 1 -1 -2 -1 1 -2
1532261585229282 -4 4 1 -1 -6 1 -6 1
1532261585243245 8 -16 0 -1 -1 -3 0 0
1532261585290119 -2 -3 -2 -1 -9 -7 -1 2
1532261585303085 -18 17 7 0 0 1 5 -7
1532261585349961 1 29 -3 -4 -11 -6 -2 0
1532261585362925 -5 -7 -1 -4 -2 -6 0 -3
1532261585386861 6 1 -1 -2 5 9 -2 0
1532261585409800 0 -8 -9 0 4 -3 -6 0
1532261585423765 -7 -8 -8 0 -6 -8 -2 -3
1532261585447707 5 -2 3 -1 -10 -4 1 6
1532261585469640 -7 11 3 -1 1 1 2 -8
1532261585483602 -3 5 -1 -1 3 3 5 -4
1532261585507542 5 2 0 -2 -10 -14 -2 1
1532261585529479 10 -2 4 3 9 10 -1 2
1532261585552418 7 -4 -1 0 0 2 -1 0
1532261585589319 -4 -7 -6 -3 6 -2 2 -5
1532261585650157 -3 0 -2 -2 5 7 -4 -4
1532261585687058 -13 6 6 0 0 -2 -1 -3
1532261585731938 17 -5 -1 -1 -6 -4 -3 2
1532261585769837 -2 -19 -19 -4 -11 -4 0 0
1532261585791780 -5 7 3 -1 4 0 2 -2
1532261585806738 -6 -3 0 0 -5 1 -1 -1
1532261585830677 0 7 5 -1 -5 -6 1 7
1532261585835669 -4 -4 1 -2 10 -1 1 -3
1532261585941378 7 -9 -3 0 5 -2 0 2
1532261585950368 3 8 -2 -2 1 6 1 1
1532261586010197 -4 5 -2 -1 -7 7 0 0
1532261586032134 -8 -12 -9 -3 10 21 -1 -4
1532261586070034 -10 10 -1 -3 -20 -8 -2 -2
1532261586114914 -3 -4 0 3 4 28 1 -5
1532261586129874 0 10 1 0 15 11 -3 -1
1532261586174754 -6 -10 -4 0 36 17 -4 -7
1532261586251548 -9 -5 -4 0 8 -1 1 2
1532261586271495 -9 0 -1 -2 -9 -14 -1 0
1532261586346295 0 16 -3 -1 -4 0 -1 -2
1532261586369234 0 -10 -1 2 8 5 0 -2
1532261586392172 0 -8 -4 -3 -7 -3 0 1
1532261586406144 2 -3 0 -3 -18 -9 -2 4
1532261586453010 6 -5 -1 -2 4 3 -1 3
1532261586512850 5 5 -4 -1 2 4 -2 1
1532261586571692 3 2 -1 -2 -2 0 -6 -55
1532261586594631 -3 8 3 1 -5 -1 0 9
1532261586609591 5 1 0 0 1 -1 0 9
1532261586654471 -5 -5 -2 4 41 18 1 -1
1532261586692372 -4 -3 -2 -3 -9 -7 -3 7
1532261586714311 -3 -11 -4 -2 16 5 2 -3
1532261586729271 5 -5 2 1 -3 4 -1 4
1532261586813048 -17 -17 -2 -1 -20 -12 2 3
1532261586833991 9 11 2 -1 -3 -1 -3 -4
1532261586871893 3 9 -3 -1 -5 -2 -2 3
1532261586894828 -11 3 -2 -2 0 3 0 0
1532261586992567 5 -7 -4 -4 -7 -2 0 -2
1532261587035452 18 9 5 -1 -3 5 -5 4
1532261587195026 5 -8 -6 -5 -1 2 -2 0
1532261587336647 -2 3 -4 -4 -12 -5 0 -4
1532261587414438 5 4 2 -1 -16 9 -1 -3
1532261587434385 0 -3 3 0 -2 -1 -2 0
1532261587524683 2 8 -4 -1 -3 -2 2 3
1532261587562271 -3 10 5 2 26 2 -1 4
1532261587756861 4 8 0 -3 -9 -1 -4 -2
1532261587816701 -2 -19 -5 -2 -3 -2 -3 -5
1532261587997218 0 -1 0 -2 -10 -3 1 0
1532261588057058 2 -6 0 1 7 1 -3 0
1532261588094956 1 18 5 1 13 16 -2 -1
1532261588155795 0 -11 -12 -2 -8 -9 1 2
1532261588177736 -7 -3 6 -2 -7 -5 2 1
1532261588207656 29 4 4 -5 -3 4 2 7
1532261588229597 -13 6 -2 2 21 3 -1 -8
1532261588250540 -1 -13 -6 -1 -6 -12 3 1
1532261588304397 1 3 1 3 0 -2 -3 -4
1532261588334316 2 5 -2 -4 -21 -8 -5 -6
1532261588418106 4 -11 -6 -1 11 7 2 4
1532261588514848 -3 -12 -2 -3 -1 3 0 -2
1532261588536789 2 11 -1 -1 2 10 0 3
1532261588559727 -4 -6 -3 -3 -10 -11 3 4
1532261588574687 -1 -1 -3 0 -8 -7 -4 -1
1532261588612586 -10 -6 -4 3 0 -5 -1 -6
1532261588634325 11 7 -1 1 33 7 0 1
1532261588687190 -7 -2 2 0 -2 -2 2 1
1532261588732066 8 9 -4 -5 -21 -16 -6 -2
1532261588754008 -2 3 -4 -3 4 1 -1 -5
1532261588776945 -8 8 3 0 -10 -11 0 -1
1532261588798887 0 -4 -4 0 -11 -9 3 1
1532261588813856 21 8 3 0 -2 2 -3 5
1532261588836786 -15 -7 4 2 4 0 1 -1
1532261588897524 -8 -10 -7 -4 -14 -7 3 -2
1532261588966340 6 -4 -4 -3 -17 -15 2 1
1532261588982297 -4 6 1 -1 -7 -11 -1 0
1532261589009225 -5 31 6 0 -8 10 3 0
1532261589053108 1 -4 3 2 18 -7 -1 -3
1532261589077044 -1 -12 -2 0 -9 -14 -1 0
1532261589099983 -5 -18 -4 0 -4 -1 1 -3
1532261589136884 -3 0 4 2 1 -9 1 -1
1532261589264542 3 -8 0 0 -6 -7 -5 0
1532261589279503 -1 9 2 -3 -3 5 1 -1
1532261589339461 -4 -11 -1 1 24 6 0 -3
1532261589362392 2 0 1 -1 -1 -11 -2 -1
1532261589407739 -7 3 0 -3 -26 -14 2 2
1532261589459600 -9 -2 4 -1 -2 1 -2 -7
1532261589489520 -2 -4 -2 -2 -8 0 0 -1
1532261589519440 -1 4 0 -1 -2 3 -1 -1
1532261589542379 -6 -6 -2 -2 -14 -8 -2 -3
1532261589557339 -1 -7 1 -1 -2 3 1 -1
1532261589580287 -2 10 0 0 3 0 -2 -1
1532261589602223 3 3 -2 -1 11 9 -2 0
1532261589624160 15 -10 1 2 15 7 4 4
1532261589639120 -1 1 3 3 5 1 -1 -2
1532261589676022 -7 -11 -4 -2 2 0 -1 3
1532261589698960 1 -1 1 1 7 3 -1 -4
1532261589721899 2 7 2 0 -12 -5 -9 -1
1532261589744837 14 21 -1 -3 -2 -6 -1 -1
1532261589781739 -4 -7 -4 -1 21 27 -4 -6
1532261589819637 -6 -4 2 2 -12 -17 0 -3
1532261589836592 12 -2 -3 -2 0 3 2 7
1532261589841579 -2 -20 -4 1 1 -3 0 -1
1532261589855564 -5 4 2 -2 -5 -2 -2 -3
1532261589901419 -4 -4 -2 -2 -13 -6 2 1
1532261589916379 -1 6 1 -2 -28 -35 -1 0
1532261589939325 -1 6 2 -1 12 0 -5 -2
1532261589961266 -2 0 2 2 3 6 0 0
1532261590023101 -1 -6 -2 -3 6 7 0 0
1532261590037063 -8 -4 -2 2 29 17 -1 -3
1532261590059005 10 -18 -4 -2 -8 -1 3 7
1532261590126823 -21 -6 -1 -2 -3 -5 -1 -5
1532261590155748 2 11 -1 -1 -5 -8 -6 -5
1532261590201623 -2 1 -2 0 2 8 -1 -5
1532261590217581 5 1 1 -1 2 -2 2 -3
1532261590239522 1 4 4 -1 1 -2 0 2
1532261590261847 1 11 1 1 26 9 -4 -2
1532261590275798 -11 -4 -1 -1 -13 -9 -2 -6
1532261590298768 -5 -23 -3 2 9 5 -3 0
1532261590358607 -7 -6 -1 0 -7 -1 -3 -2
1532261590381546 12 9 -7 -4 4 -1 -3 -1
1532261590427422 -2 4 2 -2 -9 -3 -2 1
1532261590441386 -1 0 -3 1 -4 -10 -2 -2
1532261590472304 -1 -1 -1 -2 -13 3 2 -2
1532261590501226 -3 3 2 1 -2 -2 0 -4
1532261590525162 -5 13 -3 -2 -4 -11 3 1
1532261590539126 -4 -9 -1 0 9 4 2 -2
1532261590561066 -1 -6 -1 0 0 -7 0 2
1532261590598965 -2 -10 -10 -3 -4 13 -2 -5
1532261590651823 2 -5 0 0 13 3 -2 -1
1532261590689722 -2 1 -6 -1 -7 -11 1 5
1532261590704681 -2 -6 0 -1 -13 -7 3 -1
1532261590718645 -9 0 -1 0 -1 -1 -1 -2
1532261590741583 1 2 0 0 3 6 -5 -3
1532261590764521 -14 10 3 -3 1 0 1 -6
1532261590801423 3 -4 3 -1 -7 -10 0 -1
1532261590824362 10 -16 -3 1 -2 -1 -10 1
1532261590838325 -5 -1 1 -1 6 11 3 -1
1532261590884202 2 -2 -3 0 -4 5 3 4
1532261590899164 -4 2 3 -1 -4 1 -2 -5
1532261590945038 -3 -2 -2 -5 -11 -9 1 1
1532261590958004 1 -6 -1 1 -3 -4 0 2
1532261590981940 -1 13 0 -1 2 -2 -4 -1
1532261591004879 -3 2 -1 -3 3 0 -1 2
1532261591026820 0 -11 -1 -2 0 5 -2 -2
1532261591064941 -9 -6 0 0 0 -3 0 -4
1532261591078910 -3 18 -2 -1 2 -1 1 -1
1532261591124781 1 -14 -3 0 -3 3 -1 1
1532261591177655 -1 15 -4 -1 10 14 -2 -5
1532261591184621 -1 -1 3 1 9 -6 1 -2
1532261591244461 -6 9 -1 1 0 -1 1 -3
1532261591304825 -3 7 1 -3 -3 -3 0 -1
1532261591326767 -7 -4 -3 -3 -17 -5 -1 1
1532261591341727 2 4 1 -1 -5 1 -4 0
1532261591364665 7 -2 -7 0 7 3 1 3
1532261591387604 15 -3 -1 1 -2 -1 -4 0
1532261591401567 -4 13 -3 -4 -24 -22 -1 -2
1532261591424505 1 -9 -1 0 13 8 1 -3
1532261591469386 -15 -3 -3 0 32 9 -1 -4
1532261591484346 12 1 1 -1 1 7 0 0
1532261591507284 -1 1 3 -2 -4 -2 3 1
1532261591521247 0 -1 -1 1 -8 -6 -3 -1
1532261591567124 6 1 -1 -2 -1 -5 -5 0
1532261591605023 -2 1 -1 -1 1 1 -7 3
1532261591626964 0 -12 -3 -1 -5 -7 0 -1
1532261591641924 2 -8 -6 -1 -12 -13 3 3
1532261591686804 -7 -4 -2 1 8 14 1 -3
1532261591709743 0 25 -1 -1 -6 -2 2 -2
1532261591754623 -2 -1 2 1 7 4 -3 -3
1532261591761604 -13 7 0 -1 -6 -7 0 -4
1532261591784543 6 10 0 -1 4 -1 5 2
1532261591807481 -3 -17 -2 0 4 10 -1 -5
1532261591821444 0 7 0 -2 -6 3 1 8
1532261591844382 -1 -24 0 -1 -6 -4 -3 -4
1532261591881283 -1 -1 0 -1 -4 -2 -3 -1
1532261591911763 -3 1 1 -3 15 2 -2 -4
1532261591934702 5 -2 -2 -1 -18 -10 0 7
1532261591956643 -2 -1 -1 -1 0 -3 -4 -3
1532261591987560 0 1 -1 -2 -9 -3 -1 1
1532261592025460 -2 -8 1 1 8 1 -3 -4
1532261592069342 -2 3 -2 -2 0 -2 -1 -2
1532261592121203 1 2 1 0 -2 -4 -6 -2
1532261592130180 -2 -3 -2 1 6 5 -2 -4
1532261592175059 4 -2 0 -1 -19 -20 3 6
1532261592204978 0 -3 -1 1 -3 6 -2 -3
1532261592232905 0 0 -3 0 1 3 -1 -2
1532261592286761 -1 6 1 -2 7 19 -3 -2
1532261592309699 -7 -6 -4 -1 -4 -7 1 -2
1532261592347598 -4 -31 -1 -2 -5 -1 -4 -4
1532261592370536 -7 5 -1 -3 -19 -12 -3 -6
1532261592383501 -3 6 -1 -1 8 13 -1 -1
1532261592407438 -4 1 -1 0 -3 1 0 2
1532261592444339 -7 -3 -3 0 24 -3 -3 -7
1532261592489330 -3 -3 -1 -3 -1 0 2 2
1532261592542182 -4 -1 1 1 3 8 0 -3
1532261592566119 3 -1 -3 0 -5 -9 0 -2
1532261592589073 -5 0 1 1 0 -1 1 3
1532261592623964 -8 21 -1 -5 -11 -2 1 2
1532261592646902 -3 4 -2 -1 -3 -5 0 1
1532261592669841 3 -22 0 -2 -12 1 -5 2
1532261592691782 0 -6 -1 -1 -2 -5 -2 -3
1532261592707740 0 -1 -5 0 11 2 -1 -3
1532261592729696 1 4 -3 -3 -5 -7 -2 -1
1532261592752620 -1 -8 -2 -3 -4 1 1 2
1532261592776556 -9 3 1 3 7 9 -2 -5
1532261592803500 -1 -7 0 -2 -3 4 4 5
1532261592910198 4 -17 2 1 -1 5 1 2
1532261592923164 -15 -1 0 0 7 -1 -2 -6
1532261592970037 4 7 1 -1 -9 -7 1 1
1532261592991980 0 2 -2 -1 -4 -3 2 -1
1532261593006940 1 -2 0 0 -21 -5 -3 -1
1532261593029878 1 1 -1 -4 -10 -14 -2 -1
1532261593043841 2 1 -2 1 17 7 -2 1
1532261593066780 -2 1 -1 0 0 3 2 -1
1532261593112659 -9 -9 -11 -15 -7 -50 -29 -12
1532261593134598 -4 -2 -28 -60 25 -14 1 -3
1532261593165516 5 -2 -27 98 38 18 17 6
1532261593186459 -2 -2 -29 -84 -46 -39 -24 -7
1532261593209398 5 3 13 -38 -4 20 29 30
1532261593246299 3 21 44 67 -4 -26 -15 -17
1532261593269238 -9 90 -17 -16 -27 -31 -2 -17
1532261593300156 18 -13 34 7 -20 5 -30 2
1532261593330075 3 -21 -5 -3 7 3 17 1
1532261593374955 -6 -27 -7 -6 7 -20 6 1
1532261593397903 -3 4 7 11 59 44 16 -4
1532261593443772 -1 2 16 67 31 -49 -23 7
1532261593471697 -16 -15 -17 -32 -41 107 -52 -30
1532261593525552 2 -4 -14 -46 -42 117 7 5
1532261593541510 -9 -5 7 20 28 12 -9 -58
1532261593554475 -1 -9 -2 -1 51 -61 14 -4
1532261593579408 -6 -6 -8 -9 -47 -44 -5 -6
1532261593629275 1 0 5 13 21 -10 -1 1
1532261593697094 1 -2 -6 -22 -21 -25 -10 0
1532261593720033 1 2 3 9 -24 2 1 0
1532261593771895 1 -1 -2 -1 -15 -25 2 1
1532261593811788 -2 3 -3 -16 -17 8 -3 -3
1532261593816782 3 4 4 27 10 -10 0 1
1532261593892571 1 0 2 6 -28 -31 -3 1
1532261593905537 1 2 1 2 -5 -44 1 3
1532261593951414 1 -4 0 -12 -47 21 9 1
1532261594005270 -1 -3 -6 1 16 10 1 2
1532261594034193 -4 3 -2 7 24 21 -7 -3
1532261594057132 -2 -7 -3 1 15 -5 1 -1
1532261594095030 -4 -2 -5 -10 -7 28 -4 -8
1532261594115974 0 6 1 6 -18 -42 6 1
1532261594191771 -3 -5 -9 -24 -18 9 0 -4
1532261594235545 7 11 18 12 7 31 6 2
1532261594274441 6 19 16 -3 -17 -7 -6 0
1532261594297380 2 11 13 39 53 -12 5 2
1532261594312340 1 3 -3 -6 8 -7 -15 -1
1532261594350238 -1 -4 -6 -12 -21 -6 -9 4
1532261594372180 1 2 -1 -14 -20 -24 1 6
1532261594476900 0 -2 -1 -1 23 4 -5 0
1532261594559678 3 0 3 4 -6 -5 4 -1
1532261594597577 0 -1 -3 6 3 13 0 -1
1532261594679771 1 -2 -2 -2 -14 3 5 -5
1532261594708701 2 -2 1 -1 -85 -27 4 3
1532261594739888 0 -2 -2 -15 -7 -9 2 3
1532261594821675 -2 -1 2 5 -12 -21 2 -2
1532261594882527 -2 -2 -6 -8 23 30 -1 -2
1532261594911450 0 0 0 -8 8 7 -8 -3
1532261595008192 -2 1 -5 -14 16 6 -2 1
1532261595055066 0 0 7 4 -21 -9 -1 -6
1532261595144826 1 4 5 9 11 4 -2 -2
1532261595159786 -1 17 4 -6 -19 -55 -7 0
1532261595234586 -3 -35 -11 -10 -2 2 2 2
1532261595270490 3 4 3 -2 -18 -39 -16 0
1532261595339318 -4 11 3 2 17 4 3 -5
1532261595398148 -17 -64 -10 -2 -23 -17 -6 -4
1532261595439042 6 16 -12 -8 -3 -17 -3 -4
1532261595496885 10 -8 10 -3 -23 -4 20 -3
1532261595534783 -2 25 9 -2 -23 -19 -12 -6
1532261595579681 -7 -35 2 12 33 -4 1 -2
1532261595805078 -5 2 -3 -6 -63 -20 4 -2
1532261595977617 -27 0 1 0 -32 19 7 -2
1532261596059399 12 14 5 3 46 6 7 7
1532261596241911 1 -1 0 1 -5 -7 -1 -4
1532261596253878 1 -6 -3 -1 23 34 4 -5
1532261596299755 -2 1 6 2 -17 -16 -6 1
1532261596397494 -5 5 2 -6 8 9 5 -4
1532261596525153 -4 -9 -4 2 -19 -7 -9 2
1532261596547102 -3 -8 0 1 4 -15 -7 -3
1532261596744566 3 5 -2 -11 -1 -21 -6 3
1532261596787464 -1 0 -4 -7 -16 -7 11 2
1532261597034518 -1 5 -4 -1 -7 -15 11 0
1532261597116299 0 -1 1 -4 4 12 3 2
1532261597161179 0 -1 -2 -9 -5 4 6 -2
1532261597199077 -2 -4 1 3 41 4 -1 -2
1532261597342694 4 12 -1 -2 7 11 2 -1
1532261597378597 2 1 -1 -4 -5 -19 -5 2
1532261597401570 -2 -1 2 0 -7 2 -1 1
1532261597439435 -2 -1 -1 -1 9 -4 -6 0
1532261597559133 1 0 2 0 -15 1 7 0
1532261597641899 0 -1 -1 -2 -47 -7 -5 -2
1532261597851345 -3 -1 0 -1 -1 -10 1 0
1532261597919164 -2 0 -1 2 3 -3 1 -2
1532261598061789 -3 1 3 5 5 -10 -11 -6
1532261598211680 -1 -3 0 -2 8 7 2 0
1532261598219658 -1 0 -1 -5 -5 30 -4 -1
1532261598241600 -2 0 2 3 11 3 -2 -5
1532261598264538 2 -1 -2 -10 6 -1 21 6
1532261598475973 2 -3 -4 -13 -27 -42 -17 6
1532261598517860 -6 -4 -5 -1 -21 -60 1 -2
1532261598541797 -7 -12 -10 -11 -69 7 0 0
1532261598638562 3 -1 5 5 31 -19 11 12
1532261598677457 -2 -5 3 11 3 -28 -12 -7
1532261598758243 2 2 -3 -10 -60 -5 -41 -3
1532261598864956 -15 28 11 0 -55 -70 -44 -11
1532261599044476 -21 -8 -2 1 -29 -16 -50 -22
1532261599104316 0 -1 4 10 29 42 -7 -2
1532261599141218 -3 -4 6 8 1 -1 15 4
1532261599367626 -3 -2 -2 -4 -40 9 -33 -7
1532261599449407 0 -3 -3 -7 -3 -7 1 0
1532261599472346 0 -2 -4 -9 9 65 9 1
1532261599501269 0 0 4 15 -8 -12 7 2
1532261599563109 -1 -1 -5 -16 -11 18 14 1
1532261599570106 -1 -2 -5 -7 -21 -9 2 -3
1532261599629929 -2 -1 -2 -4 -5 -28 -5 -2
1532261599666832 -4 -3 -3 -1 1 33 5 -2
1532261599680794 0 -1 0 6 16 -4 -11 -3
1532261599764597 -1 1 2 -4 -1 -10 0 -4
1532261599778560 0 1 -3 -8 13 -34 0 -2
1532261599809477 -3 -2 -2 -3 10 -2 2 -3
1532261599849063 1 -3 -5 -11 -18 28 -2 0
1532261599861033 -2 -3 -4 4 -3 -12 -1 -3
1532261599886963 -2 -1 1 3 40 12 -1 0
1532261599906909 -3 -3 -3 -2 12 -13 -13 -5
1532261599990138 0 -1 3 -1 7 -1 1 -1
1532261600004101 -4 -2 -3 -1 10 0 2 0
1532261600011083 -3 -2 -4 -2 1 18 -3 -4
1532261600049979 2 0 4 9 6 17 4 0
1532261600109818 1 -2 -6 -9 7 -11 3 0
1532261600147717 -4 -2 -5 -14 -11 13 -7 -5
1532261600169658 0 0 -1 1 -16 14 8 -1
1532261600207557 -1 -3 -4 0 33 -2 -1 2
1532261600229498 -3 -2 -1 -1 -8 18 6 0
1532261600289882 -2 -3 -2 -15 -3 10 3 -2
1532261600328771 -1 0 -1 -4 -5 -31 -17 -1
1532261600363678 -1 0 -2 0 -21 -14 -1 0
1532261600469395 0 1 0 1 10 5 -1 1
1532261600507294 -1 -6 -12 -20 -16 3 -1 -2
1532261600537214 1 2 5 -4 -18 1 -3 3
1532261600581097 1 3 0 -9 3 -18 1 0
1532261600612014 0 -1 0 18 27 25 -1 -2
1532261600685816 1 0 3 5 2 2 2 0
1532261600725710 0 0 -1 -5 -9 17 -6 -1
1532261600753635 -1 2 -3 -10 -17 -9 -8 -3
1532261600792531 1 1 1 -7 -5 -7 1 0
1532261600813492 -3 1 -2 -1 -4 -23 -5 -2
1532261600868328 -1 -4 -3 -2 6 11 1 0
1532261600906233 -2 -1 6 2 5 17 1 0
1532261600958088 -3 -8 -9 -6 11 1 -2 10
1532261600973049 2 -5 -4 -4 -19 40 7 8
1532261601009950 -10 -1 1 5 17 39 1 1
1532261601045853 -3 -3 -5 -1 -5 -16 -3 1
1532261601091731 -2 -3 -3 -1 -1 17 7 -2
1532261601251304 -16 -2 0 -2 -2 -14 0 -1
1532261601286216 12 -3 -1 -3 -1 0 -2 1
1532261601310137 -6 0 -4 -1 -2 4 0 -1
1532261601355016 -3 -1 -2 0 1 1 0 -1
1532261601368979 5 -1 -1 0 -3 1 0 -2
1532261601481677 -3 -1 -1 -1 -2 0 0 2
1532261601495641 -2 -1 -1 -1 -1 1 -1 -2
1532261601550493 -1 0 -2 0 -2 -4 -1 0
1532261601572436 -3 -1 -1 -1 -1 1 -1 -1
1532261601594376 -1 -2 1 -2 -1 -2 -1 -3
1532261601632274 -1 -2 -1 -2 -1 -2 -1 0
1532261601646237 0 0 0 -3 -3 -1 0 0
1532261601706078 -3 -2 0 2 -1 -1 -1 -2
1532261601723033 -3 -1 -1 -2 -1 -1 -1 0
1532261601759934 -1 -1 -2 1 -2 -1 -2 -1
1532261601781880 -1 -2 -1 -2 -3 1 -1 -2
1532261601811795 -1 -2 -1 -2 1 0 3 0
1532261601834734 -1 -1 -1 0 0 0 0 -3
1532261601872633 -1 0 0 0 -1 -1 -2 -1
1532261601894574 1 -2 -2 -1 -1 -3 -4 -1
1532261601908536 -3 -2 -3 -4 0 -1 -2 -1
1532261601954414 -1 -1 -1 -1 -2 2 1 -3
1532261601977352 -2 -1 -2 -2 0 -1 0 0
1532261602029214 0 -1 -1 0 0 0 -1 -3
1532261602052152 -2 0 -1 -1 -1 -2 0 -3
1532261602074094 -1 -3 -3 0 -1 0 -1 0
1532261602091048 0 -3 -2 -1 0 -1 -2 -1
1532261602111992 -1 -2 -2 -1 -2 0 -1 0
1532261602134931 -1 -1 -2 -1 -2 -2 -1 1
1532261602155887 -1 -2 -2 -2 -2 -2 -4 -2
1532261602195634 0 -1 0 -1 -2 0 -2 1
1532261602209598 -1 -1 -1 -3 -2 -3 -3 0
1532261602254492 0 -1 0 -1 -1 0 0 -1
1532261602268441 -1 -2 -2 -1 -2 -2 -2 3
1532261602299358 -3 0 -2 -2 -3 -1 -2 -1
1532261602329291 1 -2 -2 -2 -1 -3 -1 -2
1532261602352230 -2 -1 0 -1 -2 1 0 0
1532261602388133 -1 -2 -1 -2 -2 -1 -1 -2
1532261602403093 -2 -1 -2 1 -1 0 -1 -2
1532261602435008 1 1 -2 1 0 -1 0 2
1532261602471910 -1 -2 0 0 -1 1 -2 0
1532261602532747 -1 -1 -2 -1 0 -1 -1 -2
1532261602570646 -1 0 0 -1 -1 1 -2 1
1532261602583611 0 -1 -1 -2 0 6 4 -2
1532261602615525 3 -1 -1 -2 -1 -1 -2 5
1532261602628491 -1 -1 -2 -3 0 -2 -4 -4
1532261602638464 0 -2 -2 -1 -3 -4 0 2
1532261602660405 0 -1 -1 -2 -1 -3 -1 -2
1532261602684342 -3 -1 0 -2 -1 -4 -2 0
1532261602699316 0 -1 0 1 -1 -4 -2 -1
1532261602714262 1 0 0 -1 -1 0 -2 -2
1532261602736217 -2 -2 -2 -2 0 2 5 0
1532261602759142 -1 -1 -2 -2 0 1 0 -1
1532261602780085 1 -2 -2 -1 -1 -2 -4 0
1532261602796043 1 0 -2 -2 -1 0 0 -1
1532261602825963 -1 -1 -1 -1 -2 -5 1 1
1532261602854885 0 0 -2 0 0 -3 -2 -1
1532261602877824 0 -1 -1 -2 1 -1 1 -4
1532261602906746 -1 -2 -2 -3 -2 -3 -1 1
1532261602916725 -1 -1 -2 -1 -2 1 -1 0
1532261602937664 -1 -1 -2 0 -2 -2 0 -1
1532261602951627 -3 0 0 -1 1 0 1 -1
1532261602974565 -3 -3 -2 -2 -3 3 1 -1
1532261602997504 0 -2 -1 1 0 3 -2 -2
1532261603011466 -2 -1 0 0 -3 -4 -1 2
1532261603042397 -1 -1 -1 -1 -1 3 1 1
1532261603057344 0 0 1 -2 1 -2 -1 -1
1532261603110203 -1 -1 -2 -1 -1 -2 0 -2
1532261603156080 -2 -2 0 -1 -2 1 -3 -1
1532261603183007 -1 0 -1 1 -1 2 0 0
1532261603214923 -1 -1 -2 -1 -1 -2 0 -3
1532261603236863 0 -1 -1 0 0 0 -3 1
1532261603250826 -1 -1 0 -1 -1 -2 -1 -1
1532261603274763 0 -2 -1 -2 -1 -1 -2 -1
1532261603297701 -2 -3 -1 -1 -1 0 2 1
1532261603363525 -2 -1 -1 -1 -2 2 2 0
1532261603381477 -1 -1 -1 0 0 -1 -1 -3
1532261603416398 -2 0 -1 0 -2 0 1 -1
1532261603454283 -1 -2 -1 0 -2 -1 -1 -3
1532261603500160 0 -1 -3 -2 -2 -2 2 -3
1532261603544778 -1 -1 -1 0 -1 -1 -1 -1
1532261603550761 0 -1 0 0 1 -2 1 2
1532261603597637 -1 0 1 -2 0 1 -2 -1
1532261603619578 1 -1 -3 -2 -1 -1 -2 -3
1532261603633541 -1 -2 -1 0 -1 -1 0 -2
1532261603648501 -2 -1 -3 -1 1 3 0 0
1532261603664458 0 1 0 -2 -2 -3 -1 1
1532261603694378 1 0 -2 -1 -1 -2 -2 -1
1532261603717317 -2 -1 0 -1 -1 -2 0 -1
1532261603740256 -2 0 -3 0 -2 -3 -1 -1
1532261603754218 -3 -3 0 -1 1 -3 -2 0
1532261603778154 2 2 1 1 0 -1 -2 -1
1532261603800095 -2 -2 1 0 -2 0 -4 -4
1532261603828021 -2 -2 0 1 -2 -3 -3 -1
1532261603859935 -4 -2 -2 -2 1 -2 0 1
1532261603873898 2 -1 -2 1 -2 1 3 -1
1532261603956677 -1 -2 -1 0 0 -3 -1 1
1532261603972635 -1 0 -2 1 -1 -1 -1 -2
1532261603996569 -1 -1 -1 0 0 -1 0 -6
1532261604039456 -1 -1 -1 -1 -2 -3 -2 -2
1532261604061396 0 -3 -1 -1 -2 -3 -1 0
1532261604099295 0 -3 -2 0 -2 -2 0 -2
1532261604121237 -2 -3 0 -1 -2 0 -1 -2
1532261604139199 -1 -1 0 0 0 0 -3 -2
1532261604161130 -1 -2 -2 -4 1 -2 -1 -1
1532261604188058 0 0 -2 -1 -1 -2 0 0
1532261604218975 -2 -1 -1 -2 -2 -2 -1 -1
1532261604241913 -1 -1 -1 0 1 -3 -1 0
1532261604257871 -3 -1 -1 -2 -2 -1 0 0
1532261604280810 -1 0 0 0 0 0 0 0
1532261604301754 -1 -1 -2 -1 0 -3 -2 -2
1532261604338762 0 0 2 -1 -1 -1 -4 -2
1532261604362684 -2 -3 0 1 1 0 0 2
1532261604399585 1 0 -2 0 0 0 0 1
1532261604422527 1 -2 -2 -1 -1 -1 -1 -1
1532261604459425 0 0 0 -2 -2 -3 -2 -4
1532261604496326 -1 -1 -2 0 -2 -1 -2 -3
1532261604519265 -3 -1 -1 -1 -2 0 1 1
1532261604543201 -1 -2 -1 0 0 -1 3 0
1532261604566140 0 0 -1 -2 -2 -2 0 -1
1532261604579118 -2 -1 0 0 -2 1 -2 0
1532261604602044 0 -1 -1 -1 0 -1 0 0
1532261604617013 -1 -1 -1 -1 0 2 -1 0
1532261604638952 -2 0 -1 -1 0 -1 0 -4
1532261604676844 1 0 0 0 -1 -1 0 1
1532261604721723 -3 -1 -1 1 0 -2 -3 -1
1532261604796524 0 0 0 -1 1 0 0 -3
1532261604864342 0 0 -1 -1 -1 -1 -3 -2
1532261604879301 -2 -1 -1 -1 -3 -1 -2 -1
1532261604901904 -1 -2 -4 -1 -3 -1 -1 0
1532261604961744 -2 -1 -2 -3 -1 0 1 0
1532261604976704 -3 -1 0 -1 1 0 2 1
1532261605067461 -1 0 -3 0 -1 -1 1 3
1532261605089403 -1 -1 -2 0 -1 -1 -1 0
1532261605142262 0 -2 0 -3 -1 0 -2 0
1532261605156224 0 -1 -2 -1 0 -3 -1 0
1532261605202341 -1 0 0 -2 -1 -1 -2 -2
1532261605216388 -1 1 -1 0 -2 -2 0 -1
1532261605262264 -1 0 0 1 -1 0 -2 -2
1532261605307151 -1 -2 0 0 -2 0 -2 0
1532261605360010 0 0 -2 -1 -2 0 0 -1
1532261605425834 -1 0 -1 -1 0 -1 0 -2
1532261605456755 -2 -2 -3 -1 -1 0 1 2
1532261605478692 0 0 -1 0 -1 0 -2 -2
1532261605502628 -1 -3 0 0 -1 -1 -1 -1
1532261605539529 -1 -1 -1 -2 -1 0 1 -1
1532261605561471 -4 -1 -2 -1 -1 -1 -1 0
1532261605592389 -1 -2 -1 -1 2 -1 0 -1
1532261605599369 -1 -2 -1 -2 -1 0 1 -2
1532261605629290 0 0 -1 -1 -1 -2 1 -1
1532261605644250 0 -1 1 0 -2 -1 -2 3
1532261605659210 -2 -2 -2 0 -1 -1 -3 -3
1532261605690127 0 0 -2 -1 -2 0 -2 -2
1532261605712068 1 -1 -1 -1 -1 2 3 -1
1532261605727029 0 -1 -1 0 -1 -3 0 -1
1532261605741988 -2 -1 -2 0 -1 -2 -1 0
1532261605764927 -2 -1 -2 -2 -2 -2 -2 -2
1532261605778890 -1 -1 -1 -1 -2 -1 -3 -3
1532261605808813 0 -2 0 -1 0 -2 -2 -2
1532261605876628 -1 -1 -1 -1 -2 -3 0 -1
1532261605921508 2 0 0 -1 -2 -2 -1 0
1532261605933477 -1 1 -1 -2 -3 1 2 -2
1532261605967257 0 -2 0 0 -1 1 0 1
1532261605982218 -3 0 -1 -1 -1 -1 -4 -2
1532261606004390 0 0 -3 -2 -2 -4 -2 1
1532261606019350 -2 0 -1 -1 0 0 -1 0
1532261606042289 -1 -1 -1 0 -1 0 -2 0
1532261606064230 0 -1 -2 0 -1 0 2 0
1532261606101132 -1 -1 -2 -1 0 0 0 1
1532261606131497 -3 -2 1 0 -2 1 0 -3
1532261606176377 1 -1 -1 0 -1 -1 -3 -5
1532261606252174 -1 -1 0 1 -1 1 0 0
1532261606304035 0 -2 -2 -2 -1 -1 0 0
1532261606371854 -2 1 0 -2 0 0 2 -1
1532261606432692 -1 2 -2 0 0 0 1 -2
1532261606529440 -2 0 -2 0 -3 0 0 0
1532261606544400 -1 -1 -1 1 -1 -1 -3 -2
1532261606574326 1 0 -1 -2 -1 -1 1 0
1532261606581307 -1 0 -1 -1 -2 0 1 1
1532261606612224 -1 -4 0 -1 0 -2 0 -1
1532261606650123 -3 -2 -1 -3 0 -3 -3 -2
1532261606731905 1 -2 -2 -1 -1 -2 1 -1
1532261606775787 -1 1 -1 -1 -1 0 -4 -2
1532261606807709 1 -1 -1 -2 -1 -2 -2 0
1532261606844603 -2 0 -1 0 -1 -1 0 2
1532261606866818 -2 0 0 -2 -1 -1 0 1
1532261606888759 -3 -1 -1 -4 0 -3 -2 0
1532261606927655 0 -1 -2 1 -1 -2 -1 0
1532261606994476 -1 -2 -3 -3 0 -1 0 0
1532261607010445 -2 0 0 -2 -1 -2 -1 -1
1532261607046352 0 -1 -2 0 -1 0 0 -2
1532261607076272 1 -1 0 0 -1 -1 -2 -3
1532261607107189 0 1 -1 0 -3 -2 -1 1
1532261607130138 0 -1 0 -1 -2 -4 -2 -2
1532261607167039 0 -2 -1 0 1 1 -3 -4
1532261607189985 -2 -2 0 -1 0 1 -1 1
1532261607234857 -1 -1 -1 0 -2 0 -1 -1
1532261607264777 -1 -1 -1 -2 -1 0 -4 1
1532261607309658 -1 -1 -1 -2 0 -1 0 -1
1532261607346558 -1 -2 -2 0 0 0 -2 -2
1532261607369497 -1 0 0 -1 0 0 0 -3
1532261607407395 -2 0 -2 -1 -1 -1 0 -2
1532261607467235 -1 -2 -1 -1 0 -2 -1 0
1532261607577940 -1 -1 0 0 0 -2 3 2
1532261607600878 -2 -1 0 -2 -2 0 -4 -2
1532261607638776 -2 0 0 -1 -1 0 0 0
1532261607698617 -1 -1 -1 -1 -2 0 -1 -1
1532261607728537 0 -2 0 -1 -2 -1 -1 0
1532261607775233 -2 0 -1 0 -2 0 -2 -3
1532261607797176 -2 -2 -2 -1 1 -2 1 -1
1532261607811140 -1 -1 0 -1 -1 -1 0 0
1532261607871977 -1 -1 -1 -1 -2 -1 -1 -1
1532261607886937 1 -2 -1 -1 1 -2 -1 -2
1532261607930819 -1 -1 -4 -1 -2 -2 -1 0
1532261607983678 -1 -1 1 -1 0 -2 -3 -1
1532261608037534 2 -1 0 0 -1 0 1 1
1532261608059476 -1 -1 0 -1 0 -2 0 0
1532261608097373 0 -2 -2 -1 -1 -2 -3 1
1532261608149235 -1 -2 -2 -1 0 0 -1 -1
1532261608210103 -2 0 -2 -2 -1 -1 -1 -4
1532261608247004 -2 -1 1 -1 0 0 0 -1
1532261608283906 -1 -1 -2 -1 -1 -1 0 0
1532261608314823 1 -3 1 0 -2 0 1 2
1532261608329783 -1 0 -1 -1 0 -1 -1 3
1532261608352722 0 -2 0 0 -2 -1 0 -1
1532261608382642 -1 -1 0 -3 -1 -1 1 2
1532261608403586 -1 0 -1 -1 -1 0 -2 -3
1532261608430514 -1 -1 0 -1 -1 0 -1 -2
1532261608455447 0 -1 -1 -1 0 -1 1 -1
1532261608473857 -1 -1 0 -2 -1 1 -2 -1
1532261608509746 -3 0 -3 0 -1 -2 -2 0
1532261608546647 1 -1 -1 -1 -1 1 -1 0
1532261608592525 -1 -1 -1 -1 -1 0 -5 -2
1532261608667324 -1 0 -2 -1 -2 -1 0 -1
1532261608689266 -1 0 -1 -3 -3 -1 -2 1
1532261608720183 -1 0 1 0 -2 -2 -3 1
1532261608726167 -1 -2 -2 -3 -1 0 -2 -1
1532261608750103 -2 -2 -2 0 -1 -1 1 -1
1532261608772056 1 -2 -2 1 0 -1 0 -1
1532261608792988 0 0 0 1 -3 -2 -3 -1
1532261608810949 0 -3 -1 -1 0 0 0 -3
1532261608846845 -2 -2 -1 1 -1 -1 -1 1
1532261608891760 -2 -2 1 -1 -1 -3 -2 -2
1532261608905723 -2 -1 -1 -4 -2 1 -1 0
1532261608929659 -1 -2 -2 0 -1 1 -1 -3
1532261608981520 1 -2 0 -1 -1 -2 1 -2
1532261608997477 -1 -1 -1 0 1 -2 0 0
1532261609018421 -2 -1 -1 -1 -3 -1 -2 -1
1532261609072312 1 0 1 -1 -1 -1 -2 -2
1532261609086266 -1 0 -2 0 -1 -1 0 -3
1532261609132144 0 -1 -1 1 -1 -1 -3 -3
1532261609146119 -2 -2 0 -3 -1 -2 2 0
1532261609155082 0 -1 -1 -1 0 -2 0 -1
1532261609191983 -2 0 -1 -1 0 -1 -1 -2
1532261609229882 1 -2 -2 -1 -1 -4 1 1
1532261609251823 0 -1 0 0 -2 2 1 0
1532261609275760 1 -1 -2 -1 0 -3 -4 0
1532261609312660 0 -2 -1 -1 -1 1 -1 -2
1532261609334602 -2 -1 0 -3 -2 0 0 0
1532261609349561 -3 -2 0 -1 0 -2 -2 -1
1532261609372515 2 1 -3 0 -2 -1 -4 -3
1532261609394442 0 0 -1 1 -1 1 0 -2
1532261609439322 -1 -1 0 -1 -2 -1 -2 -1
1532261609454281 -1 -1 -2 0 1 0 0 -1
1532261609469241 -2 0 2 -1 -5 -7 -2 -1
1532261609500159 0 -1 -2 0 -1 1 0 -1
1532261609515119 0 0 -3 -1 0 3 4 -1
1532261609559999 -1 -1 -2 -2 0 -1 0 2
1532261609574959 -1 -1 -2 -1 0 -1 -2 0
1532261609589919 -1 -1 0 -1 -1 -1 0 -1
1532261609634799 -1 0 0 -2 -1 -4 -3 -3
1532261609648764 -2 -3 -2 0 -2 0 -1 3
1532261609694639 0 -1 -1 0 0 -1 1 -2
1532261609717578 0 -1 -2 -1 -2 -2 0 -1
1532261609754479 1 0 0 0 -2 -1 -1 0
1532261609783427 -1 -2 0 0 -1 -3 -3 -4
1532261609817336 -1 -1 -2 -1 -1 1 1 -2
1532261609837283 -1 0 -2 0 -1 -1 -2 -2
1532261609854237 0 -1 -1 -1 -2 -1 -2 -1
1532261609884158 0 0 -2 -1 -1 0 -1 0
1532261609897123 -2 -2 0 -1 -2 -3 -2 0
1532261609920061 0 0 0 -1 0 -1 0 -2
1532261609947987 -1 0 -2 -1 0 -1 0 1
1532261609971923 0 -2 -1 0 1 -1 -2 2
1532261610017800 -3 -2 -1 -1 -2 -2 0 1
1532261610061683 0 -5 -1 -2 -1 -2 -4 -2
1532261610092608 -2 -1 -1 -1 0 0 -2 -1
1532261610115546 -3 1 1 0 -2 -1 1 0
1532261610137487 -1 0 -1 0 -2 -1 -3 -3
1532261610152448 -1 0 0 -1 0 -2 1 0
1532261610174863 -1 -1 -1 0 -1 1 -3 3
1532261610197802 -1 -3 -1 0 -2 0 0 -1
1532261610234702 1 -2 -2 -1 -1 1 -1 -1
1532261610257641 -2 0 -1 0 -2 -1 -3 -3
1532261610295539 -1 -1 -1 -1 -1 1 -3 -3
1532261610325460 0 -1 -2 -1 -1 -2 0 0
1532261610347401 -3 -1 0 -2 -1 -3 -1 0
1532261610385305 -2 -1 -2 -1 -2 1 1 -1
1532261610437166 -2 -1 -1 0 -1 0 -1 0
1532261610460105 -2 -1 -1 -2 -1 -3 -2 -2
1532261610475065 0 -3 -1 1 0 0 -2 -3
1532261610497006 -3 0 -1 -1 0 -3 -1 0
1532261610511972 -2 -1 0 -1 -1 1 1 -2
1532261610571812 1 -1 -1 -1 -5 0 1 0
1532261610578794 0 -2 -2 -2 -2 0 0 -3
1532261610678527 0 -1 0 -2 -1 -1 -1 -2
1532261610707624 0 -1 -2 1 0 -1 -3 -1
1532261610718594 0 0 -1 -2 0 -3 -2 -1
1532261610737543 1 -2 -1 -1 -1 -1 -1 -2
1532261610797384 -2 -3 -1 -1 -1 -2 -1 2
1532261610834284 0 -2 -2 0 -2 -2 -1 0
1532261610925042 0 -3 -1 -2 0 -3 -2 -3
1532261610940002 0 -2 -1 -1 0 1 -2 -3
1532261610961943 -2 -1 0 0 -1 0 -1 -1
1532261611014802 -2 -1 -1 -2 -1 0 -3 -2
1532261611037741 -1 -1 -2 0 -1 -2 -1 -1
1532261611059682 1 0 -1 0 -2 1 -1 -1
1532261611097581 -2 -1 -1 1 -3 0 -2 -3
1532261611247181 0 -1 -1 0 -1 1 0 -1
1532261611263149 0 -2 -1 0 1 -2 -1 -2
1532261611267971 -2 -2 -2 -1 -3 -1 2 -2
1532261611299885 0 -1 -2 -1 -2 -1 -1 -1
1532261611336786 -2 0 -1 0 0 0 -2 -3
1532261611359725 -2 -2 -1 -1 -1 0 -1 -1
1532261611380669 0 -2 -1 -1 -2 0 0 -1
1532261611420562 0 -2 0 -2 0 -1 0 -1
1532261611457463 -2 -1 -2 0 -2 -1 0 1
1532261611502344 -1 0 -1 -1 -2 -1 -3 -1
1532261611524285 -1 0 0 0 0 0 0 1
1532261611540243 -1 -1 -1 -1 0 -2 0 -1
1532261611599085 0 -1 -2 0 0 0 -2 -2
1532261611622024 -1 -2 -2 0 0 -2 -2 -1
1532261611658925 -1 -2 -1 0 -2 -1 0 1
1532261611688861 -2 -1 -1 0 -2 0 0 0
1532261611749682 -2 0 0 0 -2 0 0 1
1532261611763645 0 1 1 0 -1 0 -3 -2
1532261611779602 0 -1 0 -1 -1 -2 -1 -3
1532261611840439 -1 -2 -1 0 0 -2 -2 -1
1532261611876344 0 -1 -1 -1 -3 -1 -2 -1
1532261611899282 -1 -2 0 1 -4 -3 -1 0
1532261611921223 -1 -1 -1 -3 1 -1 -1 0
1532261612005000 -1 -1 1 -1 2 -2 -2 -2
1532261612018962 -2 0 -1 -2 0 0 -1 -4
1532261612034920 0 -3 0 -2 -2 -1 -1 -3
1532261612086781 -1 0 -2 1 -1 -1 0 0
1532261612093762 1 0 -2 -1 -3 -2 -2 0
1532261612168562 -2 0 -1 0 -2 -2 -3 0
1532261612199479 -1 0 -1 0 -2 0 1 -1
1532261612259322 -1 0 0 0 0 0 0 1
1532261612282258 -1 0 0 -2 -1 -1 -2 -4
1532261612341128 0 0 -2 -1 -1 0 1 -1
1532261612356062 -1 0 -1 -2 -3 -2 -2 -3
1532261612379027 -2 0 -1 0 -2 0 -1 0
1532261612401965 -1 -1 1 -1 -1 0 -2 -3
1532261612438840 -1 0 -1 0 1 -3 1 -1
1532261612468786 -1 -1 -1 -1 -2 -2 0 -1
1532261612522617 -1 0 -1 -2 -2 -4 1 0

1532261612604397 -2 0 -1 -1 0 -1 -1 -3
1532261612628333 0 -2 -1 0 -3 -2 -1 2
1532261612642295 -1 -2 -1 -2 -1 -1 -1 0
1532261612656267 -2 0 -2 0 1 -1 -1 -4
1532261612679197 0 -2 0 -1 -2 -2 0 1
1532261612739048 -3 0 -1 -1 -1 -2 -2 -3
1532261612761975 -2 -1 0 0 -1 -1 0 -1
1532261612829794 1 -2 0 0 -3 -2 -3 0
1532261612868690 -2 0 -2 -3 -2 1 -3 0
1532261612881655 0 1 -1 -1 -2 -1 -1 -1
1532261612913571 0 -1 -1 1 0 0 -3 -2
1532261612938503 -3 0 0 0 -1 -1 -1 1
1532261612955457 -1 -3 0 0 0 0 -2 -2
1532261613002333 0 -1 -1 -2 -2 -1 -2 -1
1532261613055191 0 -1 1 -1 0 -1 -2 -3
1532261613107053 -2 -1 -1 -2 1 -2 -2 -2
1532261613158914 -2 0 0 -1 -1 -2 2 3
1532261613214765 -1 0 0 0 -1 1 0 -2
1532261613242690 -1 -2 -2 -2 -1 0 1 1
1532261613264631 0 0 -1 0 0 -1 0 -3
1532261613309511 -1 -2 -2 -2 -2 -1 -1 -1
1532261613354391 1 -1 0 0 -3 -2 0 -1
1532261613422222 -2 -1 -1 -1 2 1 -1 -4
1532261613448140 0 0 1 -3 -3 -2 -2 -1
1532261613504989 0 0 -1 -1 -3 -2 0 -1
1532261613541889 -2 -2 0 -2 -1 0 -2 0
1532261613586770 -1 -1 -1 0 0 -3 -1 1
1532261613701463 -2 -1 0 0 -2 -3 -1 1
1532261613731383 0 -1 -2 -2 -3 1 -2 -5
1532261613783244 -1 -1 -1 -1 -1 0 0 -1
1532261613805188 -1 -4 0 -1 -2 -2 -1 -3
1532261613901927 -1 -1 -1 -1 -1 1 -3 -2
1532261613970743 -2 -1 0 0 -3 -1 -2 -1
1532261613992684 -1 -1 1 -1 -1 -3 0 1
1532261614044546 -1 0 0 0 -1 0 0 -2
1532261614104385 -2 0 -1 -2 -2 0 -1 -1
1532261614178188 -1 -2 -2 -1 0 -2 0 -1
1532261614226061 -2 0 0 -2 -2 0 -1 -1
1532261614308839 0 -1 -1 -1 0 1 1 4
1532261614313825 0 -2 -1 -2 -2 -1 -1 1
1532261614330780 1 0 -4 0 1 -3 -1 -1
1532261614381644 2 0 0 -2 -2 1 1 -4
1532261614427521 -1 0 -2 -3 -1 -2 -1 -1
1532261614526258 0 -1 -3 -2 -1 -3 -3 -3
1532261614570139 0 -1 -1 -1 1 -2 -2 -22
1532261614666881 -3 0 -2 0 -2 0 -1 3
1532261614757639 -2 0 0 -1 -1 -1 -1 -3
1532261614832440 1 0 -1 -2 -1 2 1 2
1532261614869340 -2 0 0 -2 0 -3 -2 -1
1532261614944140 -3 -1 0 0 -2 -1 0 -3
1532261615086768 0 -1 -1 -2 0 0 -2 -3
1532261615109697 -2 0 -2 -1 -1 0 -2 0
1532261615147596 -3 0 1 -1 0 -2 0 -3
1532261615184497 1 -1 -3 -3 -4 -3 -1 0
1532261615213420 -5 -1 -1 1 0 -2 -3 0
1532261615243339 -2 -1 0 0 -2 0 -2 -4
1532261615297195 0 -2 -3 -3 -1 -3 2 -1
1532261615387953 3 -1 -1 -1 -2 0 3 3
1532261615431836 -3 -3 -2 -3 1 0 -1 -1
1532261615469735 -5 -1 -1 -2 0 -2 0 0
1532261615483697 -1 -1 -1 0 0 -2 2 6
1532261615507632 -3 1 1 1 -2 -4 -3 -4
1532261615589414 3 -2 -2 -2 -2 -1 -3 1
1532261615663217 1 0 -3 -2 -2 -1 -1 -2
1532261615687153 -5 -1 -1 -2 -2 3 1 -6
1532261615710092 -1 -2 0 0 -1 -2 -3 -3
1532261615732034 -5 0 -1 0 -1 0 -1 2
1532261615769932 0 1 0 0 0 -1 -1 -1
1532261615806833 -1 -1 -1 1 -1 -2 0 1
1532261615829780 -1 -1 -1 -1 -2 0 -1 -3
1532261615874652 -2 0 -1 0 1 -2 -2 0
1532261615912550 -1 2 -1 0 -2 -2 -1 0
1532261615926513 -1 -2 -2 1 -1 -1 -3 0
1532261615949452 -1 -1 -2 -2 -1 -2 1 0
1532261615963414 -1 -2 -1 -2 -1 0 -1 0
1532261615987350 -1 -2 -1 -3 0 1 -1 -1
1532261616009291 0 1 -2 0 -1 -1 1 0
1532261616032230 -2 -2 0 0 -1 -2 1 1
1532261616108028 -1 -1 -2 0 -7 -4 -3 -3
1532261616137947 -5 -4 -6 -8 -22 -23 -11 -5
1532261616159889 1 0 -6 -21 -9 19 4 0
1532261616221723 -3 -5 -10 -8 10 -6 -1 0
1532261616234689 -3 -5 -4 -9 4 -4 -4 -3
1532261616249649 1 1 -2 -2 -25 -31 -2 -2
1532261616272588 -8 -6 10 -1 4 11 -2 -6
1532261616285553 -6 -5 -13 0 7 1 8 -1
1532261616310486 -1 -8 -11 -13 -5 1 1 0
1532261616331430 4 3 -6 0 -16 24 8 3
1532261616364357 -3 -4 -7 -18 15 -51 -4 -1
1532261616370326 1 2 3 5 -17 -15 0 0
1532261616392267 -7 2 -1 0 1 14 3 -3
1532261616430166 1 -1 -3 0 -19 -11 -2 2
1532261616460086 3 1 10 7 -20 12 -1 1
1532261616475046 -3 -4 -10 -17 7 -3 1 -1
1532261616525910 -1 -1 -7 -10 -33 -3 1 0
1532261616544860 1 -1 3 -9 -25 -14 3 0
1532261616550843 -4 -1 12 33 -22 -6 -8 -4
1532261616571789 0 0 9 77 11 -4 1 0
1532261616594726 1 -4 -7 -30 96 12 8 0
1532261616617665 -1 -4 -4 -1 33 11 9 4
1532261616662545 -3 -5 -15 -16 -45 -17 5 -1
1532261616837078 5 15 3 7 -11 5 -2 2
1532261616879963 -2 7 -5 1 0 -1 -3 -3
1532261616939804 -2 -3 2 3 3 -9 -2 -3
1532261617036545 -5 -43 0 -1 -4 2 0 1
1532261617082423 2 -1 4 0 0 -1 -3 -2
1532261617107363 -1 -6 -7 -2 7 -3 0 -1
1532261617158220 -1 -30 -2 0 0 -2 -1 0
1532261617278896 2 -2 -1 0 2 6 4 -1
1532261617322789 6 1 -1 1 0 0 -1 -3
1532261617381622 1 1 0 -4 -7 -8 4 3
1532261617413537 0 -1 -3 0 0 11 -4 -1
1532261617427499 -1 -2 -5 -3 2 -6 -7 -2
1532261617436475 7 -5 -1 -1 1 4 -1 4
1532261617459422 -6 1 -2 0 -2 1 -3 -3
1532261617473377 8 -2 -5 -2 -5 0 -3 -2
1532261617508283 8 2 1 1 -2 -5 -2 -4
1532261617538203 -1 -5 -3 -1 -1 0 -1 -2
1532261617594059 -4 -3 0 -2 -1 0 1 -1
1532261617598043 -1 -2 -2 -2 -1 3 -1 0
1532261617631959 -2 0 2 2 4 6 -2 2
1532261617642923 0 0 0 1 -2 -6 -3 -1
1532261617657883 -1 1 -1 -1 -3 3 -2 -3
1532261617676833 -3 -2 -1 -2 -1 2 2 1
1532261617697777 -1 -1 -2 7 1 -9 -11 -2
1532261617718721 -1 -3 1 -1 7 -18 1 0
1532261617736673 0 -1 0 7 3 22 3 -1
1532261617764614 0 -1 -1 2 -9 -4 2 0
1532261617816459 -2 0 0 4 -2 -53 -19 -4
1532261617833414 1 -1 -4 3 29 22 0 -2
1532261617863334 -2 -5 -2 -8 -11 53 9 -4
1532261617884278 -3 0 -1 -7 -22 -26 -1 1
1532261617945115 1 2 0 -4 -1 13 0 -1
1532261617958081 -2 -2 -3 -2 9 -5 -1 -1
1532261617976033 0 1 1 -3 -9 -49 -5 -1
1532261617998971 0 -3 -3 1 2 6 -5 0
1532261618027894 -1 1 1 0 15 -2 -1 -2
1532261618051830 10 -2 -4 3 21 18 0 1
1532261618070779 0 0 1 1 13 4 -3 -4
1532261618094714 -2 3 -4 0 -6 -17 -3 -3
1532261618117653 1 -1 -2 0 10 21 12 0
1532261618139596 4 1 5 2 -6 -10 -4 -2
1532261618176496 -1 -1 -2 -2 9 5 3 3
1532261618184475 -5 1 0 -1 1 8 0 -1
1532261618199435 1 0 0 0 -1 1 -5 -5
1532261618216390 -2 1 -1 -2 2 37 1 -1
1532261618239328 -1 -1 0 -3 -2 19 5 -5
1532261618274235 -2 -2 1 -1 -4 -8 -6 -5
1532261618297173 -9 -1 -2 -1 -5 5 2 0
1532261618311136 -6 -2 -1 -1 -2 -3 -2 -2
1532261618372971 4 1 1 0 0 -15 -2 0
1532261618401893 -6 1 -3 -2 -1 8 -2 0
1532261618416854 -1 -1 -2 -3 -3 4 -7 -3
1532261618430817 1 -2 -1 -1 -4 3 0 -2
1532261618439804 1 -2 1 0 3 -1 1 0
1532261618484672 -1 0 1 -1 -3 6 0 -2
1532261618490656 -1 -1 -2 -2 -3 0 -2 0
1532261618550496 1 -4 0 1 0 1 0 -1
1532261618597371 -1 1 -1 0 -1 6 -3 4
1532261618680150 2 0 0 1 -3 -5 7 3
1532261618708075 2 2 -2 -1 -1 -1 -2 -3
1532261618731013 -3 -1 -2 -1 0 -3 0 -3
1532261618753952 -5 -2 -2 0 -1 -3 -2 -1
1532261618776890 -3 -1 -3 -1 -1 2 1 -4
1532261618858672 -2 -1 -1 -1 -1 1 -2 -3
1532261618896571 -1 0 0 1 1 -5 -4 -2
1532261618919510 -3 -1 -1 -2 -1 -1 -2 1
1532261618987328 0 -2 -3 0 -1 1 -1 -2
1532261618995307 1 0 1 0 0 -4 -3 1
1532261619009270 -2 -1 1 -2 0 1 -2 -2
1532261619039190 0 1 0 0 -3 0 -1 0
1532261619053152 -2 -2 -1 -2 -3 -2 -2 -6
1532261619099030 -1 -2 -1 -1 0 0 -4 -2
1532261619121968 -2 -1 -2 -2 0 -2 1 -1
1532261619158870 -1 -1 -1 0 -1 -1 1 0
1532261619264586 -1 0 1 1 -1 0 0 0
1532261619293510 -1 -1 -1 -2 0 3 -2 -2
1532261619354346 0 -3 -3 -1 -1 -3 0 1
1532261619399227 0 -2 -1 0 -2 1 -3 -2
1532261619459067 0 1 -1 -1 1 0 -1 0
1532261619550821 0 0 -1 1 0 -3 0 0
1532261619571766 -1 -1 -3 -2 -3 -3 -1 -5
1532261619638587 0 -1 -3 -1 -1 -1 1 0
1532261619699424 1 0 -2 -3 -1 -2 -3 -2
1532261619767243 1 1 -1 -1 -2 2 -1 -3
1532261619819103 -8 0 -2 -2 -2 -2 -3 -3
1532261619878944 1 5 -1 -1 -3 0 -2 -2
1532261619916843 1 -5 -2 -2 -2 0 -1 -4
1532261619938783 2 0 0 -2 1 -3 -1 0
1532261620038517 -1 -2 0 1 -1 -3 3 0
1532261620082400 1 2 -2 0 1 0 0 -1
1532261620149221 -2 -2 -2 0 1 -1 -4 -3
1532261620165178 0 -1 1 -3 -2 0 -2 -3
1532261620202080 1 1 -1 1 -3 -3 -1 0
1532261620262917 -2 -5 -4 -4 -3 -10 -1 1
1532261620275883 5 -3 -4 -4 4 24 -1 2
1532261620382597 0 2 -2 -2 -9 -28 -9 5
1532261620419498 0 3 -4 9 7 -1 -6 1
1532261620464378 0 3 11 15 1 -3 -1 0
1532261620502277 -11 -4 11 1 0 -5 -4 -3
1532261620609005 1 0 -17 -5 -5 -13 -5 -7
1532261620705747 3 8 25 15 20 20 -6 -1
1532261620728677 2 1 9 -15 -7 8 -5 1
1532261620751610 -2 2 -7 0 -10 -41 -2 -2
1532261620804469 2 -4 -7 -2 -39 -14 0 2
1532261620827408 5 -1 -1 -17 -1 -15 2 -3
1532261620938112 -12 -6 -3 5 25 10 5 7
1532261620983989 -13 0 20 32 -5 -16 -15 -7
1532261620997952 15 4 0 0 2 22 15 2
1532261621041833 1 3 3 12 18 4 -6 1
1532261621064773 -9 -16 2 6 -4 3 -29 -17
1532261621153536 18 1 4 7 82 62 7 7
1532261621229333 3 0 -5 -5 8 -4 16 10
1532261621253269 4 -4 -3 -9 -23 -55 -3 -2
1532261621318095 50 9 0 0 1 -41 -23 -1
1532261621416831 -6 -9 -3 -1 -33 -50 -14 -6
1532261621507588 -7 -4 -5 -7 19 11 -2 -1
1532261621642229 -6 -21 -15 -10 -11 26 21 1
1532261621785854 14 6 7 12 36 37 9 6
1532261621808796 -1 8 -14 -9 34 28 1 -6
1532261621820764 -4 -1 2 2 -13 19 -10 -1
1532261621867639 71 14 8 5 -3 41 97 44
1532261621880604 13 0 -1 -4 -6 19 -24 -4
1532261621987318 5 3 -8 5 21 28 0 -1
1532261622048155 82 14 2 2 14 -27 1 10
1532261622152889 -26 -4 2 5 0 29 -8 -13
1532261622218699 1 -14 -13 -2 -6 5 8 1
1532261622324417 -2 -4 -1 0 -3 -1 -2 -2
1532261622384256 -1 3 -1 -2 -4 -5 -1 -1
1532261622421158 -3 -5 -1 -12 1 -2 -2 0
1532261622489974 -2 -3 0 -7 0 -1 1 0
1532261622537846 -1 0 3 7 9 2 0 -1
1532261622557804 -2 0 -1 -4 -2 2 2 -1
1532261622581728 -2 0 -4 -6 -3 -3 1 -2
1532261622596689 -1 -1 0 8 -14 -6 0 -1
1532261622624631 1 2 0 -5 -4 1 -7 0
1532261622648550 0 0 -1 1 -2 -4 -3 0
1532261622713377 1 -2 -3 -3 -5 -14 -9 1
1532261622805131 1 1 -2 0 14 -6 -3 -1
1532261622818097 1 -1 -2 2 9 10 -5 -3
1532261622880928 -3 -1 -4 -3 -38 -23 -9 -3
1532261622901873 -1 0 0 -4 18 25 -4 -1
1532261622947750 0 -2 -1 -2 10 6 -5 -2
1532261622968694 -2 -3 2 2 12 6 0 1
1532261622984652 3 3 -2 -6 -8 -16 -3 1
1532261623007590 1 0 1 1 -10 -1 -1 -1
1532261623075408 -3 -3 -3 -3 -20 9 -1 -3
1532261623151206 -1 -1 -2 6 12 -12 -5 -2
1532261623164172 -2 1 -3 -1 -12 2 -1 -1
1532261623188107 2 1 0 3 10 8 2 2
1532261623217030 -4 0 1 6 4 3 5 0
1532261623237974 -1 0 -1 -2 2 4 0 1
1532261623275873 -1 0 -2 -1 0 6 3 0
1532261623358651 0 -1 1 0 -7 -11 -3 -2

1532261623478331 -2 -3 -1 -3 1 -2 -1 -1
1532261623516230 -1 -1 -3 -4 -8 -8 -2 -2
1532261623570096 -1 0 -1 2 0 1 -2 0
1532261623614977 0 1 -1 -1 -5 1 0 1
1532261623666838 0 4 0 -2 7 3 -4 -1
1532261623719696 -1 -1 0 -2 2 15 -1 -1
1532261623779536 -3 -3 0 -2 -1 3 1 -2
1532261623786520 0 -1 1 1 -8 -35 1 1
1532261623846358 -1 -1 0 -1 -2 8 0 0
1532261623937114 -4 -1 -1 -2 -2 3 -1 0
1532261623960054 -1 -1 -1 -1 -2 -1 -2 -1
1532261624004940 -1 -2 -1 2 -1 -2 -2 -2
1532261624025884 1 -2 -2 0 -5 0 -1 1
1532261624049383 -1 -2 -3 -1 -3 -2 -2 -3
1532261624086274 -3 -1 0 -1 1 2 2 0
1532261624155090 0 1 -1 -3 -1 -2 -3 0
1532261624191992 0 -2 -1 -1 -2 1 1 -1
1532261624205954 0 -2 -1 0 1 -1 -7 -1
1532261624235874 1 -1 -2 -3 -2 1 2 -3
1532261624289731 2 0 0 -1 -1 -2 -2 0
1532261624312670 -3 0 -1 1 1 -1 1 -2
1532261624325634 -1 -3 0 -1 -3 -3 -2 0
1532261624372528 0 1 -2 -1 -1 1 0 -1
1532261624410407 -1 -2 -4 -2 -1 -3 -1 0
1532261624455288 -3 -1 0 -1 0 0 -1 -1
1532261624500168 -1 -1 -2 1 -2 -3 3 1
1532261624537069 -1 -1 -1 0 1 -3 -3 0
1532261624552029 -1 -2 -1 -1 -2 1 -3 -2
1532261624574967 -1 1 0 -1 0 -2 1 -2
1532261624589927 -3 -2 -3 0 -4 1 4 0
1532261624634808 1 3 -1 0 2 5 1 -1
1532261624648771 0 -2 1 0 -1 3 0 1
1532261624672706 -3 -1 0 0 0 -5 -4 -1
1532261624694648 0 -2 0 -3 -1 -2 2 -1
1532261624708610 -2 -1 0 1 -1 1 -6 -2
1532261624754487 -3 -4 -2 -2 -1 -4 -3 -1
1532261624777426 -2 -2 -1 -1 -2 -1 1 -1
1532261624815325 1 -3 -2 -1 -2 -1 -2 -1
1532261624852226 -2 -1 0 0 0 -4 -2 -1
1532261624889128 2 -2 0 -1 -2 -3 0 1
1532261624896109 0 1 -2 -2 0 1 -4 1
1532261624956946 1 3 19 70 1 -13 1 1
1532261625016786 -1 0 -3 -5 1 -12 -8 -1
1532261625068647 0 -2 -2 5 0 34 12 -2
1532261625130482 0 -3 -4 -5 24 -3 -2 9
1532261625144444 -4 -1 0 -2 1 0 0 -3
1532261625174365 -1 -2 -1 2 -5 -4 2 1
1532261625235219 -3 -2 1 -1 -1 -10 -6 -1
1532261625271106 -1 1 -1 -1 -10 -4 0 -1
1532261625308007 -3 -1 -1 -3 -1 -6 0 -2
1532261625369842 -3 1 0 -1 -5 -4 -1 -1
1532261625380813 0 -2 -2 -1 -1 -1 -5 1
1532261625422701 1 0 -2 -1 -1 -1 1 0
1532261625428684 -2 -1 0 3 -1 1 -2 1
1532261625452621 -1 -1 -1 -2 -1 -5 -4 -3
1532261625497501 0 0 0 -1 -2 -3 -3 -2
1532261625519441 -2 0 0 -3 -3 -1 1 2
1532261625603218 3 1 -2 -1 -2 1 4 2
1532261625633138 -1 0 -4 -2 -1 -1 -3 -2
1532261625655079 2 0 -1 -1 -2 3 4 -3
1532261625699959 3 1 1 -1 1 -2 -1 1
1532261625714919 -2 0 -1 0 0 -1 0 -5
1532261625736860 0 0 0 -1 -2 0 -8 -1
1532261625751821 -11 -3 2 1 -1 -1 0 -2
1532261625774759 1 0 -2 0 -1 2 -1 0
1532261625864519 1 0 -1 -1 -1 0 -1 4
1532261625894439 -1 -2 -2 -2 -3 -5 2 -3
1532261626000157 3 -2 -1 -3 0 1 -3 -2
1532261626051020 -5 1 -1 -1 -1 -1 0 -1
1532261626118838 -3 0 -2 0 -1 2 0 -1
1532261626148759 -2 -2 -2 -2 -1 0 -3 -3
1532261626209596 -2 -2 -2 -1 -2 2 -2 1
1532261626239516 1 -1 0 0 0 0 -1 3
1532261626254476 -1 1 -3 -1 -2 -2 1 -2
1532261626276417 -2 -3 -2 -2 1 -2 -2 -1
1532261626299356 1 -1 -1 0 -2 -3 -1 -1
1532261626336260 -1 -2 -1 -1 0 -1 -2 -2
1532261626375154 -4 -2 -2 0 -1 1 -3 -1
1532261626443970 0 -1 -2 0 -2 -2 -2 1
1532261626487852 1 -1 0 -2 -2 -1 2 -2
1532261626502812 0 -1 -2 0 0 -1 0 0
1532261626562652 -1 -2 0 -2 -2 -2 -2 -1
1532261626576615 -1 0 -1 -3 -3 -1 -2 -1
1532261626636454 -2 -2 -6 -9 -2 -7 -1 0
1532261626675351 -2 0 -4 -14 -48 -19 -7 0
1532261626734194 1 1 3 -8 3 -1 1 0
1532261626765110 0 1 7 24 33 -5 -1 0
1532261626787052 -1 -2 0 -30 -6 -2 0 -2
1532261626816972 1 -1 3 -18 -3 -9 -2 1
1532261626838914 -2 -3 -3 0 16 0 1 0
1532261626855880 -3 -2 -1 2 8 -14 -14 -6
1532261626884791 -1 -1 1 4 -10 3 2 0
1532261626898753 1 2 7 -1 -8 -1 4 -1
1532261626914711 -1 1 0 12 3 2 -12 -3
1532261626951611 -2 -4 -7 -22 -20 0 -1 -2
1532261627006466 -1 -1 -1 8 8 7 -3 -1
1532261627098220 0 0 1 2 7 -1 5 2
1532261627118173 0 -5 3 3 -1 -3 3 0
1532261627139124 1 5 4 0 -13 -1 1 0
1532261627328603 -2 -9 0 -2 -11 -26 -4 -1
1532261627343564 -1 39 6 0 -4 8 -1 -2
1532261627366503 1 -11 -1 5 0 -6 5 0
1532261627402407 -3 -5 0 -4 -2 -1 0 0
1532261627454268 0 -9 -2 3 -4 -7 -2 1
1532261627485185 1 0 -2 -3 -2 -6 0 5
1532261627546023 -3 -6 -1 0 -9 -24 -6 0
1532261627574945 -3 -6 -1 3 0 6 -2 -2
1532261627658721 0 1 1 0 -4 -2 3 3
1532261627702604 -3 1 -1 -3 -12 -30 -4 1
1532261627739506 2 3 0 0 -10 -13 5 -1
1532261627898081 3 -3 -3 -1 -2 1 -2 -2
1532261627922017 1 0 0 -2 -10 -6 -1 0
1532261627935980 2 7 -6 -8 -2 -4 -3 -2
1532261627942961 1 -3 0 1 6 4 2 -3
1532261627979862 -1 6 1 -2 -4 2 -2 -2
1532261628003798 -3 13 -2 -2 -1 -2 -2 -4
1532261628062641 -1 1 -1 -2 1 -1 -1 3
1532261628092561 -1 0 -1 0 -2 0 0 -1
1532261628146417 1 -1 2 -1 0 0 0 0
1532261628166364 2 1 2 1 2 0 -2 -1
1532261628182321 1 -1 0 -1 -3 0 -7 -1
1532261628204262 -1 0 0 0 -1 -11 -2 -2
1532261628241164 -1 0 0 -4 0 -5 2 0
1532261628302999 -3 -5 2 7 4 -8 -3 -2
1532261628339900 -2 -11 -5 -3 -1 -12 -10 -3
1532261628384780 -5 6 2 5 18 25 -7 -5
1532261628422679 5 6 2 2 -2 -7 2 5
1532261628474540 -4 -6 0 0 1 -1 0 0
1532261628527412 3 4 0 -3 0 -2 1 0
1532261628572278 2 4 -2 -3 3 17 4 1
1532261628593222 -8 -2 0 -1 -1 6 -4 -2
1532261628617173 -3 -1 1 3 10 -24 -1 0
1532261628638102 -1 -2 0 2 -8 -16 1 -1
1532261628670017 0 -4 -1 -2 -4 -8 -2 1
1532261628722875 0 -4 0 -1 -4 -2 2 -1
1532261628744817 -2 0 -1 -2 9 22 -1 -1
1532261628758779 -1 -1 -3 -6 -6 8 -2 2
1532261628782715 -5 2 2 -1 -2 -3 -4 -1
1532261628804656 -2 -8 -3 0 -3 -2 -2 -3
1532261628842556 2 -1 -2 -2 -1 4 -4 -2
1532261628887436 -1 -8 -5 -1 0 2 -1 1
1532261628932315 -2 -2 -3 -2 3 -3 3 4
1532261628979207 -2 -3 -1 -1 -1 -5 0 -2
1532261629001131 -2 2 -3 -1 3 5 0 -1
1532261629030054 -3 -1 1 -1 -1 -1 1 4
1532261629066956 -5 2 0 -1 -4 -4 0 -5
1532261629104854 -1 0 -1 -1 -1 0 -1 -3
1532261629171675 0 0 -2 -3 -4 -4 2 1
1532261629224534 2 -3 -2 1 -2 -2 -3 0
1532261629262433 -2 -4 -1 0 2 1 0 -1
1532261629345211 12 9 -1 -2 -2 -2 -3 3
1532261629494811 0 0 -1 -1 0 -1 -4 -3
1532261629509772 -1 -1 -1 0 -1 -3 3 -1
1532261629562630 -1 0 -4 0 -2 -2 -1 1
1532261629584571 -1 -1 -2 -3 -1 1 -5 -2
1532261629620482 0 3 0 1 -2 -3 -3 -3
1532261629644411 -2 -3 0 -1 -2 -1 0 -2
1532261629667362 -1 -3 -1 -2 -1 -2 -1 0
1532261629705249 0 -2 -1 0 -3 -3 -1 0
1532261629750129 3 -1 -3 -2 -2 1 -5 -5
1532261629795009 -1 2 -1 -1 2 -3 0 -4
1532261629831910 -5 -1 0 -3 -2 -1 -1 -2
1532261629846870 -2 -1 -1 -2 -2 -1 0 1
1532261629869809 1 -2 0 -2 0 -3 0 -1
1532261629907707 -1 0 0 2 0 1 -1 -3
1532261629920673 -1 -1 -1 0 -2 -1 0 1
1532261630003451 -2 -2 0 -2 0 -1 2 0
1532261630157041 -2 0 -2 0 -1 0 -3 0
1532261630229845 2 1 1 -1 -1 0 0 0
1532261630326587 -1 2 -1 0 -1 0 -2 -5
1532261630370470 -2 -2 0 0 0 -1 1 -1
1532261630424326 -1 1 -1 -1 -1 -4 -1 -3
1532261630440283 -1 -2 -1 -2 -1 1 -1 -2
1532261630559962 0 -5 -1 0 -2 0 -2 -5
1532261630588895 -2 -3 0 0 1 -2 1 0
1532261630641744 0 1 0 -1 -1 -1 0 1
1532261630673659 0 0 -2 -1 -1 -1 1 -1
1532261630709563 -1 -2 -2 0 0 0 0 2
1532261630723526 -2 -3 -2 -3 -2 -1 0 1
1532261630769403 0 0 1 -1 1 -1 -3 -1
1532261630829243 -1 -1 -1 -1 -1 0 -1 -1
1532261630882101 -1 -2 1 -1 -1 -1 0 1
1532261631047659 -2 -1 -3 -1 -1 2 0 -1
1532261631114480 1 2 -3 -2 -2 0 0 1
1532261631272073 -1 -2 -7 -11 9 -6 -3 -1
1532261631316952 1 -1 1 7 0 -6 2 -1
1532261631345861 -1 -2 -2 -6 6 5 -8 -3
1532261631399718 0 1 -2 7 2 -25 1 0
1532261631437616 1 4 4 10 -6 -49 -11 -1
1532261631458560 -1 -4 -14 -11 -2 -2 0 0
1532261631526378 0 3 11 2 -4 -9 -1 -1
1532261631572256 -5 -10 -26 -10 -47 -19 -4 1
1532261631610154 -10 -25 -35 -16 -39 -34 -10 -9
1532261631632096 0 -2 -62 14 11 -6 3 2
1532261631646059 3 2 -3 0 -10 18 12 4
1532261631700912 3 2 -41 -45 -17 7 12 0
1532261631720859 5 30 51 21 8 -3 -20 -13
1532261631739808 -21 -13 -48 0 3 -2 6 -1
1532261631760752 -30 -4 -16 -20 10 13 7 3
1532261631783691 -1 -5 -20 -26 -13 -35 -5 1
1532261631806638 3 3 -3 2 -1 18 -11 -2
1532261631842533 3 -20 -3 -9 6 2 11 8
1532261631857494 2 5 4 2 -8 -4 8 -2
1532261631888411 -3 4 8 -9 32 -6 0 -3
1532261631902374 -6 -16 -10 3 -5 -1 13 1
1532261631923333 -64 -7 -5 -9 -21 -13 6 -8
1532261631938277 -66 -9 4 5 3 13 -3 -3
1532261631971189 39 1 -9 -8 -13 -15 -8 3
1532261631993137 20 1 -2 1 17 15 -3 6
1532261632039008 -12 -2 0 -2 -38 -68 -14 -3
1532261632090876 17 -17 2 -5 -13 6 0 0
1532261632106827 9 3 4 -7 -11 -12 -6 1
1532261632134752 -6 -4 -1 -3 14 10 10 9
1532261632171653 -2 2 5 3 12 3 -7 -6
1532261632202571 -7 -1 2 -4 -46 -21 -16 -13
1532261632248448 -4 2 4 6 8 0 4 1
1532261632331227 7 8 -5 -9 -20 -2 4 1
1532261632338207 4 0 -7 -10 11 5 3 -1
1532261632411013 -23 -3 7 1 -2 10 -8 -1
1532261632456891 4 -6 -5 3 35 20 8 -1
1532261632524709 1 -2 -1 2 42 65 13 1
1532261632568592 1 9 -2 -9 -60 7 13 2
1532261632614469 -101 -9 -9 -7 -29 -8 -35 -7
1532261632652368 19 3 1 -2 -16 -25 7 -4
1532261632674309 4 -1 -7 -2 -21 -10 -2 -10
1532261632688272 -4 5 0 7 33 20 7 -6
1532261632697266 -1 -2 -4 0 0 -12 -3 4
1532261632721183 -97 -18 -11 -7 12 -20 -13 -16
1532261632748112 18 4 -8 -14 -38 -15 -10 -1
1532261632772047 1 -3 1 -2 -6 10 1 -3
1532261632794986 -27 -2 -2 1 19 19 9 -4
1532261632839867 -17 -4 8 7 18 32 8 0
1532261632854827 -11 15 4 -9 79 -23 0 -8
1532261632868789 0 -8 -3 8 -22 -8 -5 0
1532261632891728 0 -7 -5 2 -17 -13 16 1
1532261632914666 -19 -1 4 16 0 -14 -9 5
1532261632928628 99 5 -1 0 -5 18 -7 9
1532261632974506 -29 -7 -7 -14 -21 2 -6 -9
1532261632988469 -8 -3 -1 0 -17 -20 3 3
1532261633011408 19 3 3 1 21 59 14 11
1532261633081221 21 2 3 3 10 67 11 3
1532261633156020 -10 -3 1 0 5 33 -6 0
1532261633170981 5 5 1 -4 -66 -53 -5 -2
1532261633199904 2 0 6 28 47 44 4 2
1532261633250767 -1 -2 -4 -5 -3 4 -1 -1
1532261633310608 -1 -2 0 2 -2 -13 0 0
1532261633381418 0 6 3 -1 2 3 -1 0
1532261633472187 -4 -4 -4 0 -9 4 4 -2
1532261633484144 -1 0 1 9 12 2 1 -2
1532261633530020 0 -3 -4 1 9 -5 -3 -2
1532261633567945 -2 -1 -3 -7 1 -35 -6 -1
1532261633612800 -3 0 1 -2 -16 -3 -7 -1
1532261633655685 1 0 4 1 18 4 -1 -1
1532261633678624 -1 0 0 3 3 8 -1 1
1532261633708543 -2 0 -1 0 0 -12 -2 1
1532261633724501 1 -1 -4 -6 34 13 3 -1
1532261633747440 1 4 2 5 3 -20 -2 1
1532261633769381 -3 -3 0 -1 -30 -16 -3 0
1532261633791321 -2 3 1 2 3 5 -3 -4
1532261633908011 1 0 -2 -10 -22 -7 4 0
1532261633912997 -2 2 -2 3 8 10 -1 0
1532261633964858 -2 -1 -1 -1 5 6 -2 -1
1532261634025695 1 2 2 2 5 1 3 0
1532261634030683 0 1 -2 0 2 -3 1 -2
1532261634069588 -5 -1 -3 -1 -4 13 -4 -7
1532261634122448 -1 -3 -1 -1 2 -50 -4 -4
1532261634175295 -2 -3 -1 -1 -7 -10 -1 -3
1532261634219178 -6 1 -1 -1 -3 0 9 0
1532261634258074 0 0 -1 -2 -2 0 -5 -2
1532261634288002 -2 -2 -1 -1 -1 15 1 0
1532261634347838 -6 -1 1 0 3 18 7 0
1532261634368777 -5 -1 -4 -3 1 -8 -6 -3

1532261634399695 -4 -1 -2 -1 -3 -2 0 -1
1532261634468511 -1 -4 -4 -4 2 25 3 -2
1532261634482474 -2 2 0 2 20 13 -2 -2
1532261634527430 4 -1 -1 2 16 -61 -8 0
1532261634556353 -2 -1 -1 -2 -16 -1 -3 7
1532261634579291 -4 0 -1 -2 -9 -6 -7 -2
1532261634639148 2 1 1 0 -1 16 3 -1
1532261634653094 0 -2 0 -1 -10 -7 0 -3
1532261634721910 -1 0 -1 -2 -2 3 0 -2
1532261634758811 -1 -1 -1 1 -2 -6 -1 -1
1532261634856550 -2 1 0 1 0 -2 -10 -2
1532261634962722 0 -2 -1 0 -1 -6 3 0
1532261635022562 -2 0 -2 0 -1 -2 -1 -1
1532261635044503 0 -2 -3 -1 0 7 3 -1
1532261635096364 -3 -1 -2 0 -3 -5 -2 -2
1532261635142241 -2 -2 -1 -1 -2 1 1 -2
1532261635180140 2 0 0 -1 -2 -3 -1 0
1532261635216044 -5 0 -3 0 -2 8 2 1
1532261635276881 -1 -3 -1 -2 0 2 6 1
1532261635299820 0 -1 0 -2 -1 0 -2 -1
1532261635321761 -2 -3 -1 -1 1 -4 7 -1
1532261635352678 -1 0 -1 0 0 -3 -6 -4
1532261635367640 -4 0 -2 0 -1 -9 -2 -2
1532261635382598 1 -1 -2 0 0 3 0 2
1532261635404541 0 -1 -1 -1 -3 -3 0 1
1532261635419500 0 0 -2 -1 -2 -6 -5 1
1532261635442439 10 -2 0 -1 0 8 3 -4
1532261635479340 -3 -1 -2 -2 1 -9 -3 -1
1532261635502279 -4 -4 -1 -1 0 7 0 1
1532261635525217 0 -1 -2 -1 3 3 -3 -1
1532261635540177 -2 -2 -2 -2 -2 -2 0 0
1532261635562119 -2 -2 1 1 -1 -12 -5 -5
1532261635576081 -2 0 0 -2 -2 5 -6 -1
1532261635606009 0 1 0 -1 1 -6 -2 1
1532261635621963 -1 0 -2 1 -3 -4 1 1
1532261635659857 -1 -2 -4 -6 1 18 7 0
1532261635681799 -2 0 -4 -8 -32 -59 -8 0
1532261635695761 -3 -2 -1 10 22 29 -9 -2
1532261635718700 -1 -1 -2 -8 -4 -8 -3 -3
1532261635742635 10 -2 -2 0 -4 -14 -1 1
1532261635764577 1 -2 -2 -3 2 10 1 -1
1532261635802476 0 -3 1 2 0 -2 0 -1
1532261635824417 -3 -1 -2 -1 2 2 0 0
1532261635853340 -3 -1 0 0 0 -1 -1 -1
1532261635876279 -1 0 -3 -1 -1 -6 2 0
1532261635900215 0 0 1 -2 -1 -6 -3 2
1532261635945095 -1 -4 0 -1 1 -2 3 -1
1532261635961052 2 0 0 0 -1 -6 -1 -1
1532261635981995 -1 0 -2 -1 0 0 -4 -1
1532261636004935 0 -1 0 -2 -3 0 0 -2
1532261636064774 -3 1 1 0 -1 -2 -2 -5
1532261636078737 -3 -1 -2 -1 -1 1 9 1
1532261636177473 -1 0 -2 -1 -3 3 -7 -2
1532261636230332 -3 0 -1 0 -1 3 -1 -2
1532261636290172 -8 0 -1 -1 -2 0 -2 -3
1532261636403868 -1 0 -1 -1 -2 -4 -3 -6
1532261636440769 6 -2 -1 -2 1 5 2 1
1532261636633254 -1 2 -1 0 -2 -2 0 -1
1532261636695089 4 -1 -2 -2 0 5 -2 1
1532261636784849 -2 -1 -1 -1 0 -9 -3 -5
1532261636792827 -2 0 1 0 -1 6 2 -1
1532261636822748 -3 -1 -2 -2 0 -2 -1 -2
1532261636844689 1 -2 -2 0 -1 5 9 6
1532261636867627 -4 0 -1 -1 1 6 4 -1
1532261636934449 0 -1 0 0 0 -4 -1 0
1532261636957387 -8 0 -2 -1 1 5 1 -5
1532261637012241 -3 -1 0 0 -1 -5 -3 0
1532261637039169 0 -1 -2 -1 1 10 3 -1
1532261637070086 -2 -1 0 -1 1 -13 -1 3
1532261637084049 0 -2 -1 0 0 -3 -1 -1
1532261637114966 -2 1 0 0 -2 0 -2 -2
1532261637121948 0 -1 -1 -2 -1 -3 -2 -1
1532261637219686 0 -1 -1 -1 -1 2 -3 -2
1532261637241627 -1 1 -1 -1 -1 -8 -2 -1
1532261637295483 -3 -1 1 -2 -1 -6 -2 -2
1532261637318422 0 0 -1 1 -1 3 2 -4
1532261637338369 -1 -2 -2 -4 -2 2 -1 -1
1532261637361307 -2 0 -3 0 0 -2 1 -1
1532261637384246 3 -4 -2 -3 0 0 -8 -4
1532261637413169 1 -2 -1 -1 0 0 -1 -2
1532261637497949 -2 -3 -3 -2 -9 -10 0 -2
1532261637578726 -2 -1 -7 -16 -10 -29 -5 -2
1532261637602662 -2 0 5 42 -18 -2 -1 -2
1532261637624603 2 -2 -9 -24 -4 -5 0 0
1532261637630587 0 -2 -1 5 14 -1 -1 -1
1532261637648539 4 4 11 -5 -17 27 8 4
1532261637669483 0 -2 -6 11 13 4 10 4
1532261637700401 -1 0 2 8 7 -4 4 2
1532261637721345 -1 -2 3 19 23 22 -2 -3
1532261637873937 -1 -2 -1 1 6 7 -5 -6
1532261637888897 0 0 6 -1 -1 6 -2 0
1532261637948747 -5 -2 -4 -7 -27 -13 4 -1
1532261637969681 -2 -5 -11 -2 7 11 -4 -3
1532261637983643 -1 1 -1 0 -7 -7 2 -2
1532261638128256 1 2 2 5 21 4 0 -2
1532261638203056 -1 -2 -3 -8 -15 2 0 -2
1532261638225995 -2 17 1 4 14 11 -2 -3
1532261638248934 1 3 3 0 -2 1 -1 -4
1532261638358641 1 0 -1 1 -6 -6 3 -2
1532261638481312 -7 -6 -6 -1 3 12 -1 -6
1532261638488294 -4 -18 -2 0 -10 -10 0 12
1532261638592017 -19 -2 -3 -3 5 4 2 -11
1532261638653851 11 -4 0 1 -5 -10 2 -4
1532261638668814 3 0 -3 -3 0 -6 -6 -11
1532261638711697 2 -2 -3 -2 2 2 2 1
1532261638758571 -2 -1 0 -1 -12 -8 -5 -7
1532261638772534 3 -1 -1 1 2 2 0 10
1532261638794475 17 4 2 -3 -8 -10 1 10
1532261638817414 -1 16 3 4 19 9 -2 -5
1532261638871270 -6 -10 -5 -2 -6 -4 -5 -5
1532261638953050 16 0 2 -1 3 20 -2 -2
1532261639013888 -4 0 0 0 -1 -1 -1 -2
1532261639034832 -1 2 -1 0 1 10 -7 -1
1532261639055793 1 -1 0 -1 -6 0 -2 -3
1532261639085696 -5 -8 -8 -31 -31 0 -8 -3
1532261639094684 0 -1 -4 -13 -6 5 0 -2
1532261639118618 1 1 1 -4 -6 21 -5 0
1532261639200390 6 4 1 9 4 -11 8 10
1532261639243275 -9 -10 -12 -19 -3 -36 0 -4
1532261639266213 -2 -4 1 3 34 16 7 4
1532261639290149 -5 -6 -2 9 -8 35 1 -3
1532261639320070 4 6 -3 -7 -14 2 -6 -1
1532261639348992 -2 -3 -1 -7 -8 10 -12 1
1532261639370934 6 -6 -8 0 11 -37 -1 2
1532261639394869 -7 -6 -1 -1 -1 4 0 0
1532261639409830 0 0 -1 3 14 12 8 1
1532261639431771 -1 2 -3 -3 -21 -6 1 -2
1532261639445734 1 3 -1 2 -1 -32 -3 0
1532261639470666 -6 0 -3 -4 -9 -3 -3 -2
1532261639484630 -1 2 3 6 -10 -10 -4 0
1532261639507568 1 -4 -2 -1 3 4 -3 -3
1532261639514550 0 -2 -2 -3 -2 0 2 0
1532261639552447 -2 -2 -1 -6 -1 8 -1 -1
1532261639566411 14 8 4 6 10 -4 -4 4
1532261639589349 -5 -2 -1 -2 -8 2 3 -3
1532261639619270 -3 -5 -3 -6 1 19 3 -1
1532261639626251 -4 -1 0 0 -4 -7 5 -1
1532261639649190 0 -1 0 1 2 -9 2 2
1532261639672128 -1 0 -2 -4 -4 2 -3 -5
1532261639717008 5 1 -1 -1 -5 -7 -7 1
1532261639737952 0 -1 0 -3 -1 3 0 0
1532261639762886 1 -3 -2 0 3 -1 -2 0
1532261639802796 0 0 1 -1 -2 -1 1 4
1532261639823723 1 0 -1 0 -2 -8 -10 -2
1532261639837685 0 -2 0 0 5 -1 -1 1
1532261639852645 2 1 -1 -2 -2 -3 2 -1
1532261639874587 0 0 -2 -4 -1 -4 0 -1
1532261639912485 4 -1 -1 3 2 -3 -5 0
1532261640008229 3 1 1 -3 1 8 -6 -5
1532261640040144 -1 -7 1 -2 -1 -5 6 1
1532261640078044 -1 3 1 -1 -2 -2 -3 -8
1532261640143866 -1 -3 -1 2 3 5 -5 -4
1532261640295461 -3 2 0 2 -1 4 -9 -3
1532261640332363 -2 -1 -1 -1 2 2 0 1
1532261640338346 -2 -3 2 -2 -1 2 1 -2
1532261640422122 -2 -1 -1 -1 -2 2 1 0
1532261640511894 -1 0 -1 0 1 5 2 0
1532261640654501 -2 -3 -2 -2 -2 -2 -2 -1
1532261640691402 1 -1 0 -1 1 -2 2 0
1532261640796706 -3 -3 0 -2 -1 -3 -2 -4
1532261640894445 -2 1 -1 -1 -2 -2 -3 -1
1532261640954284 -2 -1 0 2 0 -1 -6 2
1532261641014125 -1 -1 -2 -5 -4 -5 -1 -2
1532261641149762 -2 -1 0 -1 -3 1 3 -1
1532261641196637 -1 2 -2 -5 -3 -2 -5 -5
1532261641262461 -5 -4 -2 -2 1 1 1 -1
1532261641314322 -1 -1 0 -1 -1 -2 -3 0
1532261641419042 -2 -3 -3 -3 -2 1 -1 -3
1532261641441980 -1 0 -1 -1 -1 1 -4 -1
1532261641478881 1 0 0 0 -1 0 0 -2
1532261641516781 -3 -2 -1 -1 -2 -3 4 7
1532261641659399 0 -2 -2 -1 0 0 -2 1
1532261641706274 -2 0 -1 -1 0 -1 1 -1
1532261641899757 0 -2 -2 0 -3 -1 -2 -1
1532261641974556 -3 0 -3 0 -1 -3 0 -2
1532261642019436 -2 1 0 -1 -3 -3 2 -2
1532261642064316 -1 1 0 1 -1 0 2 0
1532261642079276 1 0 -2 -2 -3 -1 -9 -2
1532261642116177 -2 -2 0 -1 -1 -2 -3 -1
1532261642140113 -2 0 -1 -1 1 -5 -3 -1
1532261642176018 -1 1 0 1 -1 0 0 -1
1532261642214914 0 -1 -1 -2 0 1 1 2
1532261642296695 0 0 1 -3 -2 -4 -1 -2
1532261642333596 0 0 -2 -2 0 1 -2 -2
1532261642356535 -2 -1 0 0 0 -2 -1 -3
1532261642416375 1 0 -1 2 0 0 2 0
1532261642492172 -1 -2 0 -3 -2 -2 -2 -2
1532261642553009 -2 -2 0 -1 0 0 0 -1
1532261642581932 -1 -1 0 -1 2 1 2 3
1532261642596902 0 0 -1 -2 -1 2 -1 -1
1532261642619830 -1 2 0 1 -1 0 -6 -2
1532261642656732 0 -2 0 4 2 1 1 -2
1532261642679682 0 0 -2 -2 -4 -1 1 -1
1532261642724551 -2 -2 -2 -4 0 10 3 1
1532261642740508 -2 -2 0 0 -1 6 1 1
1532261642822289 -2 -2 -5 -20 -6 0 0 0
1532261642897089 0 0 2 15 11 15 1 -1
1532261642956929 -4 -3 -8 -4 -16 -2 -8 -1
1532261642979868 -1 -7 5 -4 22 -1 -1 0
1532261643001809 0 -2 -8 -1 4 4 1 -1
1532261643024747 -2 -5 -3 -9 -11 -22 -1 -5
1532261643062647 -2 -4 -1 31 -8 6 2 0
1532261643092566 5 8 4 6 11 -3 4 4
1532261643098550 -1 0 16 1 -9 -16 -2 -1
1532261643129468 2 9 4 -22 -25 -55 -2 -1
1532261643162380 -4 -11 7 -5 27 -8 -1 -4
1532261643198284 5 6 11 6 74 12 4 3
1532261643221222 1 15 43 18 29 8 -9 -1
1532261643242167 7 1 -6 -7 -13 -25 -17 -5
1532261643256129 17 -6 -31 -42 -15 -42 -17 -1
1532261643317964 -24 21 13 14 12 12 -1 -4
1532261643332941 -24 -52 -13 -11 -8 24 -3 -1
1532261643369825 -4 -13 4 1 25 2 -2 2
1532261643414705 -13 -9 -4 -4 49 48 -7 -3
1532261643437643 2 26 7 4 -84 -36 -2 -5
1532261643444625 -26 -20 -8 2 47 20 -5 -8
1532261643459585 7 -4 -1 -7 11 -11 5 6
1532261643474545 -2 -15 -11 -8 -5 13 20 -1
1532261643504466 22 1 -6 0 -27 -27 -66 -18
1532261643542364 23 -1 -3 -8 0 -17 3 4
1532261643565302 -16 24 2 -1 19 -9 9 -2
1532261643579265 -21 -21 -2 2 4 4 14 0
1532261643641100 -6 -35 5 9 24 60 14 6
1532261643690966 9 0 1 -1 33 42 2 3
1532261643753798 -3 -13 -3 -2 35 -10 -8 -5
1532261643767760 31 -37 0 7 14 9 31 18
1532261643806662 -51 11 -4 -6 9 5 19 3
1532261643810646 -17 -5 1 -5 2 -7 1 3
1532261643879462 -8 10 -12 -3 2 3 1 0
1532261643962241 -7 3 -5 -3 29 7 10 3
1532261644052000 68 8 -5 -6 -29 3 0 35
1532261644081921 -14 -17 -6 -16 4 -11 -29 -11
1532261644104860 -40 -6 0 1 3 18 6 -2
1532261644142758 -2 7 7 9 20 22 -6 -7
1532261644164699 0 0 -7 -8 -8 7 -12 -14
1532261644248476 0 10 11 2 -15 -14 -1 5
1532261644268422 0 -3 1 2 -31 0 7 6
1532261644313303 -1 -9 2 -9 -11 -44 12 3
1532261644352197 -16 -5 -3 -21 13 25 32 5
1532261644381121 7 0 3 5 25 -32 -9 -1
1532261644503793 7 6 2 -1 -20 -25 5 0
1532261644541698 1 -2 0 2 25 -26 4 2
1532261644562642 -18 -38 -2 -10 -20 -62 -29 -15
1532261644584577 4 4 0 0 5 30 4 2
1532261644607515 13 -6 2 4 7 27 13 8
1532261644667355 -3 -3 -5 0 -12 6 28 17
1532261644735174 -2 2 -4 -11 1 -7 12 4
1532261644818950 1 -4 -2 6 4 3 -5 -2
1532261644860838 -4 -4 -1 2 7 2 4 -1
1532261644907713 -2 1 -3 -1 -2 -3 -1 -1
1532261644922673 1 0 -2 -1 -2 1 0 -3
1532261644981515 -1 -3 -3 -4 -6 -4 0 -1
1532261645028390 -4 -2 -2 -5 -1 -2 1 0
1532261645049334 -1 -1 -1 -1 -6 -1 -2 0
1532261645073270 0 0 -4 -8 -3 0 1 -1
1532261645101195 -2 -1 2 4 1 -1 0 1
1532261645125131 2 -3 -4 -4 5 -1 -1 -1
1532261645161036 -2 -2 3 11 3 -1 -1 0
1532261645206916 -3 0 -3 -7 1 14 2 -1
1532261645243815 -1 0 -1 -1 15 -14 -1 -1
1532261645327589 -1 -1 -2 2 -13 -11 0 -2
1532261645349531 -1 -2 -2 -4 8 7 2 0
1532261645371473 -1 -1 -1 4 27 17 2 0
1532261645389444 -1 1 -2 -12 -19 -10 -3 -2
1532261645424331 0 -1 -1 -1 2 -1 -9 0
1532261645469253 0 -1 2 2 -3 0 7 1
1532261645491194 -1 -4 0 -2 -6 -18 -1 0
1532261645516128 -3 -2 -5 -3 10 12 -5 -2
1532261645539067 0 -2 1 1 -14 41 0 -1
1532261645565994 -2 -1 -2 -5 16 18 1 1
1532261645589931 -1 -1 -2 -4 -2 2 -4 -1
1532261645627829 0 -5 -1 -3 -13 -7 -4 -2
1532261645651765 -1 0 -1 -2 -4 -11 0 -1
1532261645687669 -2 0 -1 -1 7 7 -1 0
1532261645709610 -1 -1 0 -2 6 5 0 -1
1532261645747509 -2 -3 -2 -2 -2 -1 4 -1
1532261645800368 1 0 -2 0 -2 11 1 -3
1532261645851231 0 -1 1 -1 -1 -5 -1 -3
1532261645891125 -1 -1 0 -1 -1 -1 -2 -3
1532261645914064 -2 -2 -1 -1 0 1 1 -2
1532261645936005 -1 0 -1 -2 1 0 2 -2
1532261645949968 -1 0 -3 -1 -1 -4 -2 0
1532261645962935 -2 -1 0 -1 -5 -1 -6 -1
1532261646062666 0 0 0 -2 1 0 5 -2
1532261646092586 0 -1 -1 -1 -2 -4 -8 -1

1532261646145445 -2 -1 -2 0 2 1 0 -1
1532261646212266 -1 0 1 0 -2 0 -2 0
1532261646227225 1 0 -4 -1 -3 5 -4 -2
1532261646263130 -1 -2 0 -1 0 2 -1 -2
1532261646331946 -1 1 0 0 0 -2 -1 0
1532261646376826 -1 0 0 0 -1 1 -3 -2
1532261646444645 -3 -1 -2 1 1 1 0 0
1532261646512463 -1 -1 -2 -3 -3 1 1 0
1532261646526429 -2 -2 1 0 0 2 3 -2
1532261646572303 0 1 0 0 -1 -1 0 -1
1532261646610202 -1 -2 -1 -2 0 0 1 0
1532261646669044 -1 -1 -2 -2 -2 -1 -1 -1
1532261646699962 -2 -1 0 0 0 -1 -4 0
1532261646712928 -1 0 0 0 1 -3 -2 0
1532261646768778 -1 -1 -1 -2 -1 -1 -2 0
1532261646782741 -1 -1 -1 -1 1 0 -1 0
1532261646872501 0 -2 -1 1 2 -1 -1 0
1532261646909418 -2 -1 -2 1 -2 0 -4 0
1532261646962277 0 1 -1 0 0 0 0 0
1532261646992196 -3 0 -18 0 -1 -2 -2 -2
1532261647006177 -1 0 26 -2 -1 -2 -2 1
1532261647060015 -1 -1 -2 -3 -1 -1 1 -2
1532261647065999 -1 0 -4 0 -1 -3 -1 -1
1532261647111877 -1 0 -3 -1 -2 -3 -3 2
1532261647134544 -1 -2 -2 -1 0 -2 1 0
1532261647171446 -2 -1 -1 0 0 -3 -1 -1
1532261647245803 -2 -3 -1 -1 -2 0 1 -1
1532261647293675 -1 -1 -2 -2 -4 -2 -2 0
1532261647316621 0 -1 -2 -1 -2 -1 -2 0
1532261647351520 -1 0 -1 -1 0 -1 -1 -1
1532261647359499 -1 0 -2 -3 0 -2 0 0
1532261647412357 -2 0 -2 -1 -1 -3 0 0
1532261647449258 0 0 1 -1 -2 -3 -2 -1
1532261647472224 -2 -1 -2 0 0 -1 -2 -1
1532261647629803 0 -1 0 1 -1 1 -1 0
1532261647674683 -2 -2 1 0 -1 -3 -1 0
1532261647697622 1 -2 -3 -1 -2 0 -1 -1
1532261647742502 -1 0 -1 -2 -2 -2 -1 -2
1532261647764443 0 -1 0 -2 -1 1 0 0
1532261647825281 -1 0 -1 -2 -2 1 1 -3
1532261647877142 -3 0 -1 -2 -1 -1 0 -1
1532261647915040 -1 -1 -2 -1 -1 -1 -4 -2
1532261647951941 -2 1 -1 -2 -3 -1 -1 -1
1532261647973882 -1 -1 -2 -1 -1 -4 -1 0
1532261648042717 -2 -3 0 -1 -1 0 0 0
1532261648126494 -1 0 0 -1 -1 1 -1 0
1532261648138461 -1 -2 -2 -1 -2 -1 -2 -1
1532261648176361 -1 -2 -1 0 0 1 -3 0
1532261648214259 0 -1 -1 -2 -3 0 -2 -3
1532261648236200 0 0 -2 -3 -1 -2 -2 -1
1532261648274099 -1 -1 -3 -1 -2 1 1 0
1532261648441651 -2 -1 -2 0 1 -3 -3 0
1532261648446637 0 -1 -2 -1 0 -2 -1 -2
1532261648476560 0 -1 0 -1 0 -3 -2 -1
1532261648514456 -2 -1 -3 -2 -1 0 -2 -1
1532261648628151 -2 0 -1 1 -1 1 -1 0
1532261648649096 -2 -2 -1 -2 -3 2 3 0
1532261648716914 -2 -2 -2 0 1 0 0 -1
1532261648753816 -2 -1 -3 -1 0 0 -2 -1
1532261648813656 0 -3 0 -2 0 -2 -2 -1
1532261648836594 -2 -2 -4 -1 0 -1 -1 -1
1532261648890450 0 1 0 -1 -3 0 1 -1
1532261648934332 -1 -1 -1 -2 -2 -2 -2 0
1532261648981207 -3 0 -2 -1 2 0 -2 -1
1532261648987192 -1 -1 -2 0 0 -1 -3 -3
1532261649016115 0 -1 -1 0 -2 -2 -1 1
1532261649040050 0 -2 0 0 0 -1 -4 -3
1532261649076953 -3 -1 -3 -1 -1 0 1 2
1532261649090916 1 0 -1 0 -2 -1 2 -2
1532261649153746 0 -1 -2 0 -1 -1 -2 -1
1532261649175687 -1 -2 -2 0 0 0 -2 1
1532261649196631 0 -3 -1 -2 -1 1 -3 -1
1532261649236528 -3 -2 1 0 0 0 -1 0
1532261649259463 0 0 0 -2 -1 -1 -2 -3
1532261649281404 1 0 0 -2 0 -3 1 0
1532261649302360 0 -1 -1 -2 -3 -1 -1 0
1532261649317309 0 -1 -1 1 0 0 -1 -1
1532261649340249 -3 -1 -2 -1 0 -1 -1 -1
1532261649361192 -1 0 -2 -1 -2 -1 0 1
1532261649385128 0 1 0 -1 -1 -1 -2 -2
1532261649444967 -1 0 0 -1 1 -1 -3 0
1532261649520764 0 -1 0 -1 0 0 -1 0
1532261649526749 -3 0 0 2 -1 -2 -1 -3
1532261649556686 -1 0 -1 -3 -1 0 0 0
1532261649579608 -2 -1 0 -1 1 -3 0 -2
1532261649624487 -2 -2 0 1 -1 0 -2 -1
1532261649640445 -1 -2 -1 -2 1 4 -1 1
1532261649684328 1 -1 -2 0 -1 0 -2 -1
1532261649722226 0 0 -1 0 0 0 -1 -2
1532261649777080 -1 0 -1 -2 -1 -4 0 -1
1532261649825949 -1 -1 -1 -2 0 0 0 0
1532261649848888 -3 1 0 0 1 1 -1 1
1532261649902743 0 -2 -3 -1 -1 -2 -2 -2
1532261649962583 -1 -1 0 0 -1 1 -1 -1
1532261650043368 0 0 -1 -2 -2 -2 1 -3
1532261650091239 -1 0 -2 -2 0 1 -1 -2
1532261650104205 1 -1 0 1 -1 0 0 0
1532261650136119 0 0 -1 1 0 -1 -2 -1
1532261650150082 0 -2 0 -2 -2 0 -1 0
1532261650180002 1 -1 -2 0 0 -1 0 1
1532261650239842 1 -1 0 -2 -1 0 -1 1
1532261650346557 -2 -3 -1 0 -2 1 3 1
1532261650368498 0 0 1 -1 0 -3 0 0
1532261650405426 -1 -2 -1 0 -2 -2 -2 -3
1532261650411383 -2 -1 -2 -2 0 -1 -3 0
1532261650459256 1 -2 -1 -1 -1 -1 1 -1
1532261650516103 -1 0 -3 -1 1 -2 -2 -4
1532261650540039 -1 1 0 2 0 -1 -4 -3
1532261650576940 0 0 0 -1 -2 -1 0 2
1532261650592898 -1 -1 0 -1 -1 -1 -1 0
1532261650615841 -1 0 -2 -1 0 1 -3 -3
1532261650632791 0 -1 1 0 -3 -2 -1 -2
1532261650645757 -3 -1 -1 0 -1 -1 -1 -1
1532261650659719 0 0 -3 -1 -2 0 -2 -1
1532261650682658 -1 -3 -2 -2 -1 -2 -3 -4
1532261650704599 1 0 0 -1 -2 0 0 -1
1532261650764439 -1 1 -2 0 -2 -1 -1 -2
1532261650781393 -3 -2 -1 0 -1 -1 0 -3
1532261650840236 1 -1 0 -2 -1 -2 0 1
1532261650899079 -2 -1 -2 -1 -2 -1 -1 -1
1532261650945954 1 -1 -1 -1 -1 -2 1 -1
1532261650967895 -3 -1 -2 -1 -1 -4 0 -1
1532261650989837 0 -1 0 0 -1 0 2 1
1532261651004796 -2 -2 -1 1 -2 -3 -2 -1
1532261651027735 0 0 -3 -1 -3 -1 -1 -2
1532261651051671 -1 -1 -1 0 1 -2 0 0
1532261651104542 -2 0 -2 0 -2 -2 -2 -1
1532261651141431 -1 -3 -1 0 1 -2 -1 0
1532261651153399 0 -2 0 -3 0 2 2 -2
1532261651216231 0 0 -1 -2 0 -1 -1 0
1532261651238173 -2 -1 0 0 -1 0 -1 -2
1532261651245153 -2 -2 0 0 -1 0 -2 -2
1532261651266098 -2 0 -1 -3 -1 -1 -1 -3
1532261651284050 -1 -1 -2 -3 1 0 0 -2
1532261651305991 0 -2 0 -1 -2 -1 0 0
1532261651327934 -1 -2 -1 -1 -1 -3 1 0
1532261651351868 0 -1 -2 -1 -2 1 -3 -1
1532261651394754 -1 0 0 0 0 -1 -3 -2
1532261651423677 -1 0 0 -2 0 -1 0 -1
1532261651469554 1 0 0 -1 -2 0 -1 -3
1532261651493493 -1 -2 -2 0 -2 -1 0 -1
1532261651514434 0 -2 0 -1 0 -2 -1 -2
1532261651522413 0 -2 0 0 -2 -1 -1 1
1532261651544353 -1 -2 -2 0 0 -1 -2 -1
1532261651566295 -2 -1 -1 -1 0 -2 0 2
1532261651584247 -1 -1 -2 0 -2 0 -1 2
1532261651614167 -1 -1 0 -1 -1 -2 -1 1
1532261651650071 0 1 0 -2 -1 -1 -1 -3
1532261651671015 1 0 -2 0 -3 -1 0 -1
1532261651723874 -1 -1 -1 -2 0 -1 0 -3
1532261651741825 -2 -1 0 0 0 -1 -1 -1
1532261651770748 0 -2 -3 -2 -1 -1 -2 0
1532261651801669 -2 0 0 -1 -1 0 -3 -2
1532261651815628 -2 -2 1 -1 -1 0 0 -3
1532261651822610 -1 -1 -1 -2 -1 -2 -2 -3
1532261651844551 -1 1 -2 -1 -2 0 0 0
1532261651858513 -2 -1 1 -1 -1 1 1 -1
1532261651904391 -2 -1 -1 0 -1 -3 -3 -2
1532261651941292 -1 -4 -1 -1 -2 -2 -2 -1
1532261651979202 -1 -1 -1 -1 -1 -2 -2 0
1532261652026065 0 -2 0 -1 -1 0 1 0
1532261652033047 0 -1 -1 -2 -1 -2 1 -1
1532261652052994 0 -1 -1 0 1 -1 -2 0
1532261652078924 -2 -1 -3 0 -2 0 -2 0
1532261652093884 1 1 1 -1 0 -1 -1 -2
1532261652116823 0 -1 -1 -1 0 -1 0 1
1532261652144748 0 -2 -1 -1 0 0 0 -1
1532261652167687 0 0 -2 -1 -2 -3 -2 0
1532261652226529 -1 -1 0 -1 -1 2 0 1
1532261652250465 -3 -1 -2 -1 -2 0 0 -4
1532261652272415 -2 -1 0 -1 -1 1 0 0
1532261652325905 -1 0 -2 -2 0 0 -1 -1
1532261652348843 -3 -3 -1 -3 0 -3 -1 -2
1532261652369788 -1 -1 0 -1 -2 -1 -1 1
1532261652414667 -1 -1 0 -1 1 -1 0 -2
1532261652421649 0 0 -2 -1 -3 -1 -1 -1
1532261652435611 -1 1 0 -3 -1 -1 -1 1
1532261652528364 -1 -1 -1 -1 0 1 0 -2
1532261652543324 -1 -3 -1 0 0 -1 -1 0
1532261652567260 0 0 -1 -2 -2 0 -1 -1
1532261652587206 0 0 1 0 -1 -4 0 0
1532261652601169 -3 -1 -2 -2 -1 0 1 -1
1532261652625105 0 -1 -1 -1 -1 -5 -3 -1
1532261652647046 -3 -3 -2 -1 -3 -2 -1 -1
1532261652669985 -1 -1 -1 -3 -1 0 -1 0
1532261652720849 -1 -2 -1 -2 1 -1 1 -1
1532261652751766 -2 1 0 -1 -1 -1 -1 0
1532261652774705 -2 -2 -1 0 -2 -1 -1 0
1532261652795649 -3 0 0 0 0 0 -2 3
1532261652836546 -1 -1 -2 0 -1 -2 -1 -1
1532261652857484 0 0 -1 -2 -1 0 0 -2
1532261652901366 0 1 -2 -1 -3 -1 -1 -2
1532261652924305 -1 -1 -3 -2 -1 -1 -2 -2
1532261652947243 0 -2 -3 0 0 -1 0 0
1532261652985142 -1 -1 0 -2 -1 -1 0 1
1532261653008081 -1 -2 0 -1 1 1 -1 0
1532261653037003 -2 -1 -1 -1 -2 -3 -2 -3
1532261653050966 0 -1 -1 -1 0 0 -1 0
1532261653088864 0 -2 -2 -2 -1 1 -2 1
1532261653097841 -1 1 -1 -1 -1 -1 1 -1
1532261653140726 0 -1 -2 -1 -2 -1 -2 -1
1532261653172641 -2 0 -1 0 -1 0 0 1
1532261653187600 0 0 -1 -1 0 -2 1 -1
1532261653209556 -1 -1 -2 -2 -2 0 -1 -2
1532261653232480 0 -1 -2 1 -2 -1 -2 -2
1532261653292321 -2 -1 -2 0 -2 0 -4 -3
1532261653337201 -2 -1 0 -1 1 -1 0 2
1532261653428958 -1 1 -1 -1 -2 -1 -1 0
1532261653463862 0 0 0 -2 -1 -1 0 -2
1532261653486801 -1 -2 -1 0 -1 -3 0 -1
1532261653523702 -1 -1 -2 -1 0 -1 -1 -1
1532261653547637 -1 -1 0 -1 -1 0 -1 -1
1532261653583542 0 -2 -2 -2 -2 -4 0 1
1532261653615457 -1 -1 0 -1 0 -1 -2 -1
1532261653631420 -1 -1 -2 -1 -2 -1 0 -2
1532261653651361 -2 0 -2 0 -1 0 -1 0
1532261653674299 -1 -2 0 -1 -1 -2 0 1
1532261653697238 1 -1 -2 -3 0 0 0 -2
1532261653763062 -2 -1 -3 0 1 -2 -2 -1
1532261653772038 -1 -2 -1 -1 -2 -1 -1 -1
1532261653809936 -2 -3 0 -2 -2 0 -1 -4
1532261653823899 -1 -1 -2 -2 -2 -2 -1 -1
1532261653885734 -2 0 0 -1 -3 0 0 -1
1532261653907675 -3 -1 -3 0 0 -2 -1 -1
1532261653944577 -1 -1 -2 0 -1 0 0 -3
1532261653951558 1 0 1 0 -1 -1 -1 -1
1532261653974496 0 0 -3 -1 -2 0 -1 -1
1532261654012395 0 -2 2 -2 0 -1 -1 1
1532261654049296 -2 -3 1 1 -2 0 -2 -1
1532261654072235 -2 -1 -2 0 1 1 -1 -1
1532261654110135 -2 -2 -1 -1 0 0 -1 -2
1532261654132075 -1 -2 -1 0 -3 -7 -3 -1
1532261654153018 0 -3 -1 -1 -1 -3 -1 0
1532261654205877 -3 -2 -3 -1 -1 0 -1 -3
1532261654295637 -2 -1 0 1 0 -3 -2 1
1532261654326555 0 -1 -1 -1 0 -1 -2 -1
1532261654402353 -2 -2 0 -1 0 -2 -3 -4
1532261654499094 -1 -1 1 -1 -1 0 0 -1
1532261654559932 -1 -2 0 -1 -1 2 -1 0
1532261654574890 0 -2 -1 -1 1 0 -1 -2
1532261654603814 0 -2 0 -1 -2 -2 0 0
1532261654672637 2 -1 0 0 0 -1 -2 -3
1532261654771366 -3 0 -2 0 0 0 1 -3
1532261654829211 1 -1 -2 -1 -1 0 0 -1
1532261654890048 -2 -3 -1 1 -1 -1 1 0
1532261654949889 -1 1 0 -1 0 -2 -1 -1
1532261655001750 2 0 0 0 0 -3 0 -3
1532261655031670 -2 -1 -1 0 0 0 -2 -1
1532261655256069 -1 -2 -1 -1 -2 2 1 5
1532261655376747 0 0 -2 -2 -1 -2 -3 0
1532261655437584 -2 -1 -2 -1 -1 -3 -3 -4
1532261655451546 -1 1 1 0 0 -1 -5 0
1532261655511387 -1 0 -2 0 0 -4 5 -2
1532261655572223 -6 -1 0 -3 -1 3 3 -1
1532261655594165 3 -2 -1 -1 0 -3 -7 1
1532261655608128 -2 0 -2 0 -2 -2 0 -1
1532261655631067 0 -1 -1 -2 -4 -1 -1 1
1532261655669963 -5 0 -1 -1 -2 -1 -1 -5
1532261655691904 15 -1 0 -2 -1 -2 -6 0
1532261655713846 -7 -2 -2 -1 -1 0 1 1
1532261655728805 0 0 -1 2 0 -1 -3 -2
1532261655773685 -4 -1 -1 -3 1 1 -1 0
1532261655813578 -6 -2 0 -1 0 0 0 3
1532261655843499 -1 -3 -2 -1 -2 -3 -1 0
1532261655857461 0 -1 -3 0 -1 -1 -2 -1
1532261655903338 -2 -1 -2 0 -1 -3 -3 -1
1532261655931264 -1 -1 -1 0 -1 -1 -2 -1
1532261655954203 0 0 -2 -1 -1 2 1 0
1532261655977141 0 -1 0 -2 -2 -2 -1 -1
1532261655991104 -2 -1 0 -1 -1 -1 -1 -1
1532261656044960 -1 0 0 -1 -3 -4 -1 0
1532261656073883 -2 -3 -3 -8 -3 -13 -2 -2
1532261656112784 0 -1 -3 -4 2 3 -3 0
1532261656156662 0 0 0 -1 4 -3 1 1
1532261656186581 0 -2 1 9 4 7 1 -3
1532261656202538 -2 -4 -7 -13 -9 1 0 -1
1532261656216501 1 4 0 -1 3 2 1 1
1532261656239440 -1 -3 -6 -15 -24 -4 -1 0
1532261656278335 -2 -2 0 11 -2 -3 -3 0
1532261656284320 -2 -2 -5 -16 -8 -4 -4 -3
1532261656314240 -3 -2 -4 2 7 2 -2 -1
1532261656344159 -2 1 0 -7 0 -1 1 -3
1532261656363109 -2 -1 -1 -3 0 -4 -1 -1
1532261656390037 -1 3 -4 -4 2 0 0 -1
1532261656412976 0 -3 -3 -6 -2 -4 -1 -1
1532261656435915 0 0 -5 -25 -11 9 8 2
1532261656458853 2 1 3 4 3 31 3 2
1532261656486778 -3 -4 -4 -8 2 -20 -5 -1
1532261656530661 -3 -2 2 5 -3 -1 -5 0
1532261656576538 0 1 7 13 -6 -6 1 2
1532261656592508 -1 -3 -2 -1 -2 -3 -2 -1
1532261656636378 -1 -1 0 12 -3 2 -6 -4
1532261656682256 0 -2 -6 -2 12 0 -1 -2
1532261656734116 -2 0 0 2 -4 -5 -8 -4
1532261656781988 0 11 3 1 2 1 2 1
1532261656801936 1 -4 3 4 11 1 -2 -1
1532261656831857 -4 -11 0 -2 -3 0 -2 -1
1532261656854794 -1 5 1 -3 -9 -7 -4 -2
1532261656886709 -1 -2 3 3 -5 -3 3 1
1532261656953530 -2 -20 -5 -5 1 3 0 0
1532261656975472 1 2 4 2 4 9 2 0
1532261656996416 0 1 -4 -3 -5 -5 -1 0
1532261657075205 -1 2 -2 -4 -4 -3 1 -2
1532261657096149 0 4 -1 -1 -6 -6 -2 -2
1532261657119088 -2 -4 -2 -3 -5 -8 -2 -1
1532261657148010 -1 -18 -5 -3 1 4 0 0
1532261657184911 0 -4 -1 -1 -3 -5 0 0
1532261657221818 -3 -4 -3 -2 13 20 0 -2
1532261657274671 -1 -12 -2 0 2 3 0 0
1532261657344484 0 -3 0 4 30 11 2 1
1532261657358448 0 34 2 -3 -13 -10 1 1
1532261657393354 3 12 0 -3 -5 7 1 0
1532261657447210 0 -11 -1 1 -3 -12 0 0
1532261657506068 0 0 -2 0 -4 0 2 0
1532261657620745 -5 -10 -7 -2 -5 -7 -4 3
1532261657642687 -7 -8 3 -2 -2 -2 0 -2
1532261657679589 2 2 0 1 3 1 -3 -5
1532261657693551 -1 0 -2 -3 -3 -1 -2 1
1532261657715493 1 -2 0 -1 6 8 0 1
1532261657724469 0 6 -1 -1 2 14 2 -4
1532261657764362 0 -1 -3 -1 -1 -2 -3 0
1532261657786303 0 -1 0 -2 -1 5 -5 -3
1532261657792287 1 -4 0 -2 -12 -12 -4 -1
1532261657813231 -2 -3 -2 2 22 21 2 -4
1532261657906005 1 -4 -3 -4 -7 -4 1 -2
1532261657920964 2 -11 -3 -3 -4 -6 -5 0
1532261657941909 -2 0 -2 -3 -4 -4 -3 -2
1532261657964848 1 -4 2 -1 -3 -3 -4 0
1532261658009728 -3 -5 -3 -1 0 -1 0 -1
1532261658030671 7 2 -2 -3 -7 -11 2 3
1532261658098490 -1 -6 -1 -2 -4 -6 -1 1
1532261658146364 0 -12 1 1 0 1 -2 0
1532261658183263 -4 5 1 2 -3 -9 1 -3
1532261658198224 -1 -5 -1 1 0 -1 -1 -2
1532261658242106 -1 -3 -4 -2 -1 2 -2 0
1532261658378741 -3 -6 -2 -4 0 1 -2 -2
1532261658400684 4 -7 -4 -3 -1 0 -1 0
1532261658482469 -3 20 5 3 0 0 -2 -2
1532261658494432 -2 -18 -2 -2 0 -3 -2 -1
1532261658519365 -1 -5 2 3 1 0 -1 2
1532261658602143 -2 -4 -3 -1 -1 -2 -1 -2
1532261658634058 0 -3 1 1 0 0 0 -1
1532261658648021 -1 -1 -1 1 -1 -2 0 -1
1532261658671957 -3 -4 0 2 -2 -1 -2 -1
1532261658683925 0 2 -2 -2 -2 0 -2 -1
1532261658702874 -1 -2 0 -5 -1 -2 0 -2
1532261658729802 0 2 -3 -3 -1 6 1 -1
1532261658752740 -1 -2 -4 -9 1 15 0 -1
1532261658767700 1 1 2 1 0 -8 -2 0
1532261658782660 0 -2 0 1 -1 -9 -1 1
1532261658818565 -1 -4 -1 1 15 3 6 2
1532261658872427 0 0 -1 -7 -2 3 -4 -1
1532261658878405 -2 -1 -6 -5 -15 5 -5 -3
1532261658962180 -2 2 -3 -2 -14 -15 -6 -2
1532261658985119 -2 -2 1 1 8 2 -5 -2
1532261659015040 -4 -7 -7 -2 6 33 1 -3
1532261659029999 2 1 1 1 -10 -5 1 1
1532261659044959 -2 -2 -3 2 -3 -29 -5 -2
1532261659081861 -3 2 2 0 -1 26 -3 -1
1532261659112801 1 0 -4 -1 -2 -6 -1 -1
1532261659118762 0 -1 1 4 2 6 4 1
1532261659164639 -1 0 -1 -2 -7 -4 0 1
1532261659178617 -1 -1 -3 -3 -6 -5 -1 -3
1532261659224497 -2 -3 -1 0 2 4 -1 -1
1532261659253419 -1 -1 -3 -4 -3 -2 -4 -1
1532261659279351 0 1 -6 -3 0 3 -2 -1
1532261659286331 -1 -2 -1 0 -3 -13 -1 -1
1532261659307276 1 0 -1 0 1 1 -3 -1
1532261659345174 0 -1 1 3 2 1 1 0
1532261659373099 1 0 -1 0 3 4 1 -1
1532261659410998 -2 -2 -2 -1 -2 -3 -4 -2
1532261659441916 -1 -1 -1 -1 0 0 0 1
1532261659472839 -4 0 0 0 -1 -14 -4 -1
1532261659525691 1 0 1 -1 0 4 0 0
1532261659553616 -2 -4 -1 0 0 -4 -3 -3
1532261659564587 0 1 -1 -1 -1 -5 1 0
1532261659584534 -1 -1 0 -1 -2 0 1 -2
1532261659622438 1 -1 -1 -3 -2 7 3 -1
1532261659651355 -3 -3 -1 -1 1 -3 -2 -1
1532261659682272 -2 -3 -1 -2 -2 -4 -1 -1
1532261659788987 -1 0 -3 -2 -3 0 1 0
1532261659809946 -4 -3 -3 -1 -1 -2 -3 -2
1532261659826886 -2 -1 -2 -3 -2 -5 0 0
1532261659884731 0 -2 -3 -3 -1 -4 -2 0
1532261659907670 -3 -2 -1 -1 1 -2 -1 0
1532261659989451 -3 -2 -2 -4 -1 0 -2 -1
1532261660027350 -2 0 -2 -3 0 -3 1 -3
1532261660066245 0 -1 -2 -1 -2 1 2 -1
1532261660071232 -1 -3 -1 -1 -2 0 -2 0
1532261660116112 1 1 -1 0 0 -2 -2 -1
1532261660160992 0 -1 -2 -1 0 0 1 1
1532261660205886 -1 -3 -3 -1 0 -1 1 -1
1532261660305606 -2 -1 -1 -1 -1 1 -2 -3
1532261660359469 -1 1 0 2 0 0 -1 -1
1532261660403345 0 -1 0 -1 -3 0 -2 -3
1532261660453211 0 1 -3 -3 -2 -1 -2 -1
1532261660550949 0 -3 0 -3 -1 -2 -1 -2
1532261660603808 -2 -2 -2 -2 -2 0 -1 -1
1532261660627757 -1 -1 -1 -1 0 -2 0 -1
1532261660678608 -1 0 0 -1 1 -2 0 0
1532261660709525 1 0 -2 -1 0 -2 -2 -2
1532261660753408 -2 -2 -2 -1 -1 2 2 0
1532261660786320 -1 -2 -1 1 -1 -1 -2 -1
1532261660847158 0 -2 -1 1 -2 -2 -2 0
1532261660874085 -2 -1 -1 0 -1 0 -3 0
1532261660889046 -2 -2 -2 0 -3 -1 0 -3
1532261660950880 -1 1 -1 -1 0 1 1 0
1532261660986784 -3 1 -2 -1 -1 0 -4 -1
1532261661062582 0 -2 -1 0 -1 0 1 -1
1532261661197221 -3 -1 -1 -1 1 -2 -1 0
1532261661214176 0 -3 -2 -1 0 0 0 -4
1532261661218165 0 -1 0 1 -1 0 -1 1
1532261661250080 -1 -4 -2 -1 -1 -1 -2 -1
1532261661370757 0 0 -2 -1 -2 1 1 -2
1532261661391701 0 -1 -3 -3 -1 -2 2 0
1532261661424613 -2 -1 -1 -2 0 -1 0 0
1532261661459520 -3 0 -4 -3 0 0 2 1
1532261661482458 0 -1 1 -1 -2 0 -3 0
1532261661527339 -2 0 -1 -1 -1 -1 0 -2
1532261661557259 1 -2 1 -1 0 -1 -1 -3
1532261661587179 -1 -1 -2 -3 0 2 4 1
1532261661632058 -1 -3 -1 0 1 -2 -3 -1
1532261661699877 -3 -1 0 1 0 -1 1 1
1532261661707856 -2 -1 -2 0 -2 -1 -2 1
1532261661782656 0 -1 -1 0 -1 0 -2 -1
1532261661826538 -2 0 0 0 0 0 -2 -1
1532261661932255 -2 0 -1 -1 -1 -2 -6 -4
1532261662172622 2 0 0 9 -2 1 -1 2
1532261662315232 -16 2 13 21 5 7 0 -9
1532261662361109 -11 3 1 -1 -2 19 -2 -2
1532261662381055 -10 -5 8 5 5 -10 -2 0
1532261662396016 -1 -2 -1 3 11 -47 0 0
1532261662413968 -3 2 2 -2 -38 -35 -1 -1
1532261662440896 1 2 4 -6 -33 -17 -10 -3
1532261662472810 0 -24 2 1 2 -20 5 2
1532261662518688 -8 -3 -4 -2 14 17 9 3
1532261662614432 -5 27 7 -4 -16 -26 -9 -4
1532261662653327 11 -8 -3 -5 -18 -1 0 1
1532261662677277 26 2 -4 -10 -9 -2 3 2
1532261662720149 -4 1 1 -1 7 -51 0 -1
1532261662891690 -4 3 -2 2 8 26 5 -8
1532261662998404 1 -5 -6 2 17 33 14 0
1532261663109109 -1 -3 -4 2 -16 -7 -5 -3
1532261663161967 50 6 -5 -8 1 -17 -4 7
1532261663190890 7 -1 3 8 18 -16 -9 -6
1532261663213829 27 6 5 4 5 -15 -3 -1
1532261663236767 3 3 3 -2 0 12 14 4
1532261663281647 26 1 0 2 -7 11 11 5
1532261663373402 -5 -1 0 -4 -13 -12 -7 -1
1532261663395343 -3 1 2 5 58 -11 4 2
1532261663507045 3 5 2 -4 5 -10 11 6
1532261663532975 -12 -6 -4 -10 -10 -58 13 -4
1532261663693546 -35 -26 -10 -6 3 3 -21 -52
1532261663719477 -128 -41 -11 -2 7 -4 -23 -90
1532261663746404 -12 1 1 0 2 6 -5 -2
1532261663793279 3 1 7 9 32 40 3 2
1532261663830181 -5 -11 -3 -10 4 -11 -2 -3
1532261663883039 2 -1 -4 -1 -7 -1 -1 -1
1532261663898997 2 -2 2 2 -18 -14 -5 -2
1532261663972799 -1 -3 -3 -4 -13 -16 -2 -1
1532261664018676 1 -2 -4 -7 -3 -6 -1 -1
1532261664056578 0 0 1 0 -12 16 3 0
1532261664107439 -1 0 1 7 1 1 -2 -2
1532261664114420 -1 -3 -3 -2 -2 -6 -4 0
1532261664219141 1 1 -2 -1 -5 -3 -3 -1
1532261664251055 0 0 3 5 14 18 0 1
1532261664286959 1 2 0 2 5 16 -1 1
1532261664309898 -2 -3 -1 1 -1 25 -3 0
1532261664338820 0 0 -1 0 7 -1 -1 -2
1532261664416612 -1 -1 -5 -1 2 -4 -2 -1
1532261664498402 0 -1 0 3 2 29 2 0
1532261664536292 -3 1 -5 -6 0 -6 -6 -5
1532261664549258 -2 -3 -6 -6 -6 -46 -6 -2
1532261664580176 0 -2 1 1 1 12 2 0
1532261664698857 1 -1 -1 -3 -3 0 -2 -2
1532261664758697 -2 -2 -1 -2 -5 -7 0 -1

1532261664857433 -1 0 0 1 0 7 0 -2
1532261664941209 -2 1 0 0 -1 -7 -1 -2
1532261664962369 -1 -2 0 0 0 -5 -2 -2
1532261665075524 1 0 0 0 -3 -3 -2 2
1532261665164272 -1 0 -2 0 -1 -1 -2 -2
1532261665217130 -1 -1 0 -1 -1 -1 1 0
1532261665457489 1 1 -2 -2 -2 -1 -2 0
1532261665502368 -2 -1 -1 0 1 -1 -3 -1
1532261665540523 1 -1 -2 1 -1 -1 0 0
1532261665609339 -1 0 -1 0 1 0 1 -3
1532261665646240 -1 -1 -2 -1 -3 -1 -1 -1
1532261665841724 -1 -1 -1 0 -1 0 1 0
1532261665907541 -2 -3 -3 -3 -3 -3 3 -1
1532261665983338 0 0 -2 -1 0 2 -5 -1
1532261666095040 -1 0 -1 1 -2 -1 -1 -1
1532261666118976 -1 -1 0 1 0 0 1 -2
1532261666170837 -1 1 0 0 2 24 6 0
1532261666176821 0 -2 -1 -1 -2 -11 -15 -4
1532261666230677 -1 0 0 0 -5 -1 2 0
1532261666252618 -1 -2 -2 0 -1 -3 -3 -2
1532261666282538 -1 -3 -2 -2 -3 -1 -6 -2
1532261666327418 0 -1 0 -3 -1 -2 -3 -1
1532261666381274 -2 -1 -2 0 -1 0 -1 0
1532261666439119 -2 -1 -1 -2 -2 -1 -8 -1
1532261666485994 2 0 -1 0 0 -2 -2 -4
1532261666521916 1 0 -2 -3 -2 -3 -1 0
1532261666612655 -1 0 -1 -2 0 -1 0 -2
1532261666672495 -2 -1 -2 0 -2 0 0 -2
1532261666723365 -2 -1 0 -1 -3 0 -1 -2
1532261666776218 0 -1 -2 -1 0 -1 0 -1
1532261666882933 -1 2 0 0 -1 -1 0 1
1532261666971695 -3 0 0 -2 -2 0 0 -1
1532261667062452 -10 -2 -1 -1 -2 -4 -1 -6
1532261667107333 2 -3 -1 -1 0 -1 -5 2
1532261667167172 -2 2 0 -1 -1 0 -1 -4
1532261667205071 -2 -1 -1 -1 0 8 3 0
1532261667304805 -4 -3 0 -1 -1 -3 2 0
1532261667354671 -1 -1 -1 2 1 0 3 3
1532261667370628 -1 -3 1 2 -2 1 4 -3
1532261667407530 -1 -1 1 -1 0 -1 1 -3
1532261667550149 1 -1 -1 -3 -1 0 2 -1
1532261667623950 -2 -3 -1 -2 -2 1 1 -2
1532261667646889 0 -1 -2 0 0 -5 -5 -2
1532261667729683 0 -2 -1 0 -1 -3 -2 1
1532261667767567 0 -1 0 0 -1 2 -5 -2
1532261667887247 -1 0 -2 -1 -1 1 -1 -2
1532261667910185 -1 0 -2 -1 0 -2 -1 0
1532261667970025 0 -2 0 -2 -1 -1 1 -1
1532261668165504 2 -1 1 -5 -9 -8 -2 1
1532261668248281 -4 -3 -8 -8 30 -2 -5 -4
1532261668351007 -2 -2 -3 -9 -19 1 5 -1
1532261668471685 0 1 4 -3 -17 -12 -15 -5
1532261668510581 -2 -3 -1 -5 -6 4 -1 2
1532261668729004 -2 5 -1 -5 35 6 4 0
1532261668765898 0 -10 -3 0 -12 -10 -1 1
1532261668809780 -2 -9 -8 -11 11 9 -5 -2
1532261668997278 4 6 4 9 21 6 0 2
1532261669095017 -3 -1 1 -3 10 0 0 -1
1532261669157850 0 -4 -2 -8 -7 9 0 0
1532261669291492 1 13 5 -1 -12 7 2 4
1532261669313433 -1 -8 -4 1 4 -7 -3 0
1532261669336386 7 5 2 1 1 11 2 1
