1532257486118237 -1 -4 -6 -2 -3 0 -2 -1
1532257486137186 -2 4 0 -7 0 0 1 1
1532257486207997 -8 -10 4 19 4 1 -2 -4
1532257486227943 5 2 1 -16 3 0 2 1
1532257486266839 -6 4 9 29 5 0 -1 -1
1532257486273828 4 2 -2 -13 -3 -3 -1 1
1532257486309724 -1 -3 -2 1 0 -2 -1 -1
1532257486340642 -4 -13 -2 3 3 -2 -2 1
1532257486355614 -3 6 -3 5 -1 -1 -1 -3
1532257486392503 2 -2 10 2 0 0 -1 -1
1532257486415442 -2 -2 5 4 -3 1 1 0
1532257486452343 1 -3 -3 11 4 -2 -2 -1
1532257486519164 -8 1 7 2 -2 -3 -2 -3
1532257486551079 -1 3 0 -1 1 2 -2 0
1532257486631863 3 2 -4 -3 -4 -2 -1 0
1532257486678737 -3 -10 0 0 -1 0 -1 0
1532257486691704 -1 1 -1 -1 0 -1 -3 -4
1532257486738578 4 7 0 0 1 -1 0 2
1532257486760518 3 4 -1 -1 -1 1 -2 -2
1532257486775479 -4 0 -3 0 4 2 0 1
1532257486798418 -3 -10 -1 -6 -1 1 -1 0
1532257486843298 1 7 1 13 2 1 1 1
1532257486865239 -2 18 8 -12 -20 -8 -3 -2
1532257486896156 0 -9 27 2 14 0 0 0
1532257486918105 2 -9 -104 -19 -13 -3 -2 -1
1532257486932060 -1 -8 70 21 11 5 1 0
1532257486977938 -3 -2 17 4 -1 -2 0 -3
1532257486991909 -3 -5 47 -17 -17 -3 -2 -1
1532257487037778 -1 1 -24 6 -4 -2 -1 0
1532257487060727 -1 1 36 4 -2 2 0 0
1532257487105596 0 -4 19 3 7 0 -1 0
1532257487111580 -2 0 20 -5 -1 2 1 0
1532257487174412 -1 19 -19 20 5 -12 -2 -1
1532257487180396 -2 -8 -25 1 -3 11 2 -1
1532257487202339 5 18 5 5 -2 -3 1 2
1532257487220307 -2 -4 9 5 -2 -27 -4 -1
1532257487277138 -1 -4 114 14 -3 -4 1 0
1532257487301074 -2 6 39 -28 -42 -5 -1 -2
1532257487323017 7 11 72 120 102 11 5 6
1532257487396817 2 -1 -16 -8 1 -6 -3 0
1532257487540444 -14 19 8 -1 -3 -1 3 -1
1532257487562385 26 -3 1 -1 1 -2 0 6
1532257487585324 -11 9 -37 0 -3 0 0 2
1532257487615243 3 -22 16 1 3 3 1 1
1532257487622225 5 -14 -36 18 4 1 -1 1
1532257487660123 6 8 17 -4 0 -1 -1 3
1532257487714976 -8 2 11 2 1 1 2 0
1532257487802742 1 -18 -2 0 -3 -3 1 3
1532257487922422 5 -16 -4 0 -1 0 0 0
1532257487969302 3 -28 3 2 6 4 1 4
1532257487982278 -7 11 -12 0 5 2 -2 -10
1532257488028139 3 5 17 6 1 -1 2 6
1532257488065040 2 25 15 4 -7 4 8 -1
1532257488102939 13 -38 -54 -5 0 -2 0 5
1532257488124880 -5 -11 8 -10 -11 -7 0 6
1532257488170758 4 -8 -12 1 1 -1 -8 -10
1532257488184737 -29 -10 -26 3 3 -2 1 -7
1532257488222619 21 -89 -6 -1 2 2 -19 -59
1532257488244560 -21 26 7 0 1 0 0 -13
1532257488379200 -9 -10 9 -2 2 2 1 3
1532257488448025 -6 47 -40 -1 1 0 0 -1
1532257488498938 -2 -12 0 -4 -4 -2 -3 1
1532257488562755 7 45 22 -1 -1 1 1 0
1532257488592675 2 -2 12 1 0 1 3 0
1532257488665480 0 -10 -7 -5 -1 1 0 0
1532257488733299 0 -4 3 2 -1 -1 0 1
1532257488847014 -9 -12 11 8 1 -2 -2 -2
1532257488927799 -5 -14 1 1 -2 0 -2 -3
1532257488989633 -1 4 -6 3 -1 -3 -2 1
1532257489017558 -10 -23 -35 30 4 3 0 -1
1532257489057452 -5 2 -7 -10 -4 -3 -2 -2
1532257489117292 -2 5 40 -2 0 2 0 -2
1532257489145218 0 -1 -8 -3 2 -1 2 1
1532257489168156 10 6 -1 6 -4 -1 -3 2
1532257489205057 1 5 -19 2 2 0 -1 2
1532257489241958 -3 -20 -34 -8 -4 -2 -1 -1
1532257489349671 0 16 6 0 -2 15 10 1
1532257489401532 -1 -14 -14 -3 -1 3 -3 -5
1532257489445415 -8 0 -7 1 -3 -7 2 4
1532257489565094 2 5 -2 -1 -5 -4 4 6
1532257489647873 -10 -19 -20 -2 -2 -50 -13 -11
1532257489670811 -2 2 2 -1 1 1 -1 -6
1532257489708713 7 12 17 5 3 0 -3 1
1532257489730652 5 -2 4 -2 1 7 0 -3
1532257489744614 -1 -9 -13 -3 -2 -6 -6 -4
1532257489768556 14 -13 7 10 3 1 -3 -1
1532257489804454 3 7 10 -1 0 -1 -1 2
1532257489820411 0 -2 23 1 1 0 -3 0
1532257489873270 4 -23 -16 -9 -3 -1 0 1
1532257489956054 -8 0 -3 4 -2 -1 0 0
1532257490007910 -1 -7 -3 2 3 -2 -1 -3
1532257490030848 0 -17 -22 -7 0 1 -2 0
1532257490044812 3 6 22 3 0 0 -2 0
1532257490067750 -2 8 3 1 -1 -4 0 0
1532257490120609 2 1 -10 2 3 0 3 2
1532257490151536 8 11 10 1 0 0 0 0
1532257490224341 3 -2 -10 0 -1 -2 1 2
1532257490271216 -2 -6 1 -2 1 0 -1 1
1532257490331056 -1 -5 -7 1 1 1 2 -1
1532257490367957 0 4 -2 -1 -3 -1 0 1
1532257490406853 -3 -6 -12 0 -1 0 0 -2
1532257490489632 3 -12 10 0 -3 -2 0 -2
1532257490524538 8 -12 -8 -5 -3 0 -1 0
1532257490547477 1 1 -7 7 1 -2 -2 0
1532257490584378 -3 -24 -90 8 8 3 2 1
1532257490593354 10 -11 -71 -5 -7 -2 0 2
1532257490653194 1 15 -9 1 -2 -2 0 -1
1532257490729989 21 -6 18 -18 -4 -2 -3 -2
1532257490757915 -5 -20 82 1 1 -2 0 -2
1532257490795813 6 -12 -37 1 1 3 0 1
1532257490833712 -11 21 -7 -12 -8 -2 -5 -2
1532257490892554 14 -3 11 -2 -4 -18 -2 0
1532257490921477 -4 -79 -67 -1 4 -9 5 9
1532257490968371 -3 -1 -79 -2 -4 7 1 -17
1532257490990293 32 -11 -20 0 -7 -20 -5 -2
1532257491021210 -10 7 39 2 12 66 6 -11
1532257491027194 4 60 127 8 -2 -34 -3 -5
1532257491089029 -16 -2 80 -19 -2 -37 21 0
1532257491097008 -23 -52 -123 -11 -30 3 -59 -64
1532257491155850 14 12 75 25 -10 -76 -8 -10
1532257491177791 0 66 -92 -23 -10 -52 0 14
1532257491224666 9 17 77 7 2 -14 -5 -14
1532257491231647 9 28 52 -4 3 33 4 1
1532257491267551 -2 35 28 0 -14 -21 0 4
1532257491350329 0 -25 -40 -16 -11 -14 0 -1
1532257491382244 11 -9 -12 -9 -5 -2 0 4
1532257491387231 -15 -24 -6 -12 0 0 0 -4
1532257491410169 4 24 -6 1 8 2 2 1
1532257491433108 0 -16 -14 -12 -1 1 11 7
1532257491456047 -13 3 0 -2 -3 -6 -16 -5
1532257491492949 -20 -9 -12 -8 -7 0 24 -1
1532257491559770 -12 -29 -40 -9 -1 0 3 -14
1532257491601662 10 -4 1 -2 1 -2 -3 -3
1532257491606645 13 -7 -2 9 3 1 4 7
1532257491635567 7 10 -3 -5 -3 -1 -15 -8
1532257491664490 9 11 16 7 8 15 9 30
1532257491674464 -11 3 -2 -4 0 22 17 -5
1532257491704384 -22 2 20 3 -7 -22 -15 -6
1532257491718350 -62 -47 -12 -4 -2 -9 24 -11
1532257491735300 -12 -2 11 7 4 -5 -15 -30
1532257491757249 -4 -30 -3 -6 -5 -9 -6 -16
1532257491778195 -13 -45 2 11 8 0 -12 2
1532257491816085 11 3 4 -18 -8 -17 -1 29
1532257491846005 66 83 -11 -2 -5 -17 -22 11
1532257491875924 34 11 -13 2 4 -5 5 77
1532257491888890 49 15 -9 -20 -4 16 22 60
1532257491912826 48 3 15 -25 -5 6 23 -21
1532257491949727 -10 -66 27 -10 -9 -5 -2 9
1532257491973663 73 -16 6 17 22 52 69 101
1532257492033503 -70 -35 -5 -44 -14 -6 -23 -53
1532257492078384 -37 10 -25 13 -6 -27 -38 -15
1532257492116282 13 2 -11 2 2 4 -1 9
1532257492122266 5 -8 1 -13 -5 10 -2 -10
1532257492154180 10 -11 -10 -2 -4 -8 10 27
1532257492176122 -65 41 -15 4 -2 -5 -4 -17
1532257492189087 16 -9 -12 7 2 -2 5 4
1532257492219022 4 57 17 0 2 4 8 3
1532257492248927 -18 17 -8 3 1 1 0 0
1532257492272863 0 -6 59 -4 -2 -3 1 -1
1532257492318750 12 -6 28 3 -2 0 1 2
1532257492355641 -9 -80 -83 -11 -3 -2 1 -1
1532257492415482 -1 48 8 -5 -2 0 -2 -2
1532257492475321 6 5 4 -9 -1 0 0 -4
1532257492506239 -3 3 -7 11 5 2 2 0
1532257492595999 -3 -11 47 -3 -3 -4 -2 -1
1532257492691744 3 -13 -14 -6 -4 -1 1 1
1532257492738617 -1 -1 -8 -11 -2 2 -1 -1
1532257492760559 11 -17 -7 10 6 1 0 0
1532257492775519 0 8 -5 -9 -4 1 -1 1
1532257492798457 12 26 34 16 3 0 0 1
1532257492811423 5 -35 -12 8 5 0 1 1
1532257492835371 -7 6 -15 -12 -4 -2 0 -2
1532257492858298 -1 -17 -3 -4 0 0 2 0
1532257492872260 -1 70 52 19 9 5 1 3
1532257492911156 -8 -12 -18 -2 -2 -2 0 -1
1532257492932100 4 -14 -7 -1 0 7 2 24
1532257492941076 -2 -11 11 0 4 2 6 -3
1532257493000916 -13 -29 1 6 36 114 100 65

1532257493015876 -25 23 9 -9 -12 17 -24 -15
1532257493051780 3 -3 -53 -4 -11 -16 -21 -18
1532257493060770 8 -42 73 -7 1 20 10 -14
1532257493098655 4 52 -116 22 -8 -8 -21 -22
1532257493111620 -3 -4 14 -18 -16 -4 -7 -17
1532257493159492 1 -19 26 -3 -8 -19 -16 -4
1532257493164479 1 16 -21 8 -2 -1 -1 -7
1532257493218335 0 -12 0 -2 -2 4 0 -8
1532257493232298 5 0 6 2 1 -3 -2 -7
1532257493247258 2 -14 -15 -9 -4 -2 -11 -1
1532257493278175 5 -3 1 -9 -8 -14 -2 -10
1532257493301113 0 12 12 2 2 -2 -10 -1
1532257493322062 -1 -8 6 1 1 3 2 -1
1532257493351984 -8 -5 -9 -3 -1 -1 -5 -14
1532257493381904 -1 4 -1 1 -1 0 2 0
1532257493420800 0 13 -16 -4 -6 -2 1 0
1532257493435760 7 -31 -10 -16 -4 0 2 3
1532257493479643 0 15 9 -2 -1 1 -3 -1
1532257493517542 -4 20 16 -1 2 -3 -1 -6
1532257493555234 -5 11 0 1 -1 1 13 0
1532257493578173 7 -26 -17 0 1 -3 -3 -1
1532257493601111 -6 8 -6 0 -1 1 1 -3
1532257493638013 0 -2 -11 -2 -2 0 -4 -1
1532257493660951 2 17 10 -2 1 -1 -2 0
1532257493681895 -4 -3 41 2 0 1 4 -2
1532257493699847 1 22 11 0 -2 -1 1 5
1532257493722786 3 -11 -10 -7 1 1 5 2
1532257493741735 -6 -21 50 -4 1 0 1 -3
1532257493788610 -2 -9 8 -3 0 -1 -1 -3
1532257493794594 4 16 18 8 1 0 0 -4
1532257493820525 -2 2 8 1 0 2 -1 -2
1532257493847452 2 7 43 0 0 -7 -3 -3
1532257493870407 -8 3 -67 2 -4 -3 -3 -5
1532257493877373 3 -14 19 3 0 -5 0 -2
1532257493907292 -5 -1 -16 -5 -7 -17 -4 -10
1532257493937212 -7 16 17 3 -1 15 3 4
1532257493955164 -13 1 4 1 6 -30 -20 -38
1532257493976109 -20 27 7 -3 -3 -37 20 -42
1532257493997053 -6 -6 60 -9 -13 -35 -5 2
1532257494021986 19 23 58 8 7 73 14 71
1532257494068860 7 -10 -26 -5 -3 -9 -1 35
1532257494082823 -5 -24 29 7 -1 -12 0 -9
1532257494109751 1 2 27 -12 -8 1 -3 -6
1532257494133687 -3 -19 82 9 4 1 -3 -5
1532257494146653 -4 -5 43 -8 -3 5 1 -7
1532257494216466 0 -10 -33 10 1 -2 0 0
1532257494230428 1 -9 11 11 3 0 1 0
1532257494252370 -2 2 28 4 1 0 -1 -1
1532257494275309 -1 13 45 11 1 -2 -1 -2
1532257494342130 4 3 23 -21 -8 -4 -1 -2
1532257494351106 7 -9 -83 -15 -3 0 1 1
1532257494380028 -2 7 16 1 2 0 -3 -2
1532257494402967 -3 -1 2 -2 -1 -1 0 1
1532257494416930 2 -7 -17 -8 -6 -3 -2 -2
1532257494431890 -3 -3 25 8 0 0 -2 -2
1532257494470786 -1 -23 -18 -1 1 -2 0 -2
1532257494530632 7 9 14 -8 -11 -3 -1 -1
1532257494611410 7 0 -17 2 -12 1 -1 1
1532257494642327 7 -3 6 1 -2 14 0 2
1532257494657287 0 16 -26 -7 -6 -9 -5 -3
1532257494679228 -7 2 -72 -7 -4 10 -2 -2
1532257494702179 6 -24 -18 2 1 1 1 0
1532257494717126 -6 -1 21 7 7 7 -1 -1
1532257494762007 -4 9 34 4 6 -6 0 -1
1532257494799906 -4 3 -8 -5 -4 1 1 -1
1532257494942524 -20 25 4 5 -2 -4 1 -2
1532257494958481 8 -15 -12 -10 -3 -4 -2 -3
1532257495002369 15 -18 -24 2 1 -2 -4 0
1532257495025302 -1 -6 23 -4 0 -2 1 -1
1532257495071180 -43 -18 5 -3 0 3 2 -27
1532257495077164 21 10 24 2 2 0 -3 -1
1532257495214796 -2 10 8 3 2 0 -2 -7
1532257495221778 7 17 -35 3 0 0 1 -2
1532257495265660 12 23 13 1 1 -1 4 -2
1532257495303563 -27 -28 -44 2 0 -2 0 9
1532257495318519 14 3 -39 -1 0 0 3 -2
1532257495362401 5 -53 4 -5 -3 -2 -3 1
1532257495408279 -17 -68 33 -3 -2 -1 -1 -2
1532257495430219 20 84 27 1 0 -1 -2 -13
1532257495491057 37 -8 -1 0 -1 -1 1 14
1532257495505020 5 70 -14 -5 -2 -7 -1 11
1532257495542931 8 80 41 3 2 3 2 -3
1532257495565863 32 44 43 5 4 6 5 17
1532257495602769 -17 -86 -15 -4 -5 -3 -2 -11
1532257495625698 -6 3 -38 -4 -4 -1 -4 2
1532257495639660 -7 58 -4 -1 0 0 1 1
1532257495670578 -13 -57 -7 -1 1 -4 -2 -1
1532257495714460 -1 -6 -4 -2 -1 -1 0 -1
1532257495730418 0 -14 -23 -1 1 0 -3 2
1532257495760337 -6 23 14 17 3 1 -1 0
1532257495790258 6 -2 8 -6 -3 -2 3 3
1532257495820186 1 -24 -57 14 7 3 2 4
1532257495842119 0 -9 -2 4 1 -1 -1 -2
1532257495887996 -6 2 -2 -24 -7 -4 -2 -5
1532257495925895 -4 -13 28 -42 -11 -2 -2 -1
1532257496030614 3 5 -15 -6 5 2 1 1
1532257496142316 5 -3 -70 6 5 3 2 1
1532257496218113 3 2 29 4 6 2 4 7
1532257496331809 -2 -7 -1 -5 4 2 1 -1
1532257496428551 -3 1 4 2 3 17 -1 -2
1532257496548231 -9 -25 0 -1 -5 7 -2 -8
1532257496601089 -2 8 0 4 5 2 -2 -3
1532257496645969 8 34 41 3 1 4 2 4
1532257496667924 3 -4 -17 4 1 0 1 0
1532257496741713 -3 -5 0 -3 -1 1 0 -2
1532257496810529 2 12 22 -8 -3 3 0 -1
1532257496887324 -5 -13 -25 -4 -3 -4 -5 -3
1532257496946177 -2 -7 -2 -2 0 2 -3 -2
1532257496968112 3 19 35 -1 -1 -1 -2 0
1532257496982070 1 -6 -16 -4 0 1 1 1
1532257497050886 8 -15 17 21 3 0 -1 1
1532257497095766 -6 -30 -57 14 7 1 0 -1
1532257497124689 -7 -79 -12 4 1 2 -1 -2
1532257497147628 -8 -22 -44 -5 4 2 3 -2
1532257497161590 4 -24 -31 7 -1 -2 -2 -1
1532257497208465 -10 -42 -31 0 1 1 -2 -1
1532257497230407 1 -15 -67 -6 -6 -3 -1 0
1532257497292240 3 24 64 2 -3 -2 0 -2
1532257497328145 -2 65 -80 0 -2 1 3 4
1532257497389980 -6 -5 29 -4 -1 -1 4 7
1532257497447825 -3 -10 54 -1 -2 -10 2 3
1532257497465777 7 -2 57 3 0 -2 4 7
1532257497530604 3 -31 -23 -2 -2 38 -8 26
1532257497608407 -5 15 -3 -2 -2 -2 1 13
1532257497720096 24 6 -28 -5 -3 7 23 99
1532257497733061 -6 17 -18 -11 -25 -20 54 24
1532257497756000 9 -8 44 1 -13 -98 -16 14
1532257497800886 3 -8 -46 -12 0 12 -10 -3
1532257497830801 0 -27 31 30 6 8 -1 -15
1532257497853740 -1 -17 -7 0 -1 0 -2 0
1532257497869696 -19 12 -9 -8 -3 0 -4 -15
1532257497944497 -1 -36 -32 -7 1 3 -4 -4
1532257497956465 0 -8 -36 -13 3 5 32 -1
1532257497980401 8 9 -17 1 -7 -5 -17 -5
1532257498003343 4 20 37 22 0 4 5 -2
1532257498056198 3 -23 -32 -5 1 7 32 11
1532257498084123 4 32 21 6 2 -3 1 -17
1532257498107070 5 33 20 1 -1 1 -16 -17
1532257498175878 23 12 -17 2 3 4 -36 -13
1532257498196822 5 12 -27 -2 5 4 2 -6
1532257498250687 -4 -4 -8 1 2 -6 -15 -15
1532257498256662 13 115 1 1 2 3 14 41
1532257498290572 59 48 16 7 4 13 10 19
1532257498310518 -56 -53 -1 -2 -5 -18 -39 -17
1532257498333457 44 47 5 0 0 -1 -1 58
1532257498430197 42 -20 -12 -6 -8 -16 11 25
1532257498440171 -65 22 10 6 8 11 19 0
1532257498512977 17 -22 -40 -15 -4 -4 7 6
1532257498543895 -2 -3 -30 -1 -2 4 9 -2
1532257498587777 -6 -4 -1 1 0 3 -4 -8
1532257498610715 -3 45 -1 -4 2 1 -5 10
1532257498646619 -4 44 10 1 1 3 1 0
1532257498655596 9 9 -13 0 2 2 0 12
1532257498693494 0 125 -71 -3 0 1 -6 -5
1532257498754332 -3 37 -15 4 0 0 -5 -2
1532257498767297 -2 -19 4 -4 -3 -2 2 -5
1532257498814171 -2 17 17 1 0 -2 -4 -8
1532257498873014 4 2 -20 -6 2 -2 0 2
1532257498886993 3 1 54 -5 -2 -2 -1 0
1532257498917893 9 29 46 -1 2 1 3 2
1532257498946816 1 -6 34 -4 -4 -1 1 0
1532257498976737 1 10 5 13 3 3 -1 0
1532257498994691 1 -1 6 -1 -2 -1 -1 -2
1532257499040573 -2 13 6 -13 -2 -2 -3 0
1532257499077467 2 5 2 -7 -4 -2 0 1
1532257499092427 3 6 -6 -2 1 0 0 1
1532257499137312 -3 -6 0 8 -3 -1 0 0
1532257499150273 -2 -4 -27 22 9 1 1 0
1532257499203131 -3 -39 29 -10 -3 -1 -2 -4
1532257499233051 2 4 6 -14 -3 0 0 -1
1532257499361707 -10 69 15 -2 6 1 -13 -1
1532257499398608 14 6 -120 32 5 -5 0 3
1532257499420550 0 -56 -18 -11 11 6 1 14

1532257499495395 -3 -20 6 -4 -5 -8 -6 -7
1532257499509358 7 6 -26 -6 -5 -7 -4 4
1532257499541275 1 -9 20 6 -2 1 -1 -3
1532257499586153 -2 -5 -20 3 1 1 -1 -2
1532257499624090 -5 -14 8 -5 -1 8 -2 0
1532257499682938 -1 -4 -2 -1 -2 -3 1 0
1532257499742813 -8 -2 -9 -5 -3 -1 -2 -4
1532257499764754 -4 16 7 -1 0 -1 0 0
1532257499780721 1 -8 -5 0 -2 -1 -1 0
1532257499811628 -10 10 10 -4 -4 -2 -1 0
1532257499862538 0 12 -13 -8 -2 -1 1 -1
1532257499878496 3 -17 -7 0 0 0 -1 -1
1532257499939333 1 -6 0 -1 -1 0 -1 0
1532257499975236 1 6 -7 1 0 -2 -1 -2
1532257499989199 -1 -10 -9 2 -1 -1 0 1
1532257500049039 2 6 3 -2 0 0 -1 0
1532257500087935 -14 10 11 -11 -6 -2 -5 -3
1532257500154760 -1 6 3 1 0 0 -1 0
1532257500185674 4 2 10 0 2 1 1 0
1532257500200634 -2 5 1 -2 0 -1 -1 0
1532257500215593 -2 -8 0 -3 -4 -1 -2 0
1532257500259477 -1 -10 -3 -1 -3 -2 -1 -3
1532257500312335 0 13 21 1 0 2 0 -2
1532257500358213 -4 -13 -33 -1 -2 0 -3 -2
1532257500372175 -1 -12 7 1 2 -1 0 -1
1532257500410074 -2 -14 -57 -4 -3 -1 0 -1
1532257500420047 13 7 22 -2 -2 3 -4 -2
1532257500470911 -9 11 -5 -4 0 -8 -6 -6
1532257500560694 13 -32 -26 -4 -14 -56 -13 46
1532257500598593 -7 -7 -13 0 5 -9 -20 -59
1532257500635494 6 4 33 -1 -2 -9 1 12
1532257500695334 7 30 48 22 7 2 5 15
1532257500704309 -8 -23 72 4 0 2 -3 -10
1532257500732236 -1 -8 -17 -11 -2 1 -2 1
1532257500794070 -4 -11 -11 -11 -2 -2 1 0
1532257500801052 1 -2 -13 -3 -1 -4 -2 -1
1532257500837953 -1 15 -7 -15 -9 -4 0 -2
1532257500851916 -1 -3 3 -12 -5 -3 -1 -1
1532257500874854 1 -5 -6 0 3 -1 -1 1
1532257500897793 1 -7 15 15 0 1 4 2
1532257500911756 -2 -5 8 -12 -6 -4 -2 0
1532257500934695 -2 -28 -8 -8 -2 -1 -1 1
1532257500966608 -3 -11 -20 -2 -2 -2 1 1
1532257500979574 -1 5 -14 0 -1 -2 -1 0
1532257501026449 -2 -21 13 6 1 -2 -1 -1
1532257501054374 1 3 48 1 1 -2 -2 -1
1532257501077313 -2 3 -26 -5 -1 -1 -2 -1
1532257501100252 -4 4 -20 15 0 -3 -1 -1
1532257501122193 -1 -3 8 -1 -3 -1 -1 2
1532257501160091 0 13 0 0 -3 -3 1 1
1532257501174054 2 3 38 1 4 3 3 0
1532257501219959 -1 0 -29 -4 -3 0 -1 -1
1532257501242898 -1 -30 -14 -4 2 3 2 1
1532257501348615 4 2 -38 4 7 1 -6 2
1532257501362578 2 12 54 8 2 7 -1 0
1532257501437378 12 77 88 25 22 95 88 -19
1532257501520157 1 17 76 22 4 51 13 8
1532257501542102 5 7 78 16 0 -103 -12 1
1532257501602936 -5 -5 11 0 -4 21 3 3
1532257501677735 6 -3 -28 -8 -7 17 -18 -1
1532257501714637 -17 -6 20 -8 -4 19 -7 -6
1532257501797415 19 5 9 -2 0 13 -2 -3
1532257501820354 -1 -1 -39 -2 -1 8 3 0
1532257501842296 -25 -12 27 4 2 40 0 -8
1532257501955991 -2 -3 -22 3 3 1 6 -5
1532257501999873 -4 -53 -40 -6 -5 -3 -3 -8
1532257502084665 8 79 21 2 1 2 5 -15
1532257502143490 -3 0 8 -1 -1 -1 -2 -5
1532257502203329 -1 57 5 9 4 -2 -3 4
1532257502240231 -14 -40 7 -5 -1 -3 -6 -13
1532257502300071 5 3 -30 -9 -8 -7 -2 -4
1532257502323010 13 -27 1 -3 -4 -1 2 -13
1532257502382850 -10 3 34 2 0 -1 -9 -22
1532257502397810 -1 -28 43 3 0 -5 -6 -5
1532257502419751 1 -81 16 0 -1 -1 4 22
1532257502444684 9 42 -92 6 1 -4 3 -10
1532257502457650 13 51 -3 -2 0 4 12 -2
1532257502503527 -8 2 -24 -4 -3 -1 -6 -2
1532257502563366 0 42 1 -11 -2 -1 0 4
1532257502683047 6 18 -5 22 7 2 2 1
1532257502735906 -12 -19 -50 -3 -2 -2 -1 -3
1532257502756850 -6 -14 -6 -11 -3 1 -4 -1
1532257502802728 -4 -4 43 -8 -5 -2 -1 -2
1532257502894482 -4 -13 -3 -10 -5 -4 -3 -2
1532257502997207 3 6 -58 -8 -3 1 0 -1
1532257503042087 3 -9 -4 4 3 -2 -1 -2
1532257503139838 -2 6 -4 1 0 5 -1 -2
1532257503208642 -2 10 14 0 1 0 -1 -4
1532257503498865 7 -12 2 3 1 0 -2 -4
1532257503553718 -1 -7 -11 -2 -2 8 5 1
1532257503604583 -9 8 4 1 -2 15 -3 -7
1532257503665419 4 -2 -7 -7 -2 0 -1 1
1532257503688360 -2 -9 17 -6 -3 -2 3 1
1532257503709303 -4 2 5 2 -1 -3 -3 -2
1532257503727254 2 -10 -58 0 1 1 -2 0
1532257503762162 -2 3 -7 0 -1 -1 -1 -1
1532257503808039 -1 -2 -35 0 -3 -1 0 0
1532257503905777 3 1 -13 -8 -5 1 -1 -1
1532257503973595 -6 8 14 -2 1 1 -1 -1
1532257504025457 -17 -5 -62 0 -1 0 2 0
1532257504093276 -1 7 -4 2 1 0 -4 -11
1532257504116215 -4 -14 -40 -1 0 0 -3 -4
1532257504170071 -7 -25 -15 4 3 1 -4 -3
1532257504182038 -2 -6 0 -3 0 -2 -1 -17
1532257504227916 7 -9 16 0 2 1 7 1
1532257504294737 -15 30 16 -3 1 9 1 6
1532257504327649 1 12 -49 1 0 0 4 1
1532257504414417 8 -13 -58 -6 8 10 7 6
1532257504468273 39 5 2 0 -2 -30 -8 36
1532257504491212 2 -12 6 -6 -4 -14 1 -15
1532257504527116 -4 -9 -5 -1 0 2 -4 -5
1532257504578977 2 28 113 8 -3 -1 -15 -26
1532257504631836 -7 -13 -18 2 7 4 2 -13
1532257504657767 -2 -23 -7 -5 1 10 -2 -21
1532257504708631 -10 -9 19 -6 -5 -6 -2 -8
1532257504745532 -8 0 5 -7 -3 0 0 -6
1532257504767473 -1 -3 -1 0 -1 -6 -3 -1
1532257504813350 -4 -11 4 -4 -4 -2 -4 -9
1532257504851255 15 -7 25 -9 -3 0 -8 1
1532257504897126 -6 -10 -2 13 5 4 10 -3
1532257504928058 -7 5 9 14 3 -3 -24 -9
1532257504949985 13 24 35 0 -2 2 17 -19
1532257504983894 -5 14 31 -6 -5 -14 -103 -37
1532257505044732 -22 11 4 2 -4 -1 4 47
1532257505083628 30 11 2 4 3 -2 33 -13
1532257505127510 -31 21 5 3 -3 -16 -112 -30
1532257505150449 40 51 7 5 8 25 83 7
1532257505248188 15 85 8 4 3 -2 51 43
1532257505271126 -10 44 -3 -3 -5 -11 -14 -24
1532257505330965 3 -34 -20 -17 -12 -15 6 6
1532257505343931 6 -8 14 8 11 6 89 18
1532257505375847 -8 -5 4 5 4 8 25 2
1532257505390806 -17 -64 -10 6 -2 -6 -38 11
1532257505466604 0 0 8 4 0 2 8 -17
1532257505497521 -2 -11 -1 -5 -2 0 -3 -5
1532257505511484 1 50 -16 -3 -1 0 6 -3
1532257505570329 -6 123 13 1 0 3 2 -5
1532257505607227 1 -70 -40 0 -2 -1 1 -2
1532257505699980 -8 -59 -22 -5 0 -1 -1 -3
1532257505735884 -2 23 8 1 0 -2 -1 -1
1532257505780764 3 8 -26 7 -1 -3 -1 0
1532257505834633 6 22 75 2 -4 -4 -3 -1
1532257505870523 3 18 -35 -2 0 -1 -1 0
1532257505915403 -1 12 17 -6 1 1 -2 0
1532257506004166 3 12 -15 -1 -2 0 0 2
1532257506027105 0 13 10 6 0 2 2 1
1532257506051041 5 19 18 2 3 -1 0 -1
1532257506095921 0 -15 21 -1 -2 0 1 -2
1532257506139803 -4 -38 -25 -1 -3 -2 -6 -7
1532257506148779 -21 -51 -14 -7 0 -6 -11 -91
1532257506206625 5 15 -20 -2 8 27 0 -6
1532257506283419 11 -3 -41 2 1 -6 -6 7

1532257506314337 -3 2 90 13 5 4 -12 -3
1532257506381158 2 -22 8 -1 0 1 1 1
1532257506410080 -1 8 -1 -11 -7 -1 2 3
1532257506446982 -4 -8 7 -4 -2 -1 0 -1
1532257506470918 -5 3 6 6 4 8 1 -5
1532257506506822 -5 -2 2 0 0 1 1 5
1532257506544721 1 -9 -4 2 1 -1 -3 -2
1532257506635478 -5 -19 10 0 -2 -2 0 -4
1532257506687339 -1 -4 -28 -3 -1 1 -1 -2
1532257506740198 5 3 0 -1 -1 -2 0 -1
1532257506794053 -1 0 7 -1 -1 -2 -1 1
1532257506807019 2 -3 -6 -2 -2 11 0 0
1532257506866859 5 16 10 -1 -1 -4 1 2
1532257506890797 -6 -4 -9 -3 -1 -4 -6 10
1532257506935691 -8 -4 1 1 0 5 0 -12
1532257506972881 -3 14 18 0 -3 -2 -1 -7
1532257507009783 -5 -7 -7 -2 1 -4 -3 0
1532257507086577 -1 -12 6 1 0 -5 -1 -1
1532257507117495 0 7 5 -1 -1 -3 -4 2
1532257507137441 -1 -7 -1 -2 -1 -4 -1 -4
1532257507153399 10 -13 -17 -1 -2 -2 -4 -2
1532257507189303 -9 -6 -2 0 3 2 1 -1
1532257507213239 -1 13 4 -1 -3 -3 -1 -1
1532257507249142 2 -11 -2 -1 -1 0 3 10
1532257507273078 0 -22 -13 -1 -3 -1 0 -5
1532257507317972 -4 -6 -5 -1 -3 0 -1 0
1532257507357851 4 -27 -9 0 1 0 4 0
1532257507369819 0 2 -9 -1 -2 -1 -2 0
1532257507489499 -2 13 3 5 2 1 1 -3
1532257507535389 -1 15 71 -1 1 1 1 3
1532257507566295 -7 -1 24 4 0 1 -1 5
1532257507603195 -7 -1 0 -2 -2 0 -4 -8
1532257507665045 10 -22 -9 -2 -4 11 -4 5
1532257507670017 -3 39 26 1 4 -19 6 9
1532257507767756 -4 15 10 -4 -4 -11 -2 -12
1532257507797690 -8 -25 11 1 -1 4 -1 -7
1532257507813647 1 0 -50 -11 -1 -1 -2 -3
1532257507882463 1 3 -6 1 2 -4 0 -1
1532257507955268 2 -11 -9 -5 -1 -1 0 0
1532257508015108 -1 2 1 -23 -8 -1 -1 -1
1532257508052013 0 16 56 11 0 -1 -1 -1
1532257508093897 -1 -16 9 -2 -4 -2 0 -2
1532257508173684 -1 -11 5 -6 0 -1 0 -3
1532257508218564 2 9 27 -16 -7 -1 -1 0
1532257508240506 2 -6 -100 -18 -7 -2 -2 -1
1532257508277407 0 16 -28 4 -11 -7 -2 -1
1532257508337247 3 3 8 -1 -33 0 0 1
1532257508375146 0 -3 11 -1 -3 -4 -2 0
1532257508434986 -6 5 -28 3 9 -6 -2 -3
1532257508539705 -1 -25 3 2 0 2 2 4
1532257508615503 11 -1 -7 4 8 1 4 12
1532257508645423 10 -12 -6 -4 -2 0 -3 -1
1532257508720223 -14 1 1 -6 -5 -2 -3 5
1532257508795022 -12 32 4 -3 -2 -1 0 -8
1532257508818958 34 -9 -10 6 4 2 -3 2
1532257508900740 -22 12 19 2 1 0 3 4
1532257509020420 -28 21 -3 3 -1 2 -5 -12
1532257509087256 -15 15 -15 -1 3 3 1 2
1532257509163038 1 9 20 -4 1 -8 -1 5
1532257509214900 -2 -2 0 -14 -4 0 0 0
1532257509237839 -4 -69 29 -8 -1 -2 0 -5
1532257509260777 -1 4 11 -6 -8 0 -5 2
1532257509336574 1 -33 -39 -4 34 24 5 -1
1532257509394419 5 2 12 0 -3 -4 5 -3
1532257509440296 4 17 -16 -2 -3 -1 -2 -34
1532257509454260 -9 -2 -15 -3 -2 -2 -1 28
1532257509538049 -2 -20 24 -1 2 1 -3 15
1532257509582915 -1 -69 -63 -9 -4 -1 -6 1
1532257509634776 10 65 24 3 1 0 -3 -6
1532257509657716 5 -17 5 2 0 -1 0 10
1532257509703593 0 -5 -30 -6 -2 -8 -1 5
1532257509785388 -4 -33 -16 -2 -1 1 -1 -3
1532257509808313 -1 21 28 28 2 6 2 1
1532257509860174 3 14 -8 1 3 -1 -4 19
1532257509891091 1 -13 5 6 5 -1 3 1
1532257509913034 2 24 6 -3 1 2 -1 -3
1532257509944948 5 2 2 7 6 1 1 6
1532257510002792 10 -23 -20 19 16 6 4 8
1532257510063629 -2 17 80 -17 -4 -4 -3 -3
1532257510370809 1 -3 -18 -3 0 -7 -2 -20
1532257510543347 -3 1 0 0 -5 -13 -2 -34
1532257510698931 -1 -5 -1 0 3 7 7 0
1532257510768744 5 14 0 42 14 5 1 -5
1532257510888424 -2 -8 -1 -5 -2 0 0 -1
1532257510963225 0 -5 5 7 5 2 1 2
1532257510986167 -1 -4 -7 0 -4 -1 0 1
1532257511029049 -3 -18 -3 2 -2 -1 -2 0
1532257511052985 -2 22 -15 6 1 -1 0 -1
1532257511082905 4 -14 41 4 -1 0 0 1
1532257511142744 -4 -57 -5 -6 1 1 -1 -1
1532257511165698 -5 -31 -102 7 2 0 -1 -1
1532257511227518 -2 24 3 5 3 1 -5 -3
1532257511331240 -8 -16 -5 -4 2 2 3 -1
1532257511359165 -31 12 5 6 2 1 1 5
1532257511382104 -11 38 109 6 -3 -2 2 -1
1532257511459896 6 5 -49 -7 -1 4 2 22
1532257511465881 -13 42 17 1 -4 -3 3 4
1532257511525720 -24 35 22 3 0 2 -3 -24
1532257511561624 -2 -24 -6 -14 -2 -4 -7 -2
1532257511608513 -20 -22 -1 -5 -4 16 -4 -28
1532257511630440 -2 37 -22 3 9 47 7 -20
1532257511654377 -30 69 50 6 4 -5 -4 -9
1532257511682301 -4 23 41 11 -11 -13 -14 3
1532257511706238 26 -75 -106 -11 -1 8 -10 0
1532257511728180 -10 -52 -33 2 -5 -62 -43 -29
1532257511742142 -4 90 19 4 -7 -62 9 -17
1532257511781051 -12 -45 -12 9 14 17 -6 -2
1532257511810957 3 7 -65 -16 11 121 10 -13
1532257511825918 9 -40 -68 -14 -1 -25 0 6
1532257511855838 9 -27 80 5 4 -19 1 21
1532257511879774 1 -18 -70 -6 -3 -46 -9 -29
1532257511894734 3 -25 -93 -11 0 2 13 10
1532257511921661 6 21 12 2 -1 -2 -1 6
1532257511945597 2 12 -24 -7 1 9 -7 1
1532257511990478 9 6 -14 5 -7 -5 3 2
1532257512005438 -5 14 45 14 2 1 22 1
1532257512027379 -6 -11 0 -3 -1 0 1 3
1532257512065294 -16 -24 -25 14 0 -4 -13 -8
1532257512111155 8 -15 -5 -4 -3 -3 -5 5
1532257512148056 9 3 -20 -1 -2 11 59 -5
1532257512170995 7 -40 -37 -8 -8 -11 46 27
1532257512207896 -6 48 25 -6 -4 -12 -8 -23
1532257512221859 -81 -17 -24 -5 -3 -1 -79 1
1532257512230834 -9 27 33 7 0 10 50 59
1532257512267736 73 -8 -16 5 -4 -6 -16 19
1532257512304637 5 -32 -16 -5 0 -3 -10 57
1532257512367470 6 92 -3 10 6 -7 -12 -33
1532257512388413 -31 -13 -15 1 4 5 8 -77
1532257512432295 52 35 -17 -16 -12 -14 -4 -43
1532257512471192 -68 -65 -12 -20 -9 11 -21 -72
1532257512552974 88 48 24 34 18 -11 12 -14
1532257512589874 -2 38 -7 2 4 -48 34 13
1532257512658691 -23 41 24 7 4 39 33 33
1532257512710552 9 0 -9 25 8 -9 -7 15
1532257512748450 3 21 -16 2 0 12 1 30
1532257512784355 -1 -29 30 -4 -2 3 -5 -1
1532257512793330 4 24 -10 0 -3 -2 1 0
1532257512844195 -6 101 -70 2 -1 -1 -1 -5
1532257512867133 -2 4 -9 0 1 -1 -4 -2
1532257512987810 -10 -33 -22 -7 -8 -2 -3 -4
1532257513070589 3 27 31 -2 2 2 1 2
1532257513093528 1 14 10 0 0 2 2 -1
1532257513221186 6 1 -10 -8 -3 -2 -1 -1
1532257513323912 -3 13 17 -2 5 -22 14 3
1532257513369790 -27 -80 -7 2 4 25 3 5
1532257513429629 -4 -12 -39 -3 2 42 4 -32

1532257513514402 -7 33 45 42 12 -3 -9 -14
1532257513596308 -9 -12 20 5 -1 1 -2 -3
1532257513633209 5 -6 1 -13 6 0 -8 -2
1532257513647172 -21 -17 -5 8 -4 -4 0 -4
1532257513671108 4 -2 4 -14 -4 -1 1 4
1532257513722969 -6 -47 -6 1 2 -1 -12 -7
1532257513752889 2 5 -11 23 7 0 1 4
1532257513766852 4 26 2 1 1 0 4 -1
1532257513775833 -5 -3 -4 -1 2 -1 -3 -2
1532257513812989 -2 33 -1 3 -1 0 -2 -1
1532257513835930 -2 -1 -9 -1 2 -3 0 1
1532257513910728 -2 -12 11 -3 -18 2 -2 1
1532257513933666 4 0 -5 2 14 0 -2 6
1532257513955615 -14 -37 -23 -13 -11 -6 -3 -5
1532257513999491 -6 3 21 -2 -5 -4 -5 -13
1532257514029411 5 0 -1 2 -2 0 2 22
1532257514067309 4 17 -2 3 3 0 -3 -7
1532257514090248 -1 -2 -6 -6 -4 -2 -3 -14
1532257514186989 -5 -3 -2 -3 -3 3 5 -2
1532257514293711 2 10 1 0 0 0 -10 -42
1532257514375341 -5 1 24 3 5 -5 -8 13
1532257514532918 -1 22 43 16 -12 -43 -10 -39
1532257514638670 3 -16 -48 -4 -5 -16 -18 17
1532257514674575 -4 11 33 -2 -7 -7 -12 -54
1532257514735413 3 24 -37 -1 -2 -7 -4 -22
1532257514772658 5 -14 -63 -10 -4 3 3 3
1532257514818535 -1 2 93 10 -8 11 12 0
1532257514855436 -1 -5 -109 -21 -4 -20 -5 -3
1532257514878375 -2 2 76 7 1 6 1 -1
1532257514915275 2 -1 -54 -7 -2 48 2 -3
1532257514978107 -3 7 85 14 15 -26 -30 -20
1532257515004038 4 43 -19 -4 -1 -22 -90 9
1532257515042935 4 11 -13 -1 5 8 14 2
1532257515063878 -1 -13 -86 -8 3 0 -6 6
1532257515087815 -2 -7 11 0 -6 4 5 -1
1532257515109756 8 -5 13 -5 2 -2 22 13
1532257515131697 -11 42 -10 1 4 5 -3 2
1532257515184564 -4 -12 2 1 1 2 4 -12
1532257515244396 0 49 3 3 1 0 2 -10
1532257515289276 0 -7 -2 -2 0 0 2 -2
1532257515343132 2 12 0 3 1 -2 -2 -2
1532257515379868 0 5 0 -7 -6 0 -1 -2
1532257515424749 2 -1 -2 -3 -6 -3 -2 1
1532257515463644 -4 -14 -2 0 -3 0 0 -1
1532257515492567 2 1 10 -19 -9 0 1 -1
1532257515506529 -2 -3 -59 -18 -11 -6 -2 -1
1532257515530465 2 -3 -15 0 8 2 -1 0
1532257515544428 0 9 2 -7 -5 -6 -1 1
1532257515567367 -12 -18 13 -1 -2 -1 0 -2
1532257515590306 6 1 1 1 0 -1 -2 -2
1532257515604268 -1 -8 16 1 11 2 2 1
1532257515694056 -4 2 14 8 -9 -3 -1 -2
1532257515784813 0 -3 9 -3 -2 -3 -2 -1
1532257515829693 1 21 -8 1 0 -1 -1 1
1532257515874573 -2 -18 1 0 -1 0 -2 -1
1532257515898509 2 29 26 2 1 1 -3 -2
1532257515911474 -2 10 5 2 -1 42 2 -1
1532257515942392 6 -2 -42 2 4 1 4 2
1532257515972312 11 4 -11 -5 -2 1 -1 3
1532257515995250 -2 -13 -1 1 2 -1 2 0
1532257516026167 -2 3 31 0 -2 -6 0 1
1532257516032152 0 -4 3 -2 -4 -5 -1 0
1532257516055090 -4 -9 -13 -3 -5 -4 -3 -3
1532257516091992 3 13 -18 -5 0 -2 2 2
1532257516114930 -1 -1 -4 3 0 -3 -1 0
1532257516160808 12 -5 -6 0 -2 -3 -2 0
1532257516182749 -15 18 -10 -3 1 5 3 3
1532257516220648 10 2 3 -2 0 2 -2 -2
1532257516234611 8 -17 6 -8 -4 -3 0 1
1532257516265528 -6 -2 7 4 0 -2 -4 -2
1532257516280488 1 8 -1 6 2 -1 1 0
1532257516318386 0 -6 -1 5 -2 -2 -2 0
1532257516378226 -2 9 6 4 3 2 0 0
1532257516401165 -1 13 -7 -6 0 -2 -1 -1
1532257516438066 9 -1 7 4 -4 -3 -1 0
1532257516474968 1 -11 -11 -5 -2 0 -1 0
1532257516497906 -1 67 63 -1 -2 -3 -1 1
1532257516559741 1 -5 4 2 -5 -4 -1 -1
1532257516564728 0 11 13 -1 -3 -2 -1 -1
1532257516587666 -5 -12 -27 -10 -3 -3 1 -1
1532257516640541 1 -10 -4 -1 -2 -5 5 -2
1532257516654488 2 -5 -9 1 -2 2 0 -1
1532257516700365 0 -13 -5 -2 -1 -12 -2 -2
1532257516738264 14 -43 -21 1 1 3 -3 -2
1532257516760205 -6 -30 -14 -3 -1 0 -1 -1
1532257516782146 -17 37 15 2 0 13 2 -5
1532257516815058 -6 -3 -8 -2 -2 5 -1 0
1532257516844978 1 0 -22 1 4 0 1 -1
1532257516887864 0 4 -3 -2 0 -2 -1 2
1532257516924765 3 24 12 -3 0 6 0 -1
1532257516942717 5 -21 -3 -4 -3 0 0 -1
1532257516978620 -2 5 7 -4 -3 -2 -3 -1
1532257517000562 -1 0 -4 0 -1 -2 1 -3
1532257517052424 0 -2 5 10 3 6 3 0
1532257517089325 -6 12 34 -7 -3 -8 -5 -6
1532257517144178 5 -8 -5 -7 -12 -33 -5 2
1532257517166120 11 22 -27 -2 -3 -11 -5 -10
1532257517240919 -2 17 -17 -1 9 44 6 13
1532257517262860 -2 -9 0 -5 -3 12 2 -1
1532257517284801 -2 -13 -91 -4 -5 12 3 8
1532257517330679 -4 -4 -79 -20 -11 2 -5 0
1532257517351624 4 -15 28 6 1 -3 0 2
1532257517383538 1 -1 -17 1 2 9 1 -2
1532257517420439 3 -10 -8 52 45 13 4 4
1532257517480279 0 -10 -62 42 18 4 3 2
1532257517503218 0 7 21 0 -7 2 0 -1
1532257517585997 3 -7 -94 -12 -1 -4 0 1
1532257517622898 0 1 -20 -2 -5 -3 -1 -1
1532257517660797 -1 16 34 6 -1 -1 0 -3
1532257517696701 -4 -1 -21 -14 -2 1 -3 -4
1532257517720636 -3 -18 -94 -4 5 20 1 1
1532257517765517 5 25 -64 -20 0 -15 0 2
1532257517803416 1 -28 -48 -6 8 17 8 2
1532257517863268 1 4 107 20 18 12 -3 -1
1532257517877217 -2 5 17 11 9 0 -1 0
1532257517908136 1 8 -47 21 39 14 2 2
1532257517946034 2 -1 -37 -25 -13 -2 -1 -1
1532257517966978 -2 -2 -20 4 12 3 0 1
1532257518026818 10 7 -1 0 1 1 -2 1
1532257518103613 -2 4 16 -2 -2 1 -2 1
1532257518154477 -4 18 9 27 4 0 2 -6
1532257518185394 6 39 4 3 1 -2 -2 -5
1532257518223293 -9 5 1 10 2 0 0 -7
1532257518253212 -26 -25 -8 -1 3 2 0 -4
1532257518268191 -20 18 -12 -6 -1 1 -1 -2
1532257518306071 27 19 -4 -4 -4 -2 0 3
1532257518342972 16 -12 17 -5 -5 -4 -4 -3
1532257518379874 -6 -43 -41 -2 -1 0 4 4
1532257518425751 -3 -40 19 5 -1 -2 -7 -5
1532257518448690 4 14 43 9 1 1 0 -1
1532257518485591 7 60 115 12 11 15 6 9
1532257518508530 2 23 71 12 3 1 11 -1
1532257518524487 -23 -12 -17 -14 -11 9 -6 -17
1532257518547443 6 -31 2 0 26 -3 7 22
1532257518568372 -2 -10 -7 -10 -13 1 -2 1
1532257518585325 -2 3 -3 -1 -4 -9 -1 3
1532257518608263 5 26 46 12 3 22 -1 -6
1532257518628217 1 1 46 10 -6 -15 -1 -1
1532257518645164 -7 4 -32 -2 -6 -13 -24 3
1532257518679074 5 -1 -5 1 -1 3 -6 -8
1532257518694034 -2 -10 -26 -5 -1 -2 -1 8
1532257518724950 -9 29 -85 -1 9 7 2 -9
1532257518755868 8 20 -14 -2 -3 -2 2 -9
1532257518785788 3 17 2 -2 1 -3 -3 -1
1532257518799751 -2 10 12 0 -6 0 3 0
1532257518823687 5 -4 43 -8 -7 2 -4 -4
1532257518859591 4 28 0 9 6 2 1 -1
1532257518868574 2 14 -7 0 -8 0 1 1
1532257518889524 -2 14 -4 -7 -3 0 -1 -3
1532257518919444 10 -23 1 13 -1 -1 -1 1
1532257518950348 -15 28 20 1 -1 -2 -1 -2
1532257518973287 -2 -19 -7 -12 -4 1 -1 -2
1532257518988247 -5 -5 -8 -5 -2 -4 -3 0
1532257519026145 -9 -4 -6 28 7 0 -2 -4
1532257519047089 11 3 -6 -5 -2 -1 -1 2
1532257519063047 -1 -12 -4 -11 -3 -1 0 -2
1532257519107926 10 27 44 30 15 1 -1 2
1532257519122886 0 2 -4 -5 -5 2 1 0
1532257519145825 -1 -2 -11 -12 -5 -6 -3 0
1532257519181729 0 -1 -63 -7 5 1 5 0
1532257519333324 -2 5 13 2 -6 -19 -7 -3
1532257519422087 1 7 37 1 -2 -18 -13 0
1532257519505863 -3 -9 -12 0 2 -3 -3 -1
1532257519648481 10 12 3 4 0 -1 -2 1
1532257519752204 5 12 -4 0 3 -13 -7 -6
1532257519841964 -6 3 1 -3 2 2 1 -1
1532257519901815 -6 -6 -4 -5 -2 -3 0 -1
1532257519955659 0 -24 0 1 -1 -9 0 -2
1532257519970620 5 9 7 -3 1 10 -1 3
1532257520015499 1 -11 -26 -28 -8 0 -1 -1
1532257520038439 -15 -20 -32 0 -4 0 -2 -5
1532257520075340 -4 -11 -33 -4 -3 0 0 1
1532257520098289 1 -8 32 -8 -3 -2 0 -2
1532257520130218 -11 -43 -10 -5 -2 -2 -1 -3
1532257520151137 -7 -1 -25 3 2 2 -1 -3
1532257520173079 2 -11 -25 0 1 0 0 -1
1532257520189036 -5 -12 62 3 -1 -2 0 0
1532257520217958 -9 -6 2 -12 -3 0 -3 -5
1532257520223943 5 -3 12 3 -2 -1 -2 1
1532257520247878 -3 -24 -72 -4 0 0 0 0
1532257520270817 -1 2 -4 -3 -5 -3 -2 -1
1532257520284780 1 93 20 1 -2 -1 0 -2
1532257520362572 8 14 -73 2 1 1 2 3
1532257520383516 -5 75 106 7 -3 -3 -1 -2
1532257520452332 -3 -34 14 2 -1 0 -1 -4
1532257520465297 3 -37 -87 3 4 -1 -2 -2
1532257520494220 7 15 68 -3 -1 -2 0 29
1532257520524139 -16 14 85 7 0 0 -2 -1
1532257520571015 -14 18 -60 10 4 3 0 1
1532257520583979 0 -11 14 4 3 0 4 6
1532257520615897 30 -23 -78 -5 -1 -4 3 40
1532257520644817 -29 16 57 4 6 12 -4 -16
1532257520674737 7 0 86 14 0 -6 -2 -5
1532257520699672 -6 16 60 7 -1 -6 -3 -11
1532257520745548 10 72 90 7 0 2 0 -1
1532257520797409 39 -28 -45 -12 -5 -19 -4 31
1532257520833316 20 9 11 2 3 -3 -2 17
1532257520871212 -1 40 127 23 7 -35 -13 6
1532257520893153 -8 56 19 8 -2 -31 -4 -22
1532257520952993 -8 -12 -50 2 4 -1 2 -20
1532257520967953 2 -2 -20 2 3 -2 -3 -18
1532257521020812 -31 30 -21 -6 -5 -4 -5 -23
1532257521059708 3 -11 -11 -11 -7 -5 -1 -1
1532257521081649 -21 -3 20 -2 -1 -1 -3 -15
1532257521103590 -11 -15 -13 -25 -2 0 0 -1
1532257521133510 4 -26 -15 3 -1 0 -3 -2
1532257521155452 -2 -9 -30 -14 -4 -3 0 -5
1532257521172407 -14 -5 -3 -1 -2 0 8 -15
1532257521202333 15 -10 -38 -11 1 2 5 -1
1532257521216289 0 11 2 1 4 2 -3 14
1532257521232247 1 6 -2 -3 -5 -9 7 -7
1532257521276129 -51 -48 -27 -8 -2 -2 -12 -6
1532257521290092 1 -19 -26 -2 1 -5 -33 -29
1532257521313030 -55 -40 -2 -11 -13 -26 -22 28
1532257521334972 -26 -17 -14 -12 -5 -3 -22 -35
1532257521357910 16 41 -6 1 2 7 -59 -15
1532257521394812 7 -7 2 3 3 9 -4 -22
1532257521432710 -8 12 9 -1 -3 -10 14 10
1532257521454651 4 54 -8 -1 3 15 1 -14
1532257521469611 -32 -55 5 8 7 1 -17 -15
1532257521508510 5 76 -11 -12 1 2 -28 33
1532257521531446 22 13 10 -15 -13 -18 -83 11
1532257521584305 39 -3 -3 -13 -16 -29 -1 -6
1532257521612231 -24 39 8 17 6 9 1 -11
1532257521635172 -10 -21 -9 -18 -5 -2 127 14
1532257521672070 27 -17 -12 7 8 13 21 16
1532257521695008 2 6 11 6 6 15 30 -2
1532257521740886 7 10 5 2 8 9 -1 15
1532257521754849 -14 -12 -6 -8 -3 -6 -4 20
1532257521826657 15 3 4 3 2 3 -11 2
1532257521844609 0 15 17 -1 0 2 4 -6
1532257521890486 7 -1 49 -5 -2 1 0 -1
1532257521935367 3 26 15 0 3 10 0 1
1532257521950326 3 -23 -17 -1 -3 -3 0 -1
1532257521980246 5 41 -57 -15 -3 -3 -3 -4
1532257522003185 0 16 3 2 0 0 0 -2
1532257522010166 3 -20 127 21 8 0 -1 -1
1532257522056043 7 44 -34 -11 0 -1 -1 -3
1532257522077984 2 -11 -64 -15 -1 2 3 3
1532257522123861 -8 21 42 -13 -11 -6 -5 -8
1532257522129846 -13 37 -16 0 1 3 2 3
1532257522174725 -3 -9 -27 0 -2 -3 1 1
1532257522190683 4 7 23 -2 -3 -4 -5 -2
1532257522250523 11 6 1 2 3 2 0 0
1532257522295403 -3 -35 -53 0 4 3 1 0
1532257522332305 9 1 -32 8 3 0 1 2
1532257522357248 2 2 -25 -7 -1 -5 -1 -9
1532257522425065 -23 -15 -19 -1 1 -3 10 -25
1532257522438021 -27 -81 -8 0 3 8 -8 6
1532257522475921 4 13 -18 3 2 4 -3 -1
1532257522497862 4 10 -26 -23 -10 -13 3 9
1532257522512822 -3 -11 25 -6 -2 18 0 -8

1532257522535761 -8 -34 32 -2 0 6 0 5
1532257522558700 -1 14 31 10 1 2 -1 3
1532257522572661 -9 30 5 -7 -6 -1 -4 -2
1532257522611558 4 25 -7 -5 -4 -2 -2 2
1532257522617542 -7 33 3 0 2 -3 -4 -7
1532257522663419 1 -8 4 3 -2 -2 1 -2
1532257522669402 3 15 -11 -5 -4 -2 -1 -4
1532257522692342 12 18 15 2 3 1 1 -1
1532257522729243 -5 -13 44 -1 0 -4 -3 0
1532257522752187 13 -5 35 -2 -3 -1 -4 -7
1532257522789084 3 -33 -14 -3 -2 -1 -1 13
1532257522813034 12 22 -26 -7 -3 -3 -1 -7
1532257522858322 0 -29 -21 1 2 0 0 -6
1532257522895222 3 15 -6 2 1 2 1 0
1532257522941100 -9 -36 1 1 -1 0 0 -1
1532257522992961 -6 -57 0 0 -1 0 -4 -3
1532257523037843 4 6 2 -2 -1 -8 -2 0
1532257523075740 2 25 3 -1 0 0 0 0
1532257523098679 3 -8 -2 3 0 -1 1 -1
1532257523135594 9 -8 -1 -4 1 2 0 2
1532257523158545 -6 -26 -15 0 0 1 -1 -4
1532257523172507 -6 -5 3 0 -1 0 -1 -1
1532257523203425 1 6 1 0 -1 0 -2 -1
1532257523218385 -5 2 -2 0 0 -2 0 1
1532257523240326 -5 -7 -15 -1 1 1 1 0
1532257523255978 6 4 -2 -4 -8 0 -1 -6
1532257523284910 0 18 -5 -11 -12 -4 0 -12
1532257523315818 -7 -7 -8 -13 -4 -1 2 -5
1532257523337759 -36 -24 -63 -17 -11 -31 -10 -13
1532257523376656 6 -2 11 8 0 -22 -3 1
1532257523437505 10 -14 8 7 11 11 3 6
1532257523458437 7 -10 12 -7 -21 -34 8 -9
1532257523488357 -13 -70 -10 -9 5 -9 -2 -8
1532257523547200 -2 48 -36 -5 -22 -12 4 -4
1532257523578117 10 -60 5 22 16 8 4 0
1532257523601056 39 -49 -44 -8 2 -12 -1 3
1532257523622000 -7 40 10 2 -6 -15 -4 -7
1532257523646932 -22 -52 13 6 -4 -9 -23 -14
1532257523713754 21 -15 18 0 6 0 11 21
1532257523737690 8 5 7 -1 5 0 7 44
1532257523749658 1 72 18 12 23 3 5 34
1532257523787557 -2 18 19 -4 -7 -2 -5 -12
1532257523797530 -2 -62 2 2 4 -1 3 -11
1532257523840415 -8 10 -2 0 1 1 -2 1
1532257523854378 7 8 7 -1 -2 2 -4 -2
1532257523901252 2 -5 -15 -3 3 -3 4 28
1532257523938713 -5 -4 -22 -9 -9 1 -5 -9
1532257523960656 -3 -43 21 -3 -6 -1 -3 -6
1532257524043494 -22 14 2 0 0 5 1 -19
1532257524065435 21 -3 3 -1 -1 2 4 5
1532257524080394 2 -6 -4 -2 1 3 1 -2
1532257524103091 3 16 5 3 2 2 3 12
1532257524140992 0 -2 13 0 -2 -1 -1 -3
1532257524153957 -2 3 6 -2 -3 -1 -1 -4
1532257524214794 -1 -9 -5 -2 0 0 1 2
1532257524237733 0 8 2 -5 -5 -2 -1 -1
1532257524260672 0 5 5 -1 -1 0 -2 -2
1532257524313531 2 18 3 -2 1 1 0 1
1532257524350432 -33 13 -3 0 1 1 3 2
1532257524380352 0 -4 -2 -2 -2 0 -3 1
1532257524440932 0 7 7 3 0 1 1 2
1532257524462874 2 -12 -68 -3 -1 -4 2 -2
1532257524523711 -2 -8 7 1 0 -2 -7 -7
1532257524560614 0 6 4 1 -2 0 -2 -7
1532257524644405 -6 -5 11 0 0 5 5 -1
1532257524741131 0 -7 8 -1 0 2 2 14
1532257524763073 1 -3 26 0 -2 6 2 -6
1532257524822911 -7 -2 -43 -2 -3 -2 -2 8
1532257524882752 0 2 2 0 1 -3 2 1
1532257524957552 -2 -1 1 1 3 13 0 -6
1532257524980490 5 -2 -2 -1 -4 -6 -3 8
1532257525003429 -4 3 -8 -1 -2 -15 0 6
1532257525063269 -3 -3 -3 0 3 -5 9 13
1532257525101168 0 -5 11 1 1 -5 -4 -21
1532257525161008 0 0 3 0 1 6 4 2
1532257525220848 2 0 0 -1 0 6 -2 6
1532257525265735 4 0 0 -1 -1 -3 -7 8
1532257525579888 1 0 0 2 0 1 -2 -1
1532257525639727 -2 -1 -1 1 2 -3 3 2
1532257525730484 7 -1 -1 -2 -2 4 0 13
1532257525805718 0 1 0 0 -1 -21 7 16
1532257525843617 -7 -1 0 -1 -2 7 2 -25
1532257525865558 7 -3 -2 1 0 -4 -5 15
1532257525903457 0 1 0 1 -1 -14 4 -3
1532257525947340 3 -3 -1 -2 -2 -1 -6 -27
1532257525965297 4 -4 -3 0 -3 12 4 -7
1532257526022140 0 1 3 2 1 8 -2 18
1532257526060051 0 3 0 -1 -1 -5 -3 -29
1532257526119878 0 0 -1 1 -1 -3 5 24
1532257526126860 0 2 0 -3 -2 -7 -3 2
1532257526188705 1 31 2 2 1 12 6 8
1532257526299398 0 -23 -2 -4 -4 0 -5 -48
1532257526345822 -4 22 7 -2 -3 -2 -4 -4
1532257526405663 27 21 -5 -7 -9 -10 -7 -1
1532257526449546 -15 -20 -3 -4 -4 -4 5 27
1532257526571237 7 19 5 -1 -4 12 3 -53
1532257526622101 1 10 3 2 -3 9 3 31
1532257526848495 -8 -18 -5 2 4 7 -13 1
1532257526908336 14 3 -22 0 1 -3 1 69
1532257527035994 8 20 29 -3 -2 -1 -12 -11
1532257527148693 12 -4 -49 3 -1 0 -5 11
1532257527245434 2 5 -5 -2 -3 1 -10 3
1532257527282335 1 5 33 -2 -2 -5 -2 -8
1532257527328213 -8 -4 63 6 2 2 8 -19
1532257527402016 1 -6 -83 -3 1 -31 -1 -9
1532257527447893 1 2 -27 1 4 -12 1 -10
1532257527461855 1 -2 -6 -5 -2 29 2 -16
1532257527508730 12 -6 13 -3 -9 -23 -16 67
1532257527611455 -5 3 15 4 -3 2 3 8
1532257528010389 24 -3 -7 -2 1 0 -3 11
1532257528024351 -1 3 8 -1 0 0 -1 4
1532257528047290 -3 -13 -4 -1 0 0 -1 3
1532257528107130 1 8 -6 1 0 -1 -2 0
1532257528130069 0 5 3 -1 0 1 -12 5
1532257528155999 9 5 4 0 1 5 2 9
1532257528189909 0 -3 -10 -1 -4 -1 2 -6
1532257528229260 -9 0 1 0 -3 -21 13 -17
1532257528251215 5 3 -4 -5 -8 -19 -2 -1
1532257528347908 -1 -1 11 7 10 20 3 -4
1532257528369862 -3 4 -4 2 2 6 -1 -13
1532257528392846 -5 -8 22 -2 -1 -4 2 18
1532257528406811 4 5 15 2 0 -4 -2 9
1532257528453685 -17 6 22 5 1 16 -16 -14
1532257528467658 6 -10 -8 0 5 45 42 -35
1532257528529483 -8 8 -58 -6 -5 -11 -7 1
1532257528574363 1 8 87 3 2 -13 -14 -9
1532257528587328 -8 -13 -36 7 -4 -6 -2 -7
1532257528632209 -6 -3 -14 -2 -2 -2 -4 -2
1532257528647169 3 36 12 -4 -2 -7 -5 2
1532257528670113 0 21 1 -11 6 5 -4 -5
1532257528708005 -1 -18 -15 -7 -7 -3 -1 -1
1532257528737925 -6 -29 -23 9 5 2 -2 -1
1532257528753884 1 1 -34 -6 -3 -2 -4 -1
1532257528789786 0 -8 8 0 2 -1 -1 0
1532257528812725 -2 6 14 14 5 -2 1 -3
1532257528835673 -3 9 16 -5 -1 -4 -1 1
1532257528849627 0 3 13 -3 -4 -2 -1 0
1532257528910464 -1 -18 -1 -1 -1 -3 -1 -2
1532257528932405 5 -1 -34 -3 3 1 0 2
1532257528970304 0 9 2 7 13 3 3 0
1532257528992248 -11 -2 5 -3 -7 -4 -5 -4
1532257529016195 3 4 2 0 -4 0 1 2
1532257529052086 -2 -6 4 1 -1 0 0 -2
1532257529089984 0 -10 -1 -2 -1 -4 -4 -3
1532257529112922 -2 16 9 -3 -4 -1 -4 -7
1532257529149823 -1 1 -2 4 4 2 -1 3
1532257529172762 -2 -8 -7 2 -3 -5 1 -1
1532257529194707 -1 32 -8 -3 -3 0 -2 0
1532257529232602 1 3 -2 -4 0 1 0 -1
1532257529248560 1 -4 3 -5 -2 -2 -2 -1
1532257529270501 -5 -6 0 -4 -2 1 1 0
1532257529292442 6 2 3 -3 -2 -1 0 1
1532257529315381 1 -5 -2 -2 -3 -1 1 2
1532257529352283 -1 0 4 -1 -1 0 0 1
1532257529367242 5 0 1 4 3 0 1 0
1532257529390181 1 -8 6 5 0 10 4 2
1532257529427083 0 3 -5 -15 3 3 -1 -4
1532257529450021 -2 -9 4 -15 -2 1 -3 -1
1532257529495898 -2 -5 -24 -7 -13 -26 -1 -2
1532257529509861 1 0 -6 -16 -3 3 2 0
1532257529532800 1 5 -31 -5 1 -4 -3 1
1532257529592640 -4 -8 -11 12 7 16 1 0
1532257529615578 5 12 -8 -6 10 -11 -1 -2
1532257529675418 -13 11 30 14 13 -28 -9 0
1532257529712319 5 1 -85 3 8 40 3 2
1532257529735264 8 -4 10 20 11 -34 0 -1
1532257529750218 0 26 85 -9 -10 -15 -3 -2
1532257529772159 0 9 24 -1 1 0 -6 -1
1532257529795098 -8 8 55 7 1 1 1 0
1532257529810058 5 3 1 -3 -2 3 -3 1
1532257529840976 -6 4 -52 0 13 9 4 3
1532257529864911 -14 -20 -15 -14 -8 -2 -2 -3
1532257529877877 1 -1 6 18 4 9 -3 -8
1532257529900816 7 19 -33 -26 -11 -13 -3 -1
1532257529915776 2 -5 -11 -3 -1 -5 -4 -4
1532257529929738 0 -2 7 -7 -2 4 1 1
1532257529975616 -6 -14 6 -8 -6 2 0 -2
1532257530012517 -1 -9 35 -1 -2 0 -1 -1
1532257530050415 0 -7 -9 -10 1 9 0 -10
1532257530065375 16 -16 -13 -3 -3 -6 1 9
1532257530087333 -10 1 0 2 3 5 1 1
1532257530109258 -7 0 -11 9 -1 8 1 0
1532257530133194 2 10 30 3 -2 21 0 2
1532257530156146 -14 7 10 -9 0 -10 -2 -7
1532257530169099 2 -17 -19 -5 0 -6 3 5
1532257530222954 4 6 -25 1 -3 -4 -12 -12
1532257530237914 -21 35 86 -39 -9 -13 -7 -12
1532257530260853 -7 -5 15 -20 -5 -5 3 -6
1532257530289775 -18 -40 5 11 3 22 5 -32
1532257530311717 -7 7 0 0 -2 -5 -5 4
1532257530351610 -3 15 35 9 2 0 -2 6
1532257530379535 -13 22 -20 13 5 6 0 -10
1532257530457327 -2 -32 3 0 -2 -2 -7 -9
1532257530501210 0 42 -5 8 5 0 -2 22
1532257530576010 12 -8 -11 1 0 -3 -3 2
1532257530665770 5 11 -10 -4 -1 -1 -2 6
1532257530682725 -2 -14 -9 -7 -4 0 -1 -1
1532257530725610 4 -18 -1 12 4 1 0 3
1532257530791434 6 -2 -3 -2 -1 -1 0 -1
1532257530845290 0 1 3 8 1 -1 -1 0
1532257530876207 3 7 15 19 3 -2 -1 1
1532257530928068 0 -12 -18 12 -2 -2 -1 -2
1532257531010847 -2 5 9 -16 -2 -1 -1 -2
1532257531055735 5 7 19 7 7 2 -1 3
1532257531078666 -10 -9 -6 5 -1 -3 -2 -3
1532257531115568 2 -4 -5 -6 0 -4 1 2
1532257531181391 9 -17 -27 -15 -12 0 2 -5
1532257531221284 5 1 3 6 4 6 -3 1
1532257531438702 3 8 4 0 3 -30 -1 -4
1532257531669105 -3 -13 -62 -3 -4 -26 6 1
1532257531713967 -2 -19 3 8 -1 -21 0 -1
1532257531784778 3 -8 -6 6 5 17 3 0
1532257531805721 17 -19 -27 -7 -6 -8 -1 2
1532257531828660 -11 66 14 -1 4 38 2 -4
1532257531858580 -30 79 63 -7 8 17 6 6
1532257531918457 15 -25 -90 11 -1 36 4 3
1532257531940362 -2 -6 32 -5 -1 3 6 0
1532257532098938 27 6 5 -3 -3 -11 -1 3
1532257532248538 0 -9 4 -12 -5 -4 -1 -1
1532257532376196 8 8 -49 11 13 3 1 1
1532257532443017 1 19 -4 8 -1 -4 0 -3
1532257532465956 -3 72 70 2 -2 -4 -4 -2
1532257532516820 5 8 8 -4 0 0 2 2
1532257532540755 -8 2 -66 4 2 0 -1 0
1532257532576660 40 28 37 11 0 2 1 7
1532257532668415 30 -16 4 1 0 10 -1 2
1532257532720276 -1 1 -16 -4 -4 -13 -4 -1
1532257532781113 -31 23 42 4 6 -4 -1 -3
1532257532901791 -1 -32 -39 6 10 15 -1 -6
1532257532947668 8 -79 -74 -16 -5 -31 -28 7
1532257532959636 12 21 47 4 9 16 5 -1
1532257532999528 -4 7 31 -8 -6 -39 -3 3
1532257533007508 -2 -21 -13 -20 -5 16 7 10
1532257533020474 7 8 -6 4 3 -2 7 11
1532257533057375 9 29 -16 0 -4 33 0 0
1532257533119210 6 4 5 -4 3 -5 0 4
1532257533142147 4 28 -5 1 -2 1 1 -1
1532257533154116 -15 74 -8 -1 0 0 -2 3
1532257533186049 -11 -15 -10 8 -2 -3 0 -3
1532257533222932 -17 -25 4 -10 -2 0 4 -1
1532257533245870 -23 3 26 16 1 -2 5 -6
1532257533305710 15 0 -5 2 -3 -24 -65 -8
1532257533328649 -30 33 -10 0 -5 -5 64 23
1532257533379513 19 -19 -1 1 7 -3 86 26
1532257533425391 -11 29 -6 -1 -5 -12 -119 -45
1532257533448328 -25 -56 -14 -5 -1 10 30 43
1532257533470270 8 -21 0 1 -4 -3 -13 -16
1532257533485231 11 30 -10 -8 -14 -12 -7 22
1532257533499193 26 35 0 -3 -6 -29 -74 -24
1532257533514153 -10 -51 17 64 15 3 42 -4
1532257533546067 -59 7 -11 -19 5 27 93 13
1532257533568020 -52 -23 -14 -2 8 30 115 4
1532257533605908 -18 61 -39 20 4 -15 51 -22
1532257533642809 -91 5 19 14 4 8 4 -54
1532257533665748 9 -42 45 -85 -28 -9 41 3
1532257533703647 -9 -48 -16 -2 2 8 -83 -9
1532257533725588 -34 21 3 30 16 10 68 -11
1532257533739550 27 -21 -13 20 4 0 -55 17
1532257533763487 14 8 -13 12 4 -9 4 3
1532257533785429 -12 -43 -21 -9 -5 -16 -82 -10
1532257533808366 -7 -6 -9 1 -4 -16 7 -22
1532257533845267 2 -6 -4 -2 -3 2 -1 -7
1532257533868208 10 38 25 2 1 1 -10 6
1532257533905107 -4 63 13 6 4 2 2 14
1532257533922063 -12 46 -12 2 1 0 -3 8
1532257533928046 -7 -30 -6 -3 -1 1 0 1
1532257533945001 7 68 -35 -10 -6 -4 0 5
1532257533979908 -5 -24 -1 -4 -2 -2 -1 0
1532257534004841 5 -77 36 3 0 3 0 1
1532257534025785 3 -60 42 7 3 2 1 2
1532257534039747 -5 0 29 -17 -7 -4 -3 -4
1532257534048724 -3 18 -22 -3 -3 -2 -3 1
1532257534069668 3 20 88 33 11 3 1 2
1532257534099587 -2 -47 52 5 0 0 0 2
1532257534130505 -2 -3 -3 3 -1 -2 1 1
1532257534153444 1 -2 -22 1 5 5 1 2
1532257534182365 -2 -15 18 3 0 -3 -2 -1
1532257534205305 -1 -15 -21 0 -1 -1 -1 0
1532257534236223 -8 7 15 -4 -2 -3 -1 2
1532257534251182 7 3 37 19 18 5 1 2
1532257534267140 7 -33 -6 -22 -7 -2 -2 0
1532257534290095 -4 2 5 2 -3 -1 -2 -1
1532257534311034 -2 26 23 41 16 5 3 1
1532257534326980 -16 15 46 -13 -6 -2 -2 -2
1532257534349918 -4 2 56 -7 -7 -4 -6 -5
1532257534370874 12 -1 -49 -12 -4 -3 -2 -1
1532257534387817 -1 23 -13 3 -2 -2 -1 -2
1532257534409758 2 12 5 0 1 2 5 -6
1532257534432697 18 0 -1 3 3 -14 -4 -36
1532257534454646 -12 -90 -36 -5 5 6 -19 106
1532257534469598 -2 -18 -10 1 5 20 25 -10
1532257534505502 -13 -42 0 87 17 3 3 -16
1532257534550382 -14 -11 102 -29 -9 -16 -8 -9

1532257534587284 -2 1 -51 -11 -5 0 -2 -3
1532257534596259 0 15 -109 3 -7 0 -3 -2
1532257534648121 11 32 -22 2 2 -2 1 3
1532257534671060 0 -19 -34 -7 -1 2 -4 -9
1532257534707961 -1 -55 -3 2 -1 -3 -1 1
1532257534721923 -3 4 -1 6 0 -4 -2 -1
1532257534745859 -1 -3 -13 9 0 0 -2 2
1532257534775779 -4 2 -2 -6 -2 1 0 -1
1532257534806697 -2 -3 4 -2 -2 1 -3 7
1532257534827641 9 3 -6 -5 -3 -5 -1 -4
1532257534882494 -5 8 -5 0 0 4 -2 -2
1532257534894462 -1 5 -2 0 -1 2 1 -1
1532257534910419 -7 -3 0 -1 2 -1 -1 -3
1532257534925380 1 -1 -17 -2 -3 -4 3 1
1532257534947321 0 2 9 -1 2 -3 -1 17
1532257534971260 2 4 10 -2 -4 -3 0 -7
1532257535007160 -1 -10 3 -1 1 1 0 -3
1532257535031097 0 1 -1 1 -1 -1 0 0
1532257535067998 -1 -4 -16 0 -4 1 -3 -3
1532257535090937 1 1 -8 -2 0 0 -3 -4
1532257535111880 1 2 17 -1 -1 0 -2 -8
1532257535149785 0 -2 -29 -3 0 1 -1 -2
1532257535164745 1 -12 1 1 -1 2 1 -1
1532257535187683 0 5 0 -2 -2 -1 -1 0
1532257535210622 -4 5 1 0 1 2 -2 0
1532257535224585 -3 -12 5 0 0 14 -1 -7
1532257535247529 5 9 22 -2 -3 -4 -1 4
1532257535270468 -1 3 22 -3 -3 -11 -1 1
1532257535285443 0 5 -23 4 1 -3 -1 -2
1532257535307370 -10 -15 0 -4 -1 8 -8 -16
1532257535330308 2 9 15 3 -1 -11 3 4
1532257535345268 0 0 -5 -1 3 6 2 -8
1532257535390343 -1 -17 12 1 2 -4 0 -4
1532257535412284 2 3 -3 2 -1 -7 3 12
1532257535458161 -6 -11 -19 -2 0 5 -3 9
1532257535488085 -1 12 2 -1 -4 -17 -2 -14
1532257535510022 -8 5 3 6 4 -34 1 -8
1532257535524982 -16 -20 -7 -1 4 7 -13 -49
1532257535547921 -1 -7 11 -1 -1 25 4 14
1532257535569863 9 -3 -61 -4 -2 -4 -2 10
1532257535607761 8 18 -88 -21 -5 0 1 11
1532257535629702 -1 0 115 3 0 2 0 11
1532257535644359 0 12 114 2 2 5 1 3
1532257535667298 -3 -16 -116 9 4 1 -1 2
1532257535690236 -7 -20 4 -5 -7 0 -1 -4
1532257535704199 3 6 32 2 0 2 1 5
1532257535727138 -1 -3 -23 -3 0 -1 -1 0
1532257535750076 -16 27 11 -6 -2 1 -5 -11
1532257535764039 3 -17 -6 1 2 -1 1 1
1532257535787975 2 9 1 -8 1 1 0 1
1532257535809917 -2 -2 9 -24 -5 -2 -1 0
1532257535824886 0 -3 -6 2 -2 -3 -1 0
1532257535847815 2 8 15 8 0 0 0 3
1532257535869756 0 -10 -3 8 -2 0 0 0
1532257535884716 0 5 9 6 -3 -2 0 1
1532257535907655 -2 -2 5 5 -2 0 -2 -1
1532257535937575 1 3 -3 -14 -5 -4 1 1
1532257535947559 -2 -4 1 -5 -5 -3 0 0
1532257535967495 0 -7 2 9 8 2 0 -2
1532257535990434 0 2 5 -3 -6 0 -2 1
1532257536004396 2 -8 -9 -1 3 -1 0 0
1532257536050274 3 0 -8 5 9 4 1 0
1532257536087174 -2 0 40 -1 2 -14 -3 0
1532257536110114 5 6 -55 4 3 -16 1 2
1532257536155992 -1 -1 -99 -4 -4 -16 -3 1
1532257536254727 0 -8 -17 -6 10 39 2 0
1532257536289633 -2 -5 -29 -6 -6 -46 -1 1
1532257536350471 -2 -3 -54 -25 -8 -27 -1 -3
1532257536387372 1 11 -14 -4 -7 -48 -4 -2
1532257536410311 2 -2 13 10 0 -34 -20 0
1532257536433249 1 6 3 2 -4 27 -2 0
1532257536447212 -3 6 33 3 3 13 2 1
1532257536470151 7 -19 -45 7 10 -8 -1 0
1532257536507052 -7 9 12 4 3 63 1 -4
1532257536537972 -11 5 0 -9 -3 -8 -1 -3
1532257536567913 -4 -14 -3 -1 -3 7 -2 -8
1532257536612769 34 -23 -6 -13 -8 -8 -4 13
1532257536649671 3 -16 -4 1 0 0 2 34
1532257536688567 -6 -35 39 -1 -2 0 -1 -3
1532257536695548 -5 0 17 -4 -1 0 -3 -10
1532257536709511 1 51 2 1 3 1 1 57
1532257536734444 -20 -46 -37 -3 -3 1 1 -20
1532257536770348 1 -1 12 5 3 1 -3 -18
1532257536801266 9 29 23 -1 -1 0 -7 -9
1532257536807249 -4 18 54 -1 -2 -4 0 7
1532257536853127 1 -41 22 -4 -4 -4 3 25
1532257536867089 -22 -25 56 4 -1 -3 1 17
1532257536912967 -38 -17 -72 -5 1 1 -1 -17
1532257536949868 21 -54 3 2 1 -3 -4 -26
1532257537033643 -12 4 -42 0 -1 1 6 -44
1532257537056582 3 69 -8 1 -1 -3 3 -35
1532257537175265 1 25 21 -3 -2 1 -1 -17
1532257537235105 2 -19 -81 -5 -1 0 0 10
1532257537304919 9 40 11 1 -1 1 -1 -2
1532257537423601 -1 2 -52 0 5 -1 0 -1
1532257537483441 2 1 15 4 3 -4 1 2
1532257537588161 2 -3 -1 8 3 -8 0 1
1532257537700860 0 7 23 -3 3 2 -3 2
1532257537775660 4 -13 -3 -7 -8 -23 3 3
1532257537798599 5 14 -11 4 5 -58 -19 3
1532257537888358 13 -2 -19 -2 -5 22 4 5
1532257537933238 -1 -24 -23 -4 -2 -36 2 0
1532257538017014 0 -5 -26 1 -3 -28 -3 1
1532257538052919 0 4 -14 -11 -9 -20 -1 -4
1532257538097798 -9 -32 -69 -8 -7 -26 -7 1
1532257538204513 -5 12 18 15 4 14 7 -3
1532257538255391 -7 0 8 1 3 1 -1 -2
1532257538300257 -11 -12 -21 2 5 0 0 -1
1532257538346134 1 6 10 9 3 0 -1 0
1532257538378049 -9 -10 -28 -14 -12 5 -1 -4
1532257538382039 1 22 33 -1 1 -1 -1 -1
1532257538406971 -4 15 -13 -1 0 2 3 1
1532257538450861 -3 -27 20 0 -3 -3 0 -1
1532257538467809 12 29 2 -3 0 1 -1 1
1532257538495734 -10 22 -17 2 3 1 1 -1
1532257538531638 -9 -53 4 -4 -7 -5 -4 -3
1532257538578513 0 20 -29 2 -1 -3 -1 -2
1532257538652316 8 3 4 2 -2 20 -3 -4
1532257538661291 -42 26 96 12 6 3 2 0
1532257538712155 -11 60 48 -14 -3 5 -7 -18
1532257538801933 37 24 112 5 2 32 -11 -5
1532257538854774 -4 -21 -128 -9 -6 -34 -15 -36
1532257538961489 1 42 127 25 11 -43 -4 -22
1532257538989414 -2 -25 -13 1 -7 -16 8 15
1532257539022325 17 -15 -25 10 7 42 -4 -64
1532257539088150 2 -18 10 -4 -1 11 0 -3
1532257539118070 -4 -10 -5 1 2 0 3 -3
1532257539153974 -13 -31 -4 -16 -4 0 22 -2
1532257539200849 -25 -24 19 -1 1 1 5 -3
1532257539237750 -8 -6 -4 1 -3 -2 -7 -5
1532257539283627 -22 7 7 -10 -4 -1 -40 -4
1532257539380369 4 -15 3 0 -3 6 87 9
1532257539403307 -21 20 18 6 1 10 -5 -2
1532257539441220 -45 17 19 6 3 3 -37 -1
1532257539530965 42 43 14 10 8 2 -17 -6
1532257539634688 -42 -40 2 -2 -4 -44 -12 -45
1532257539680566 1 -108 -52 -11 -2 15 -4 32
1532257539754369 31 20 19 -10 -7 -10 -11 19
1532257539831163 1 0 6 -47 -18 -21 -8 -5
1532257539855099 13 -16 -56 23 15 24 -66 -29
1532257539883024 24 -16 -11 10 21 43 16 22
1532257539920923 -5 101 -23 -49 -14 2 79 13
1532257539957824 13 -23 0 -7 -22 -34 19 -31
1532257540003710 -5 13 -5 -11 -10 -16 -37 -19
1532257540085483 15 73 4 10 4 13 11 9
1532257540109419 4 -97 -61 4 0 2 -5 6
1532257540183222 -4 -48 -3 9 2 1 1 3
1532257540221121 9 -54 -8 -1 2 2 -1 -1
1532257540243061 -4 -46 -116 -21 -8 -11 -4 -1
1532257540272982 -9 -44 15 0 -5 -3 -4 -7
1532257540302901 -6 -53 -84 -1 2 -5 -2 -1
1532257540316879 -14 31 38 1 1 2 1 -1
1532257540340800 -6 31 59 8 -2 0 -1 -4
1532257540362742 4 -7 11 -8 0 2 -1 0
1532257540376704 5 23 29 2 0 -1 0 0
1532257540393659 -2 1 29 3 2 1 -3 0
1532257540447515 9 32 31 5 1 0 0 -2
1532257540483420 3 -7 -43 -3 0 1 1 -1
1532257540497382 -11 -10 -39 1 2 1 1 1
1532257540506358 -4 3 10 -3 -2 -2 0 -2
1532257540543259 6 5 10 7 -1 -2 0 1
1532257540557221 -1 2 14 2 -1 -2 -1 -1
1532257540566198 -4 -7 -3 1 -1 -1 -1 -2
1532257540617062 -6 14 -16 0 -3 0 0 0
1532257540640000 7 -1 -19 2 1 1 -8 -18
1532257540678896 1 4 3 2 0 1 3 8
1532257540699839 6 -2 -7 -2 0 2 0 -6
1532257540722779 4 -12 -6 -2 -1 -4 -1 4
1532257540759690 -2 -25 -26 -11 -5 -3 1 2
1532257540783616 -6 -4 0 -6 -2 -1 2 -6
1532257540796582 -14 19 6 0 0 -24 9 4
1532257540805557 6 27 -7 -1 -2 33 2 2
1532257540826501 -12 13 10 3 -16 -19 -14 -13
1532257540844454 -20 -47 -15 -3 3 0 -36 -37
1532257540867392 12 47 27 -4 -3 -13 3 12
1532257540903296 0 40 -68 11 -1 5 12 3
1532257540932231 -8 -21 1 4 2 -2 3 3
1532257540957152 -2 -11 -40 -5 2 1 6 -2

1532257540986075 16 -11 -69 -6 -5 -3 0 38
1532257540999040 5 1 46 -4 -4 2 -9 -10
1532257541045915 -3 -2 56 -1 1 2 -2 -11
1532257541082816 -2 0 15 -3 -2 -2 -1 -8
1532257541105755 -3 2 36 0 2 2 -3 -11
1532257541150635 2 -3 3 0 0 -2 -1 20
1532257541173573 3 3 2 -4 0 3 5 9
1532257541179557 -2 -4 1 3 0 1 -1 -14
1532257541203504 -3 -3 -3 -1 -3 -6 -2 -3
1532257541225446 3 6 4 -1 -1 0 3 1
1532257541240405 -3 -3 -2 -1 0 -2 -3 -19
1532257541271323 -3 6 12 0 -1 -5 0 15
1532257541300245 -2 1 -3 0 0 2 0 -2
1532257541323184 3 -1 8 2 2 1 0 18
1532257541346122 -2 0 -1 -3 -3 -7 1 2
1532257541359088 1 -3 -8 -3 -2 -16 -1 6
1532257541383024 -4 -4 -5 -3 -2 2 -1 -5
1532257541405963 -1 1 3 2 1 4 -4 -4
1532257541428901 -2 2 28 2 -3 -7 2 0
1532257541465803 1 -4 -4 0 -1 4 -3 4
1532257541487744 1 -1 -6 0 1 -3 -3 0
1532257541510682 -1 1 22 0 0 -2 1 0
1532257541539606 -2 -5 -14 -2 -2 -5 -2 -3
1532257541562544 -6 6 -8 0 2 5 -2 4
1532257541585482 3 -4 -31 -2 0 0 1 0
1532257541607424 -3 -1 6 1 -2 0 -1 -13
1532257541645323 1 0 -4 -2 1 0 -2 -1
1532257541667264 3 -3 -2 -2 -2 -1 0 13
1532257541705162 4 -4 -1 -1 1 3 0 5
1532257541735086 -1 -4 -2 -2 0 -1 0 -4
1532257541781231 0 -3 0 0 2 -1 1 2
1532257541787216 1 -3 -2 -1 0 -2 -2 -13
1532257541825115 6 -3 -78 -1 -1 -1 1 21
1532257541847056 -1 7 66 2 2 -1 -5 -16
1532257541907894 13 -2 -5 -4 0 9 11 59
1532257541922854 -18 -5 14 2 -4 -14 -2 -51
1532257541967734 5 -38 -9 8 0 -55 7 57
1532257541982694 -3 -19 -15 -7 3 8 -21 -17
1532257542013611 6 40 -8 4 6 13 -4 -32
1532257542027574 2 14 124 10 10 11 12 0
1532257542065472 -5 27 58 29 11 15 3 -10
1532257542110352 0 7 -35 -29 -6 5 -2 -6
1532257542147260 -2 55 8 -1 -3 2 0 -3
1532257542185159 1 -2 -30 -1 -3 -2 -4 -5
1532257542207100 -3 0 10 8 0 -2 -2 -3
1532257542222060 -2 -3 -58 -17 -8 -2 -3 -5
1532257542267939 1 -6 -65 -14 3 3 1 0
1532257542282897 -3 -3 28 16 4 0 -1 -5
1532257542304838 1 6 35 8 3 0 0 -2
1532257542328775 1 -3 -15 3 2 3 0 1
1532257542373655 -6 4 7 -10 -5 0 0 -1
1532257542401580 -1 0 -7 -10 -8 -5 -2 1
1532257542425515 5 2 -10 4 4 2 -1 -1
1532257542447457 1 22 58 -8 3 2 -1 -1
1532257542507297 -1 -8 -67 -1 -5 -2 -5 -4
1532257542545196 -5 -7 -50 9 6 -1 0 1
1532257542583094 26 -17 63 4 1 -1 -23 4
1532257542608028 2 12 58 -1 -7 14 10 -2
1532257542649916 -1 -4 37 5 1 -2 4 -2
1532257542664876 -6 8 -56 -18 -9 -7 -1 -2
1532257542701778 -21 -21 -44 0 0 -3 6 9
1532257542724716 -12 23 32 -6 -1 6 1 -11
1532257542770593 -2 4 32 3 -2 -5 -3 0
1532257542845392 14 -13 10 3 0 -4 -1 -2
1532257542867334 12 -16 15 0 5 -4 1 -1
1532257542927174 1 28 -36 -8 -5 -1 1 14
1532257542951110 -3 -45 62 5 -1 -4 -5 -39
1532257543024913 -3 -36 -8 -2 0 0 0 -19
1532257543070790 15 31 15 8 3 -2 9 35
1532257543085753 -37 47 49 -1 3 3 -8 -20
1532257543108692 24 -35 -79 3 0 -9 0 -58
1532257543138609 -6 -62 -36 -5 -3 -5 -31 -12
1532257543152572 31 32 49 4 3 -1 14 30
1532257543190470 -19 -17 34 -3 -2 0 -9 -22
1532257543204433 -5 -10 -74 -9 0 2 1 5
1532257543227372 -6 17 25 3 -3 5 16 17
1532257543252305 12 5 5 -5 -5 1 5 12
1532257543287212 -10 25 -17 -3 -9 -4 7 4
1532257543332091 23 61 -2 0 -5 -1 13 19
1532257543370987 5 -8 5 0 -3 -4 -23 16
1532257543383953 -21 -75 -29 -1 -1 2 9 -4
1532257543415867 -7 73 42 3 -4 -7 1 21
1532257543437809 -11 1 42 -9 -2 1 5 -8
1532257543467729 10 55 -77 -4 -2 1 3 11
1532257543498646 -10 5 58 0 1 3 6 -1
1532257543550507 -19 43 -7 -15 -3 0 -2 -10
1532257543587409 1 3 -27 -5 -1 1 2 11
1532257543610348 2 -24 4 -3 -3 -2 -1 -1
1532257543647249 2 -7 11 9 -4 -6 -2 -4
1532257543701105 3 2 5 15 0 1 2 3
1532257543738006 4 -3 -1 -4 1 1 -1 3
1532257543767927 -2 -9 0 18 -3 -1 -3 -3
1532257543812806 -4 -9 -9 0 -2 0 -1 -4
1532257543827766 -1 10 4 25 7 1 1 0
1532257543895585 -1 -6 11 -4 3 0 0 -1
1532257544053163 -19 -13 -2 -7 -15 -4 -1 -8
1532257544113003 6 -5 12 -3 -2 12 0 1
1532257544172843 -1 -18 11 1 3 6 4 -22
1532257544210742 -1 5 15 -3 1 -10 -2 2
1532257544353361 9 -2 -11 -1 0 6 5 2
1532257544376299 -4 -7 -6 -4 -2 -10 1 -8
1532257544436140 -3 -20 -18 -4 4 4 4 -1
1532257544487003 -15 -15 -20 -2 0 22 3 -18
1532257544525899 -46 24 17 0 5 6 -9 -54
1532257544548838 14 12 30 0 -8 14 2 -5
1532257544563798 5 -30 26 -34 -8 -21 -11 7
1532257544596710 -7 34 28 6 -1 1 6 -3
1532257544616656 14 31 -4 30 3 -2 2 13
1532257544713398 -13 -39 -26 -16 -5 -11 -5 -4
1532257544735341 2 -9 4 -3 -3 -1 0 2
1532257544780219 2 0 0 1 2 5 -1 0
1532257544795179 4 13 11 -2 1 -2 0 0
1532257544803176 2 14 5 4 3 5 -4 1
1532257544835101 4 6 7 6 -2 -5 -2 0
1532257544868992 -4 -16 -18 -5 2 0 -1 -3
1532257544892918 -5 -14 -15 -2 1 2 -1 -3
1532257544938795 -6 -28 33 -17 -7 -5 -5 -2
1532257544954753 -3 34 -46 13 15 6 1 1
1532257544977691 -5 9 34 5 4 3 0 0
1532257544998653 -7 -57 3 -19 -8 -5 -2 -3
1532257545035537 -2 11 -1 -6 3 2 2 0
1532257545058475 -13 -51 10 1 0 2 0 -3
1532257545074432 -1 16 62 3 1 1 -1 -2
1532257545112331 6 16 6 6 -3 -2 0 0
1532257545148245 -32 24 -43 -5 0 3 -4 -8
1532257545169179 -1 18 25 -9 -6 -7 -8 0
1532257545194112 -18 21 -26 0 0 -2 -1 3
1532257545216054 -3 -8 29 -2 3 -3 0 -5
1532257545252955 -10 -12 -58 2 4 -1 2 -2
1532257545297835 4 -28 -88 -2 0 -6 6 12
1532257545312795 24 -7 118 6 -1 -2 -3 -32
1532257545335734 12 9 12 -3 -1 1 0 14
1532257545358672 -10 -1 -74 -2 -1 28 -2 15
1532257545412528 -1 -1 122 10 -4 45 3 -3
1532257545472368 57 -39 -54 -6 -14 -16 -2 15
1532257545484353 -9 35 11 -5 -3 -66 -7 4
1532257545516251 -31 16 42 5 9 24 5 23
1532257545553162 0 43 80 20 12 24 27 27
1532257545575094 -22 -35 -53 7 3 54 30 -47
1532257545583071 8 60 113 30 9 -46 1 0
1532257545600041 4 -46 -106 -22 -5 19 1 33
1532257545666848 -5 -61 -81 -29 -21 6 -29 -26
1532257545673830 20 65 77 21 0 26 -14 -1
1532257545711727 1 51 127 8 4 47 16 10
1532257545718710 -6 9 23 18 3 38 0 -25
1532257545748629 -2 -12 16 -9 2 9 7 -4
1532257545777552 11 35 40 -1 -4 -6 5 24
1532257545808487 6 -3 -2 -7 0 5 7 3
1532257545831407 -7 -1 24 26 3 4 -2 3
1532257545855359 0 12 -13 -13 4 0 -17 -3
1532257545884266 0 6 -12 -9 4 2 8 0
1532257545923163 1 7 0 -19 -5 -1 1 5
1532257545937125 8 -1 -11 -10 -6 -5 -8 1
1532257545972032 -9 0 -5 -11 -2 2 -4 0
1532257545995968 -1 14 0 -1 1 -1 4 -15
1532257546031872 4 7 8 6 4 -1 -1 9
1532257546040848 19 3 18 1 2 1 -12 -3
1532257546077749 -4 -31 -12 -6 -5 -5 -22 -2
1532257546138587 15 -6 6 -4 -7 -9 34 8
1532257546151553 1 -40 -1 -2 2 0 -19 12
1532257546198427 -5 -8 7 1 -3 4 27 -36
1532257546213387 -7 40 4 1 2 6 -6 -23
1532257546272230 -4 6 5 6 9 11 0 1
1532257546318107 -10 23 -1 5 7 7 16 1
1532257546332069 18 14 -9 -23 -11 -7 -38 -23
1532257546391908 7 12 -10 -29 -21 -23 2 -29
1532257546421829 17 29 105 -5 -5 5 -26 -5
1532257546504608 5 41 -2 -7 -1 17 35 -9
1532257546520565 -1 -18 -18 3 -4 -5 -42 -8
1532257546558464 -27 6 -17 -12 -7 2 25 -10
1532257546588384 -25 -7 -1 -5 -2 7 21 -21
1532257546618304 4 -3 17 -2 -1 -3 29 -1
1532257546641242 -11 -91 -29 -3 -1 3 4 -6
1532257546663184 9 -75 -67 -11 -5 -7 -12 3
1532257546760922 -5 39 42 -10 -5 -4 -3 0
1532257546774893 10 -15 13 8 2 -1 2 2
1532257546799819 -3 -26 33 0 -4 -1 -3 -3
1532257546873622 9 13 -49 1 3 1 0 2
1532257546918502 -1 3 -13 14 2 1 1 -3
1532257546940443 3 23 29 -6 -2 0 0 3
1532257546978341 1 9 17 -1 -1 -3 -2 -1
1532257547023221 2 26 49 -3 1 0 -2 -2
1532257547060122 -4 10 -6 15 4 2 1 0
1532257547083061 -1 -5 14 -3 0 -1 -1 -2
1532257547098021 -4 -4 -10 -2 -1 -7 -2 0
1532257547143899 -3 5 0 -1 -4 6 -1 -1
1532257547180814 -4 -5 3 4 0 -1 3 3
1532257547240640 1 3 15 -3 0 3 -1 -3
1532257547300479 -9 6 17 -4 -3 -5 0 -3
1532257547421156 -3 -13 10 -14 -4 -2 1 -3
1532257547443098 1 -6 -22 -9 1 -20 3 5
1532257547480997 -8 74 -5 -3 22 85 -8 -24
1532257547517899 -4 -35 -6 -4 2 9 14 -30
1532257547540838 8 8 100 85 22 -3 12 56
1532257547578736 -9 -39 8 -38 -11 -4 14 7
1532257547593696 7 0 -38 3 1 13 8 14

1532257547636584 0 -17 -7 -6 -1 0 3 12
1532257547645557 -1 -8 -22 -10 -3 6 -1 -6
1532257547683472 1 -5 -33 0 -1 -5 2 3
1532257547705413 1 -5 -22 4 2 3 2 2
1532257547743312 2 11 18 2 1 -1 1 2
1532257547757275 0 2 53 10 3 0 3 3
1532257547781219 -3 -6 21 -6 -5 -2 -2 -1
1532257547803152 -1 -4 -11 3 0 1 -1 0
1532257547817115 0 1 -33 -10 -2 0 -1 -2
1532257547848031 3 2 -79 7 7 3 0 -1
1532257547876955 1 2 84 5 -4 -1 -1 -1
1532257547901896 -3 -6 71 3 2 3 -1 0
1532257547945771 -2 -5 -20 -2 -2 -2 1 1
1532257547960774 -2 -5 -5 -1 0 -1 1 3
1532257547996678 0 3 -5 -1 0 0 1 23
1532257548005662 -4 0 8 -1 1 2 1 -6
1532257548022079 0 0 -1 -3 -3 -2 5 -6
1532257548045020 1 1 7 0 3 1 5 2
1532257548065964 7 5 3 0 -2 0 -1 19
1532257548102802 -4 -6 -7 -1 -2 0 -8 -36
1532257548116764 -3 -8 -10 -1 0 -1 -1 8
1532257548125741 -8 -7 -10 0 -1 -1 4 -31
1532257548163644 1 -6 0 -2 -2 -1 4 13
1532257548185587 3 -4 -6 3 0 -2 -6 46
1532257548209554 6 13 4 -3 1 2 0 -2
1532257548260418 -1 -1 1 2 -2 -1 -4 -20
1532257548266402 -3 -3 -4 -1 -3 -8 -6 -10
1532257548297319 2 -2 -6 0 0 17 10 78
1532257548320257 0 -4 -3 -3 -4 -31 -14 -45
1532257548379100 10 -8 -5 -2 -3 15 -2 21
1532257548432956 1 13 6 2 3 -6 -8 -13
1532257548438940 0 21 1 -1 0 5 0 -22
1532257548500759 4 27 2 2 -1 -16 -15 -10
1532257548559601 -19 -9 50 -9 -9 12 -1 -6
1532257548582539 12 44 51 13 -4 -28 8 10
1532257548619441 9 101 65 0 -6 41 -23 -5
1532257548665318 -2 -34 -3 4 25 88 -8 6
1532257548696243 -41 -14 -26 -16 -22 -34 -17 -24
1532257548702220 -4 -53 -29 69 19 -36 7 -1
1532257548741116 0 -26 -12 -55 -4 38 29 0
1532257548755079 -9 -40 -79 -69 -36 -18 20 8
1532257548762060 13 -7 -25 5 -35 60 8 3
1532257548792977 -5 -36 -53 -9 12 -90 29 5
1532257548822897 17 28 23 4 7 33 16 3
1532257548844838 -1 -28 -42 -5 3 -2 35 16
1532257548860795 5 18 -7 7 13 5 -3 13
1532257548882737 3 -5 -10 -1 5 -18 -14 -55
1532257548927617 -2 -17 -3 0 -2 -20 -13 7
1532257548989452 1 1 3 3 3 12 2 5
1532257548995438 0 -8 -7 -2 -3 -6 -1 -1
1532257549025356 4 -5 -1 -3 -3 6 -1 5
1532257549041313 1 4 3 2 2 6 0 6
1532257549062257 -1 0 -3 -3 -3 1 0 3
1532257549085399 2 3 3 4 5 -3 -4 5
1532257549099345 1 -4 -7 -1 1 -3 3 6
1532257549122283 0 1 13 -11 -2 1 1 -1
1532257549159185 -1 0 5 15 12 3 3 2
1532257549205068 1 -6 -5 3 0 2 0 3
1532257549243095 1 -3 -6 6 5 1 0 -2
1532257549279001 2 14 -1 8 -3 1 0 0
1532257549324878 -1 2 2 7 2 0 -2 1
1532257549354798 -1 -5 -7 -13 -15 -2 -4 -3
1532257549384723 -5 -5 -9 0 -5 -2 -3 -2
1532257549408391 0 -1 4 1 -1 -2 0 2
1532257549422354 -2 -4 -14 -9 0 1 0 0
1532257549482199 2 -2 -6 -8 -4 -2 -1 1
1532257549505140 -3 -1 1 1 3 3 1 0
1532257549535060 2 0 9 8 26 7 3 1
1532257549587919 -2 -3 -4 -3 -3 -2 -2 -1
1532257549684659 -2 -10 -11 -2 5 3 1 -1
1532257549708600 2 31 40 -4 -6 -21 -4 -1
1532257549745497 2 13 -44 -12 2 9 2 -1
1532257549768436 0 -8 -44 6 3 10 1 -1
1532257549782398 -4 17 16 6 6 7 2 -3
1532257549828276 2 -8 -28 3 3 -6 1 1
1532257549842239 -4 -21 -23 -12 -7 2 -4 -2
1532257549881135 0 9 72 0 -3 20 0 0
1532257549888116 5 23 35 5 1 -41 1 3
1532257549925017 -3 -2 39 -3 -2 4 -3 -3
1532257549947956 -8 -5 17 19 10 23 4 -2
1532257549961919 1 9 9 -1 -2 0 -1 -5
1532257550007795 2 -6 -9 4 3 22 4 2
1532257550021759 3 13 -37 -19 -10 -10 -2 -2
1532257550068633 -3 11 40 -1 1 -5 -2 0
1532257550104536 1 0 -29 2 -3 -6 0 -1
1532257550225214 0 -1 -1 2 1 -2 0 -2
1532257550248418 0 -1 -6 -2 -2 -1 -1 -1
1532257550285319 6 -3 2 0 -3 -4 -1 0
1532257550308257 -2 -1 3 3 -2 -1 -1 0
1532257550330199 -2 8 8 6 0 2 0 0
1532257550375694 7 20 11 0 -4 -1 0 3
1532257550398633 4 -16 -4 -2 1 -4 0 -4
1532257550420574 -1 3 8 4 0 2 1 -1
1532257550458472 0 27 -6 -1 -1 -3 -1 -2
1532257550465454 2 17 3 4 3 -1 1 -1
1532257550510334 2 -2 -2 0 0 1 0 1
1532257550548266 -3 -28 -6 -3 -1 -3 -3 -5
1532257550571204 -3 23 3 -6 -7 -4 -3 -3
1532257550584170 0 -9 -9 2 -1 -1 0 1
1532257550608105 -8 -13 -12 0 3 2 0 2
1532257550661962 6 -18 24 0 0 -1 0 1
1532257550669941 2 -15 6 -7 -5 -1 -2 -2
1532257550690884 -13 24 -11 -4 -1 0 1 2
1532257550704847 8 -23 10 -8 -1 -2 -1 -2
1532257550727786 2 106 -2 5 2 0 -1 -4
1532257550750724 0 -15 -5 -6 -1 -2 0 2
1532257550764687 1 -22 -4 0 -3 -2 1 0
1532257550788624 -5 -24 -5 2 -1 -1 -2 -1
1532257550811562 -2 2 5 2 -1 0 -4 -1
1532257550816548 2 0 -1 -6 -3 0 0 -1
1532257550848068 -2 -6 -3 -9 -1 0 0 0
1532257550871007 1 -46 -1 -1 -1 -2 -2 0
1532257550883973 -1 -28 -6 0 1 -2 1 -2
1532257550907908 5 15 9 2 -1 1 4 3
1532257550930847 -7 -17 -4 0 -2 0 -1 -5
1532257550975922 -4 -8 2 -2 -1 -2 -2 -1
1532257550990883 -7 23 1 2 1 3 2 -8
1532257551013821 1 -1 0 -2 1 0 2 -3
1532257551050722 -2 25 2 -4 -1 -2 -1 6
1532257551064685 3 -2 2 2 -1 0 1 7
1532257551088621 2 -13 -10 0 1 1 0 0
1532257551110562 3 6 1 1 1 0 -2 4
1532257551124525 -7 -3 -4 0 -2 -2 -1 -2
1532257551148461 1 12 1 0 -1 -1 -1 1
1532257551171400 -3 -25 -7 -14 -4 -1 0 0
1532257551193342 7 23 104 10 3 -1 -2 4
1532257551230242 1 10 44 11 5 1 2 -2
1532257551253181 -10 -24 10 10 4 2 1 -91
1532257551267144 -4 6 36 5 1 13 -3 -1
1532257551298061 5 46 37 -2 6 62 23 31
1532257551326984 9 35 0 2 0 -1 0 7
1532257551350920 2 -17 108 -3 -4 -21 -3 31
1532257551372866 -5 -29 -14 -20 -5 4 -5 6
1532257551386847 1 1 68 5 11 -1 0 14
1532257551410784 1 -3 43 80 24 2 2 11
1532257551433735 -3 -9 -53 -37 -13 -4 1 6
1532257551455664 -5 -24 -38 -14 -12 -9 -2 5
1532257551492565 5 4 -40 -21 -5 2 -1 3
1532257551500544 1 -6 -20 -7 -6 -4 -2 0
1532257551523496 -3 -6 7 6 1 0 0 -1
1532257551553402 -1 1 6 6 2 1 2 2
1532257551590304 0 5 -26 1 2 0 -1 2
1532257551613242 -1 -13 -26 14 5 0 2 0
1532257551636181 -2 14 -5 -3 -1 -1 -1 0
1532257551652139 -3 -13 17 12 7 4 1 0
1532257551675094 2 7 15 -12 -9 -5 -1 -2
1532257551696021 -5 -10 1 -18 -9 -2 0 -2
1532257551716965 2 4 14 -15 -1 -1 -1 -2
1532257551740901 1 -16 -74 14 -3 2 2 1
1532257551764837 -5 -13 -33 -4 -4 -4 -1 -2
1532257551792762 -1 -10 23 -4 15 9 2 0
1532257551806725 2 20 6 15 2 4 2 3
1532257551829663 0 14 20 -18 3 3 3 -1
1532257551853599 1 24 57 -5 -13 2 -4 -1
1532257551890501 -3 -18 -37 0 -2 -1 1 -1
1532257551913439 -1 -1 21 1 9 -12 3 -3
1532257551936378 -6 -17 104 18 2 2 -1 1
1532257551980261 -2 -4 8 -4 0 4 0 1
1532257551996235 2 5 14 0 4 -1 -2 -4
1532257552017162 1 -7 -32 2 6 5 -2 -6
1532257552047082 -2 -21 -11 1 -2 -1 -4 -2
1532257552070021 3 13 21 -4 0 -2 -2 0
1532257552108934 2 20 -5 4 4 1 1 4
1532257552129861 3 1 -8 -3 1 1 -1 6
1532257552136842 -7 1 -20 -2 -1 0 -1 0
1532257552154794 0 -5 16 3 0 -1 2 7
1532257552175738 8 -1 -1 1 -2 -2 2 7
1532257552196682 6 12 -6 -2 -2 -1 0 5
1532257552214651 -10 2 -15 -3 0 1 -1 -6
1532257552237573 -2 -19 -5 -2 1 1 -1 -2
1532257552273477 8 9 10 0 1 -1 1 17
1532257552295418 -12 -1 -63 -2 -1 -3 1 7
1532257552317359 5 -29 -23 20 1 0 -1 3
1532257552333317 -4 12 11 -4 1 3 -2 0
1532257552378197 0 -2 13 0 1 2 0 5
1532257552393157 1 -13 -3 -2 -1 -2 -2 0
1532257552416095 -5 -13 42 3 0 4 3 5
1532257552429061 -10 17 32 2 5 5 0 10
1532257552475935 -3 -9 -46 -3 -3 0 0 -1
1532257552489897 1 19 -5 4 1 -1 1 5
1532257552511840 -2 28 51 2 1 -1 0 3
1532257552535791 -3 -44 -32 -1 -1 -3 -4 -20
1532257552580655 1 -5 30 0 8 0 -2 10
1532257552635509 -1 -14 10 16 9 6 2 4
1532257552655455 8 62 -43 -6 -6 -3 -2 -4
1532257552715295 12 26 13 -1 -2 -2 0 -12
1532257552738235 15 41 29 2 0 0 11 53
1532257552783114 18 49 16 0 0 0 10 6
1532257552835972 6 50 34 3 1 1 -2 -8
1532257552865893 -11 -72 -41 -1 0 -3 -5 0
1532257552895812 4 -16 -35 -1 2 1 0 -12
1532257552955653 -5 -21 -3 1 -2 -3 -7 -10
1532257552978591 -6 -2 26 1 1 0 -8 -6
1532257552992554 14 -11 20 -1 3 2 0 3
1532257553029455 -4 9 -15 -7 -3 -1 -1 0
1532257553076330 -1 2 3 4 2 -1 -1 0
1532257553089295 -14 22 -3 -15 -7 -4 -3 -8
1532257553128191 -10 -32 3 -13 2 1 0 1
1532257553151130 5 11 18 8 -6 -4 0 0
1532257553158111 -2 -2 12 -11 8 2 1 3
1532257553179055 3 7 17 -13 -5 -4 -2 -2
1532257553217951 1 -9 14 23 3 1 -3 0
1532257553240890 0 3 -49 18 -6 -1 0 0
1532257553277791 -8 -59 -33 -9 -9 4 0 1
1532257553338628 2 3 10 -3 9 1 1 -1
1532257553398469 7 12 -2 -3 -5 -1 -2 1
1532257553532111 -6 6 -28 2 4 39 2 -1
1532257553591951 -17 -6 -8 -1 -4 -31 -7 -5
1532257553705647 -5 25 12 -5 5 29 1 -6
1532257553750527 -7 -4 -11 11 6 -11 1 -1
1532257553780447 -7 12 22 -2 -5 -19 -5 -2
1532257553878185 4 -5 63 -6 0 4 2 -2
1532257553922068 -3 -34 -62 -13 -7 -21 -4 -2
1532257553960964 1 -9 8 33 2 -17 -8 -2
1532257553981908 -25 4 23 -20 -5 31 0 -5
1532257554094607 -1 -18 16 0 -2 1 -2 -2
1532257554140496 9 11 64 12 3 3 0 1
1532257554155457 2 -57 -5 -3 -3 2 0 1
1532257554178395 0 25 -103 -9 1 -1 -1 1
1532257554215297 11 22 -88 -8 -9 -6 -2 -2
1532257554284114 1 27 42 0 -3 -1 2 -2
1532257554351949 -4 -2 -92 3 -2 -2 -2 0
1532257554380854 -7 -23 -52 -6 0 2 0 -5
1532257554440694 41 -11 -2 5 4 -4 -4 3
1532257554463633 -16 -24 89 11 4 -21 0 -1
1532257554508526 -11 -32 -27 -5 1 -3 0 3
1532257554554390 -4 -26 -104 2 3 -1 -4 2
1532257554634177 -11 12 -34 4 4 9 5 8
1532257554681053 -17 -47 -128 -18 -1 10 9 37
1532257554694017 -7 12 55 -5 -3 -5 -9 -9
1532257554717953 -22 2 49 13 15 14 -18 -45
1532257554770811 -4 -22 49 -5 0 19 18 5
1532257554800732 3 -28 85 14 -10 -23 -14 0
1532257554823669 1 -32 -128 -18 -8 -19 0 6
1532257554869548 -26 72 92 5 -24 -32 -11 6
1532257554914427 15 37 95 -4 4 13 7 14
1532257554927393 2 60 7 3 10 16 1 -26
1532257554957313 2 34 111 12 0 8 -4 -26
1532257554964294 2 -8 -5 -2 14 -16 13 3
1532257555009174 -1 18 -16 -6 2 10 3 -16
1532257555032113 3 -60 -30 25 13 4 1 3
1532257555054054 5 99 -2 -6 -1 5 1 -1
1532257555124865 -10 -4 -15 6 0 3 1 1
1532257555169745 -6 -23 -22 7 4 4 8 4
1532257555182710 7 12 3 11 3 -4 17 -1
1532257555196673 0 0 -14 -8 -6 -1 19 9
1532257555250528 -8 9 21 2 0 -3 -11 -11
1532257555280449 3 10 9 9 3 0 4 6
1532257555302390 17 19 11 10 3 -5 5 17
1532257555324331 -23 -6 22 3 -3 12 1 -29
1532257555340289 -30 -8 -16 -5 -3 -10 11 16
1532257555371206 22 3 11 -4 -6 -4 11 31
1532257555395142 8 -6 -27 -13 -6 37 -1 0
1532257555431046 -31 3 -4 -5 0 -4 -23 -38
1532257555445009 -31 16 -3 -4 -4 -3 -3 5
1532257555482907 -73 25 6 -6 0 4 2 -61
1532257555519809 -54 -86 -21 -14 -8 -5 -29 52
1532257555565686 24 21 -11 5 2 -11 -4 -42
1532257555579648 26 60 8 -1 -4 -9 6 22
1532257555625525 -6 34 -16 -8 -12 -10 -2 -50
1532257555640486 14 -15 12 15 11 1 0 50
1532257555686377 36 -30 20 -9 -7 2 28 4
1532257555696337 -9 11 23 9 8 1 -4 -4
1532257555722275 -19 -46 11 -1 -1 1 -4 12
1532257555737228 -2 -10 9 -7 -5 1 5 -2
1532257555760166 -15 -83 -17 -3 0 1 -6 -11
1532257555782107 3 49 -12 5 2 0 0 -2
1532257555797067 2 42 -16 3 1 2 0 -4
1532257555842945 -6 51 69 0 -4 -3 -4 -4
1532257555856907 -4 11 19 3 2 1 1 -1
1532257555881841 6 -31 -24 -1 1 1 -3 -2
1532257555927736 2 -5 40 -1 -1 -3 0 -3
1532257555939686 4 -9 65 -1 -2 -6 -3 2
1532257555976587 -20 24 -32 -2 3 1 3 -2
1532257556022465 7 0 79 24 6 5 2 0
1532257556082307 3 0 78 12 5 3 1 -2
1532257556105243 2 -42 -20 4 0 1 -2 0
1532257556120203 -4 -7 10 -4 -3 -1 -1 -1
1532257556166080 4 -14 -46 -6 -2 -1 0 -2
1532257556180043 -8 -86 -17 0 1 2 1 0
1532257556202981 7 28 62 3 4 0 3 1
1532257556239883 5 -9 -73 -10 -6 -4 -3 -3
1532257556262822 1 -25 29 4 -3 -1 -1 2
1532257556299722 -38 57 -27 3 0 14 -2 -33
1532257556322662 3 21 25 3 -5 -21 7 -61
1532257556359563 21 -6 -71 -3 -4 -17 0 -13
1532257556382501 -5 -37 -54 -19 2 -27 1 -8
1532257556413419 -3 -19 49 -13 -17 -43 -12 17
1532257556420400 -5 -33 -17 -4 -2 -10 -1 10

1532257556442342 -5 12 15 40 8 -10 0 -2
1532257556488233 1 43 102 -10 -5 -13 -9 -2
1532257556502187 8 6 0 -9 -3 -1 5 17
1532257556543072 -4 5 7 47 7 -6 0 -3
1532257556548059 -10 7 -40 -6 -3 1 -1 -10
1532257556585958 5 -10 5 -14 -2 2 -1 -3
1532257556598923 -5 -6 1 -5 -5 -7 1 6
1532257556645797 -1 11 13 -10 -1 0 3 0
1532257556682699 -2 -4 -4 -3 -1 1 -3 -4
1532257556719601 -6 6 -48 -3 0 -21 -4 -2
1532257556742539 2 15 17 -1 2 7 0 -2
1532257556765478 2 -13 -1 -4 -2 -22 -2 0
1532257556779441 -9 2 3 0 0 6 1 0
1532257556810358 2 -3 5 -2 -1 2 -1 -1
1532257556825318 1 4 13 -4 0 7 3 0
1532257556847259 -14 20 11 -2 0 6 3 0
1532257556886163 1 -5 0 0 -1 10 -2 -6
1532257556899120 -4 -14 -15 -2 -1 -9 -1 2
1532257556923056 5 -7 -5 0 1 5 3 9
1532257556945995 4 -3 11 0 -1 -1 -1 -1
1532257556975915 -2 -2 6 2 2 0 1 -3
1532257556982896 -5 7 6 -4 -4 -2 -12 -6
1532257557005835 3 6 -2 -3 -3 -2 5 1
1532257557027776 3 0 -16 -2 -2 1 -6 -2
1532257557065675 -6 -3 6 -2 3 12 9 0
1532257557088613 6 7 5 -1 -2 5 0 2
1532257557102576 0 -5 -51 -1 1 -4 -1 -4
1532257557148453 0 -13 -2 0 -2 5 -3 -3
1532257557161418 0 -2 6 -1 -1 -4 1 -1
1532257557185370 -1 -3 5 1 1 1 -1 -2
1532257557208309 1 1 13 -1 0 -1 1 1
1532257557231247 4 -10 9 -3 -3 -5 -3 2
1532257557276127 -19 1 5 3 3 1 2 6
1532257557321020 1 -11 -9 -5 -3 2 0 2
1532257557358895 -5 3 5 -1 -1 -8 -2 -3
1532257557388817 0 7 -3 -2 -1 2 0 0
1532257557410762 -1 -9 -10 1 0 8 1 3
1532257557427713 -9 1 -52 -13 -6 -1 -3 -3
1532257557449655 0 -10 -23 -5 0 3 0 -1
1532257557470599 0 -6 43 1 -2 -17 -1 -1
1532257557508497 -2 -3 -60 -1 -2 -5 0 1
1532257557521463 0 -5 -27 9 4 14 4 1
1532257557553377 2 -10 51 1 -11 1 -3 2
1532257557590279 -4 -6 -36 -5 1 -1 -1 -2
1532257557613217 1 6 18 -1 1 -8 -2 -2
1532257557627180 4 9 7 2 0 7 -1 1
1532257557666076 1 7 18 3 -1 -10 -1 -1
1532257557701980 1 -6 -6 -2 1 1 1 0
1532257557732897 -3 2 -6 -1 -1 4 -1 0
1532257557747857 4 1 6 -3 -1 -5 -2 1
1532257557785756 7 -8 -12 -2 -4 -5 0 1
1532257557808695 -2 5 5 1 1 2 -1 -1
1532257557830636 1 -3 -5 -3 -5 -3 -1 0
1532257557853575 -3 -5 -9 0 -1 -1 -2 -3
1532257557868534 -6 -5 3 -2 -1 3 -1 -4
1532257557881500 0 13 -1 0 1 0 1 1
1532257557904439 -2 8 8 1 0 4 1 0
1532257557951313 1 -16 -47 5 3 8 3 0
1532257557973254 -2 20 -37 2 1 7 1 -2
1532257558011167 -2 -12 21 2 3 -2 0 0
1532257558047071 1 7 28 0 1 10 4 0
1532257558071007 2 -5 -17 -15 -6 -3 0 7
1532257558084975 -5 -6 53 3 -3 -28 2 -11
1532257558107908 -8 -6 20 3 0 54 -3 26
1532257558144810 1 35 20 5 5 -23 26 16
1532257558176724 3 21 26 -1 -4 -35 -13 2
1532257558190686 0 4 23 8 4 -3 -7 -7
1532257558213625 -6 16 84 0 2 -2 4 22
1532257558264489 7 0 82 12 4 5 1 -3
1532257558288426 -1 -20 -2 -11 0 0 0 -4
1532257558324330 2 4 0 -10 -4 -2 0 1
1532257558348265 0 9 17 0 0 0 -2 -1
1532257558371204 3 -17 -54 1 18 4 0 0
1532257558384169 -3 -8 10 -21 -13 -9 -5 -5
1532257558401124 3 4 32 3 -7 -5 -2 0
1532257558431044 0 11 17 0 -2 -1 1 1
1532257558444009 -2 -10 47 4 -4 2 0 -2
1532257558468944 0 2 17 -7 2 -1 0 -1
1532257558490884 -3 -9 -11 3 -5 -4 -2 -3
1532257558504846 3 -6 -27 5 -1 -2 -1 -1
1532257558527785 1 -5 3 5 11 1 1 -1
1532257558550724 0 4 -2 -4 -6 -3 -2 0
1532257558564687 -2 -1 -40 0 2 -1 -3 -1
1532257558588623 -1 8 -8 1 3 4 0 -1
1532257558609566 -1 -11 -6 -3 -1 -2 0 -1
1532257558618543 0 -2 -2 -1 -4 -1 -1 -2
1532257558647466 -4 -10 7 -7 -13 -3 0 -4
1532257558678383 2 17 10 -4 -2 -2 -2 0
1532257558684366 1 -3 -1 -6 9 -1 1 3
1532257558714287 1 -20 -6 1 1 1 2 0
1532257558745204 1 10 -27 3 -4 -4 -3 -3
1532257558791081 -1 -5 -10 3 -5 -2 3 0
1532257558813023 -1 -34 -17 0 0 -4 -4 -3
1532257558833967 3 9 -19 -9 1 -2 3 2
1532257558872863 -1 -5 -12 -6 3 1 -3 -2
1532257558887822 -3 0 -20 8 -4 -21 -5 -4
1532257558910761 1 13 16 4 -12 -7 -4 2
1532257558933699 1 8 -2 -16 2 -2 -2 -1
1532257558947662 -3 5 19 6 10 11 4 2
1532257558970602 -8 -9 -34 -11 -7 -10 -6 -4
1532257558994547 2 -13 -15 -2 3 9 1 1
1532257559030441 -4 -5 12 3 -6 -13 -1 -1
1532257559053380 2 2 -1 -3 -3 -16 -3 -1
1532257559067342 -2 -9 -16 -3 -4 -4 -5 0
1532257559113220 0 -4 -16 -5 10 40 6 2
1532257559127182 -2 6 -19 -11 1 -17 -4 0
1532257559151118 -5 5 -2 -2 -5 8 1 0
1532257559173060 -12 5 -27 6 2 21 0 -3
1532257559187023 5 -2 2 16 2 36 4 0
1532257559232900 3 -19 6 -5 -5 -14 -3 1
1532257559246863 -4 -5 27 12 10 61 5 1
1532257559270799 -10 0 71 15 5 -28 -6 -11
1532257559276782 5 5 23 4 5 8 -1 2
1532257559315678 3 -5 -44 -13 -11 -17 -4 0
1532257559353577 4 8 9 8 1 -7 -1 2
1532257559366542 -4 6 7 6 -3 -12 -3 -2
1532257559390478 2 -12 -18 -4 -1 -15 -2 1
1532257559420398 -2 5 10 3 -2 -11 -1 0
1532257559427379 -6 -7 6 -9 -12 -29 -7 -2
1532257559443338 -34 0 2 -4 -1 7 -1 -10
1532257559473257 -5 0 -4 -1 6 64 -3 -7
1532257559511156 3 -7 -4 -5 -1 -14 -1 -2
1532257559539081 -5 2 -12 -3 2 -10 -1 1
1532257559606900 13 27 1 -4 0 -3 0 -4
1532257559629838 6 -33 -6 5 -1 -2 -1 -6
1532257559652777 -49 39 27 15 6 1 2 -5
1532257559689678 15 -89 -23 -8 -11 -5 -1 7
1532257559713614 7 4 7 -2 -3 -5 6 9
1532257559726580 -7 2 -4 0 2 1 -1 -2
1532257559750516 45 1 -22 -9 -2 1 -3 -2
1532257559764478 -5 -92 20 3 1 -1 -3 3
1532257559795396 -4 48 16 4 3 8 3 22
1532257559810355 -8 18 -4 -7 -6 -12 2 -4
1532257559857231 4 50 9 7 4 1 4 -5
1532257559870196 -23 0 -18 0 0 -2 1 -2
1532257559916073 8 -13 4 -7 -2 -2 0 -4
1532257559975913 -8 -10 -24 83 8 -1 1 8
1532257559989876 -11 8 -17 -41 -37 -12 -15 17
1532257560035753 -10 -25 -12 13 -2 -6 -1 -8
1532257560095593 -1 -23 -17 -4 -3 -2 2 -11
1532257560109556 -2 13 16 3 -1 1 2 6
1532257560155433 5 40 -9 -1 -2 -1 -1 -7
1532257560178384 -1 21 -15 -2 3 1 -7 -9
1532257560215273 0 -2 1 -1 -1 -1 -5 -5
1532257560253171 3 20 -4 -8 -2 1 0 0
1532257560276110 -4 29 0 7 -8 -1 2 4
1532257560313011 5 -11 14 3 -7 -4 8 3
1532257560342931 3 7 6 6 15 1 4 2
1532257560411748 -1 -1 -3 -5 -16 -2 2 1
1532257560418729 -4 10 -2 2 5 -1 1 -1
1532257560455630 2 -2 -12 -9 6 2 0 -2
1532257560469595 0 -4 -1 0 9 2 1 0
1532257560515470 -2 -9 -18 -28 -6 -3 -1 -1
1532257560529434 4 23 19 3 1 0 -1 -2
1532257560552372 1 -10 12 -6 -1 1 0 2
1532257560575310 10 20 23 5 0 3 0 3
1532257560628182 8 12 14 -12 -1 0 -1 0
1532257560688008 -1 -13 -75 -4 0 -2 -1 -3
1532257560712943 -9 10 32 -20 5 1 0 -2
1532257560928366 0 -4 3 7 -1 1 0 0
1532257561032089 0 -3 5 8 13 37 6 3
1532257561100905 7 11 3 1 7 11 2 8
1532257561198643 4 -4 -3 3 0 4 -3 7
1532257561341263 3 -16 -14 -9 -1 -18 -6 -2
1532257561618521 7 13 18 -2 -2 -2 2 2
1532257561685341 0 9 5 -5 0 2 0 0
1532257561729224 -4 2 5 1 -1 -2 -2 -1
1532257561879821 -2 8 14 -1 -2 -1 -3 -2
1532257562039412 -2 11 -63 -22 -6 0 1 -1
1532257562060339 -6 -21 -19 -1 2 -1 4 -2
1532257562097240 -5 -34 3 5 2 3 1 1
1532257562202957 -2 -8 5 6 4 2 2 -1
1532257562239859 -6 -10 -22 3 2 0 -2 -1
1532257562262798 3 4 23 -3 -3 -1 0 0
1532257562299699 1 6 33 -11 -10 -5 -4 -1
1532257562332611 -6 0 2 -8 1 2 0 -2
1532257562359539 -31 42 10 -2 2 -1 2 -7
1532257562383475 19 -23 3 7 3 7 -6 1
1532257562420376 -30 18 40 2 1 7 8 6
1532257562443315 13 -50 -69 -6 -3 -9 -3 -2
1532257562457277 -66 -28 -3 6 3 0 1 -10
1532257562480216 29 -15 88 -2 -7 -12 2 8
1532257562503163 38 -10 -26 -5 0 3 -1 -3
1532257562541061 -9 -28 -31 -3 2 0 0 4
1532257562563003 9 -8 -17 -6 -2 0 -3 -2
1532257562581953 15 -1 11 -5 -4 0 -1 2
1532257562621845 17 7 -81 4 -6 -65 -9 -3
1532257562646779 -8 -32 -14 -6 1 0 -6 -3
1532257562683680 9 7 90 2 10 16 16 -25
1532257562698648 14 31 41 -18 2 40 -5 8
1532257562719596 -26 -15 -35 -11 -4 51 20 22
1532257562743531 -14 -40 -26 6 -11 22 -27 -54
1532257562757494 23 21 -21 7 3 8 -2 28
1532257562780432 4 11 32 -15 -8 -29 0 18
1532257562803371 -9 -17 39 -3 -7 -52 -6 -21
1532257562825312 3 3 -70 -3 0 -15 -3 10
1532257562840272 13 7 37 5 3 1 10 34
1532257562874197 -6 2 45 9 0 2 2 -4
1532257562909087 1 -13 -18 -10 5 -4 -1 -13
1532257562915072 -10 -23 1 -5 -7 -8 -4 -4
1532257562938010 -7 -12 -21 -2 1 -1 -1 -6
1532257562959952 16 21 13 15 4 1 0 -1
1532257562982890 -3 -10 -14 -2 -2 -1 -2 -6
1532257562997851 4 28 34 46 4 -4 0 2
1532257563021801 -17 -2 -21 -20 -7 -1 -2 -5
1532257563043728 7 -7 29 32 10 1 3 0
1532257563079632 5 -15 -8 13 4 -1 -2 -2
1532257563119526 0 19 -16 4 6 2 2 1
1532257563140469 2 0 4 -15 0 0 4 -2
1532257563163408 -12 -24 -28 -19 -12 -9 -7 -4
1532257563185351 0 4 2 -6 -7 -5 6 0
1532257563223248 -1 3 12 1 0 -5 6 -7
1532257563237211 22 3 1 4 4 9 -2 11
1532257563260149 -19 34 -2 2 0 11 2 3
1532257563283088 -3 10 7 0 -2 -5 1 3
1532257563297051 11 14 2 3 -1 -2 -5 -16
1532257563327967 0 21 -4 -2 -8 10 3 17
1532257563350906 -6 -25 -9 -5 -2 -15 -17 6
1532257563373845 -4 26 23 0 3 -12 -6 -12
1532257563397781 -2 -52 -26 6 8 9 2 -18
1532257563417728 28 -5 -6 -8 -6 10 25 10
1532257563439669 -37 20 -1 1 -1 -9 -3 -20
1532257563463605 -46 -42 -6 -4 -7 -24 -9 -1
1532257563485560 4 -26 5 -2 -2 1 7 1
1532257563523445 -41 -26 22 -4 -6 5 12 -23
1532257563537408 -14 52 -29 -16 -13 -7 -17 -3
1532257563583285 32 -119 -10 -1 0 -2 0 -22
1532257563606224 54 -13 4 15 9 -7 -30 -9
1532257563620186 16 64 2 -3 -1 -1 7 10
1532257563651104 -6 39 23 11 9 8 10 16
1532257563673045 -18 -18 2 -15 -5 1 6 13
1532257563719920 16 31 -2 -9 -2 1 2 2
1532257563739866 -7 -45 -9 2 -1 -3 -5 -7
1532257563762805 -13 -76 -12 4 3 2 -2 0
1532257563785744 -5 -32 -2 6 -1 1 -2 3
1532257563799706 3 32 18 2 -1 0 1 3
1532257563823643 1 27 -32 1 -1 -1 0 2
1532257563845584 -2 -34 -33 -4 -4 -4 -2 -4
1532257563882485 -2 23 32 -3 -3 0 1 -1
1532257563907419 10 -30 -111 -7 2 0 -1 1
1532257563928362 -6 42 15 -7 -1 0 0 -1
1532257563951301 -6 12 37 1 -2 0 -1 -2
1532257563973242 -20 -35 -32 -3 -4 -4 -3 -5
1532257563980224 11 71 5 7 4 1 2 3
1532257564033082 4 20 55 10 1 2 2 0
1532257564040064 -8 44 47 -4 0 -4 -4 -5
1532257564085955 3 -6 -18 -6 -6 6 1 -1
1532257564098907 -1 -10 -3 -4 -1 -1 -1 -2
1532257564108879 6 39 38 7 -2 -2 -1 0
1532257564145781 -4 -23 -7 -6 -4 -3 -3 1
1532257564168734 3 -2 -10 0 1 0 -2 0
1532257564189664 -1 -20 -11 3 3 2 1 0
1532257564209611 -4 -15 -16 10 4 0 0 -1
1532257564242523 6 -13 -36 -1 -1 -1 0 0
1532257564249504 2 0 4 -3 -2 -2 0 0
1532257564274437 -1 -11 1 2 0 3 3 -9
1532257564288400 -6 -29 47 -5 -4 -2 1 -12
1532257564305355 33 21 -21 0 -1 9 11 102
1532257564327301 -15 -37 7 0 -4 7 -14 15
1532257564348240 -14 33 -40 -6 -5 -46 3 -24
1532257564369185 -11 -20 16 -1 -9 -18 16 41
1532257564423039 2 -18 -103 -65 -15 1 0 17

1532257564458944 -4 -6 -17 -16 -2 11 -4 1
1532257564467920 3 16 40 -6 -1 -1 -3 -10
1532257564489047 2 23 16 -13 -2 3 1 -4
1532257564514979 2 14 17 -9 -4 6 -4 -7
1532257564529938 -1 6 11 -16 -6 -5 0 -3
1532257564560322 -1 21 31 -18 -8 -3 -3 -4
1532257564568300 1 -1 -28 -21 -5 0 -3 -3
1532257564590242 -1 -19 -7 17 2 -5 -2 -3
1532257564625149 -2 3 22 2 0 -1 4 4
1532257564648087 -7 -8 1 -1 1 5 -3 -5
1532257564662050 -2 0 26 -7 -5 -3 -4 -3
1532257564685986 0 -6 0 -3 0 -1 -2 -1
1532257564721890 -5 -10 -26 -19 -4 -3 1 1
1532257564745827 2 -3 -7 -5 -5 0 0 2
1532257564767767 -6 1 9 -1 0 1 -2 -4
1532257564815639 0 7 9 -3 -1 0 0 -3
1532257564835593 -3 6 12 -4 1 -8 -1 -12
1532257564843565 3 -6 -4 -4 -4 8 -1 -1
1532257564865505 0 -6 5 5 3 14 -3 -2
1532257564902416 -19 10 5 1 -2 1 -2 -2
1532257564925346 9 9 -4 2 -1 -1 2 5
1532257564969229 5 11 15 3 1 0 -1 3
1532257564987180 0 2 15 0 -3 4 -2 -2
1532257565010120 -3 9 -15 0 3 12 2 3
1532257565031066 -4 0 -1 -1 2 -7 -1 -1
1532257565067965 0 15 13 2 -1 1 3 3
1532257565081927 -1 -2 -64 3 -1 3 1 2
1532257565105863 -2 -5 -74 -1 -2 -1 -3 0
1532257565143784 -9 50 8 -20 -5 0 -1 -2
1532257565191656 53 -39 27 9 -2 -4 -1 9
1532257565195645 -7 10 28 0 5 -14 4 15
1532257565216621 -21 -39 1 -4 -17 -95 -22 -47
1532257565240335 -39 28 16 -12 -9 40 -21 -88
1532257565263273 2 26 -41 -3 -6 -19 -26 -15
1532257565286212 -2 -32 24 2 6 57 30 21
1532257565316132 5 -1 -11 4 6 19 6 0
1532257565323127 -4 -10 37 -2 -7 -2 -8 -13
1532257565346052 14 17 9 15 2 -3 7 9
1532257565367993 -5 18 66 -2 -6 12 4 -3
1532257565382954 -7 -28 -45 -24 -5 -3 -2 -2
1532257565406890 2 -1 -15 4 8 0 3 3
1532257565428831 -5 -1 -9 -7 -2 0 -3 -2
1532257565443791 0 -13 5 9 4 4 2 2
1532257565467727 0 4 -13 -7 -3 -5 -1 0
1532257565488684 2 -9 -6 -13 -4 -2 -2 -1
1532257565503631 -2 -1 -1 0 -3 0 -3 -1
1532257565525571 -1 5 0 -7 1 4 -1 -1
1532257565548516 0 0 18 5 3 0 0 0
1532257565563471 0 -8 7 16 10 4 3 1
1532257565586410 -1 -7 13 2 -6 -3 -4 -1
1532257565631289 0 -1 -5 11 6 3 0 -1
1532257565656233 2 5 -10 -1 3 -1 0 -2
1532257565683150 0 -5 7 8 11 0 1 0
1532257565719069 -7 -1 -58 -13 -5 -4 -1 -1
1532257565742991 -10 -15 -38 -5 -1 -1 -2 -2
1532257565765929 -5 6 8 7 1 -1 -1 0
1532257565788882 -9 -3 44 -2 -1 -1 -1 -1
1532257565804825 0 -17 17 -13 -7 0 -2 -4
1532257565839732 7 8 61 6 0 -1 -4 -3
1532257565870664 6 12 8 -3 7 8 1 2
1532257565899573 -21 -4 1 -3 -1 -5 2 -4
1532257565945449 -18 -4 -20 -2 2 -53 -8 -3
1532257565997310 -2 -8 16 8 4 22 5 -2
1532257566043195 -5 -15 25 2 -10 -22 -16 5
1532257566057165 -11 -8 11 8 -6 -31 -5 0
1532257566088068 2 19 -17 -11 1 1 -2 0
1532257566123972 18 17 -9 -4 4 -14 10 8
1532257566148905 -6 -17 -101 -16 2 17 -28 -6
1532257566207748 -12 17 8 12 2 28 -2 -8
1532257566244649 -3 6 79 13 0 -1 3 -3
1532257566290526 24 6 -18 3 1 8 -13 1
1532257566334409 3 -6 67 7 -3 -6 -2 2
1532257566352362 -40 2 -17 -16 4 -1 -1 -12
1532257566387268 -16 -16 2 4 3 -1 3 -1
1532257566411203 4 16 -61 4 -3 1 -2 -7
1532257566433145 5 -2 84 7 -1 0 -3 3
1532257566447108 14 -24 3 5 0 -1 -6 -4
1532257566514926 27 5 62 -7 -2 -1 2 15
1532257566525897 16 -3 -44 -2 1 -12 -9 -6
1532257566613662 -28 -3 19 1 1 1 -4 -24
1532257566658542 -12 -23 11 2 -4 -6 -14 -25
1532257566740324 10 29 -9 1 3 -2 0 6
1532257566755284 0 -8 36 -1 -3 -3 1 20
1532257566815124 1 -26 -42 -3 -3 -2 2 -10
1532257566855016 16 -20 30 -9 -4 -1 -2 24
1532257566866984 22 43 -41 0 -2 -5 2 26
1532257566890921 -5 -4 18 -1 2 4 5 -8
1532257566912862 1 37 -11 5 -1 1 -8 -1
1532257566926825 -13 -36 -7 0 -1 3 0 -15
1532257566951759 1 5 -3 2 -1 -4 -1 4
1532257566965720 5 9 22 -2 -4 -1 -6 -1
1532257566982676 -4 -9 -35 -14 -8 -6 -1 -5
1532257567012605 -5 36 105 2 4 -2 -2 11
1532257567036532 -5 -17 -53 -7 -5 -2 -4 -40
1532257567069443 1 5 8 6 9 6 -2 0
1532257567078420 -1 -7 -12 -11 -12 -3 -2 5
1532257567095379 3 5 18 17 1 1 -1 8
1532257567116318 -3 -5 3 -8 -1 -1 0 4
1532257567153220 -4 -8 -33 -2 1 1 1 -2
1532257567227022 -7 -4 -33 -14 -2 -2 -2 -2
1532257567236003 -1 2 20 16 -3 0 -1 -1
1532257567423496 4 0 -20 -12 -11 -4 -2 -3
1532257567430478 5 -8 -1 -20 -14 -6 -3 -1
1532257567475358 10 9 12 1 0 17 4 24
1532257567536211 -3 6 -29 6 1 2 8 -14
1532257567647897 0 4 15 1 1 2 5 1
1532257567715715 -2 -7 -2 -3 -7 -9 -2 -5
1532257567789518 -8 -7 -9 -1 5 58 2 -8
1532257567969038 -6 13 20 -17 -6 -18 -2 0
1532257568022894 10 -15 -17 -22 -7 5 -2 1
1532257568029875 -10 -6 -10 -14 -13 -14 -8 -5
1532257568060792 -26 14 -76 9 4 15 14 6
1532257568083737 17 -9 10 -7 -7 -31 -12 3
1532257568113651 13 16 21 -17 -7 9 -1 2
1532257568159529 -5 3 26 1 -2 -16 -4 -2
1532257568195433 5 10 9 17 6 -11 -3 0
1532257568209395 2 -15 -25 -2 -1 -10 0 0
1532257568255273 -1 1 9 -4 -6 -13 -2 -4
1532257568269235 0 -7 -21 -10 -4 -5 -1 -2
1532257568292174 7 -4 0 15 5 0 -1 -2
1532257568322093 8 6 5 3 5 2 1 0
1532257568366974 0 -3 -1 13 4 -1 0 1
1532257568401881 4 -6 34 27 7 2 0 1
1532257568458729 -4 -25 -22 9 -1 0 -3 -3
1532257568464712 11 -12 80 3 -2 0 -4 -2
1532257568480670 11 -20 -35 -23 -7 -3 -1 0
1532257568518569 8 -12 -39 -11 -6 -4 -2 1
1532257568592371 7 50 -97 -5 -1 5 3 1
1532257568646228 -42 -6 44 2 4 2 3 0
1532257568652225 24 -21 7 8 -4 5 0 2
1532257568682131 0 -14 -75 0 1 -6 6 10
1532257568728008 1 52 38 11 2 2 0 3
1532257568757928 -13 0 -76 4 1 9 -1 -3
1532257568840707 -15 22 15 5 -1 4 -11 0
1532257568924482 0 -8 -29 1 7 18 47 50
1532257568977342 14 -33 77 6 -4 -23 -8 -6
1532257569020227 -2 -17 -66 1 6 49 4 31
1532257569060137 -12 -35 -13 -22 -7 -6 -15 -21
1532257569117965 2 -16 -3 4 -4 -3 -1 -13
1532257569141902 -12 -17 -8 3 3 3 1 0
1532257569208722 1 -34 -4 -4 5 3 5 -1
1532257569245623 -15 -10 -23 -17 -12 -28 3 -2
1532257569291502 -3 14 -3 -7 -5 19 6 4
1532257569335399 -18 0 -5 -2 3 5 -2 -7
1532257569380264 19 -20 -1 1 -1 -5 -5 6
1532257569395224 -74 -1 4 5 2 8 26 35
1532257569440104 -53 19 -15 -4 -6 0 5 9
1532257569456062 29 -80 3 -3 4 2 -8 30
1532257569501939 -28 -6 -19 -11 -20 -30 -13 -59
1532257569530861 36 -4 7 5 -9 -16 -11 -52
1532257569559784 -4 89 17 2 5 -9 -30 6
1532257569574744 -52 57 -48 8 8 71 42 56
1532257569597683 34 20 -63 23 47 59 1 -47
1532257569619624 53 -43 41 16 11 -72 -55 18
1532257569634584 109 -2 -69 -6 -3 -30 21 45
1532257569657523 23 3 -17 -16 -13 -31 41 30
1532257569680462 -3 -33 64 2 -5 11 -15 -23
1532257569695422 -36 23 18 -4 -11 -7 -19 -54
1532257569717363 -36 35 28 9 1 22 17 7
1532257569740301 -18 43 30 14 5 -9 11 -22
1532257569777203 -6 1 46 3 3 10 8 29
1532257569801139 8 28 -55 0 2 7 6 11
1532257569846019 -4 8 -9 -7 -4 -4 -3 -1
1532257569860979 -3 1 -39 -9 -3 1 0 1
1532257569927800 -2 94 -26 -3 0 -2 2 -2
1532257569943757 -8 -111 -55 -6 1 0 -2 -3
1532257569979661 -20 -90 19 -7 -4 -3 -4 -5
1532257570009582 -6 -26 -26 1 4 4 2 -2
1532257570040510 -1 -14 58 6 1 -4 -3 -2
1532257570054461 10 84 -4 8 -1 -2 -1 1
1532257570077400 3 1 -31 6 5 5 0 2
1532257570108317 0 9 21 -5 -3 1 3 2
1532257570114301 -7 -9 2 8 6 0 0 -2
1532257570137240 1 -85 -25 -8 -3 0 1 1
1532257570161176 -3 -19 -23 -10 -5 0 -1 -3
1532257570183117 5 30 69 0 -2 -5 -3 0
1532257570197080 5 33 29 1 4 9 3 2
1532257570221016 3 6 -13 2 -6 -3 1 0
1532257570256920 4 -13 -18 0 -1 -3 -3 0
1532257570280856 -7 13 12 -4 -1 0 5 10
1532257570302798 -2 -8 -7 9 3 0 -2 -3
1532257570339698 -20 -7 -9 5 -1 0 -4 -5
1532257570363635 0 38 5 4 2 -3 6 -7
1532257570377597 -2 45 25 -1 2 23 -7 -57
1532257570400535 -12 -24 40 0 -23 -83 -21 -50
1532257570423474 -7 9 -56 -4 4 15 13 38
1532257570460386 -1 -48 -78 -63 -18 -3 2 19
1532257570483314 6 41 -102 9 8 11 2 22
1532257570497277 6 2 67 38 22 19 7 11

1532257570521226 5 -7 51 -1 -4 -2 1 4
1532257570543154 10 -25 48 10 -1 2 -4 2
1532257570557117 13 -7 26 3 0 2 -3 9
1532257570581053 10 -6 -8 3 2 4 -9 3
1532257570602994 -5 -12 -22 2 -3 -8 6 20
1532257570639895 -3 -3 0 8 4 2 2 -3
1532257570662834 0 -24 15 5 2 1 0 -1
1532257570677797 -7 17 15 -11 -4 -4 2 3
1532257570700732 -3 3 -9 3 3 5 -4 -10
1532257570723672 -5 -3 -7 -8 -6 -23 -16 -35
1532257570737635 -17 6 17 2 3 13 6 -7
1532257570760573 0 7 -28 3 1 1 4 9
1532257570783511 3 -9 -46 -6 -3 3 1 9
1532257570796477 2 -21 -80 -9 -3 3 -1 9
1532257570819416 -1 13 15 -2 1 4 5 13
1532257570828392 -5 1 33 -4 1 7 3 0
1532257570857322 4 1 3 -3 -2 -3 0 4
1532257570880260 5 11 15 0 -2 0 -1 0
1532257570903199 -3 -13 -14 2 2 -3 -1 -1
1532257570917161 1 5 12 -1 -4 -12 1 0
1532257570971017 -3 -2 7 3 0 7 -1 -1
1532257570977001 -3 -12 9 0 -2 -5 -1 -1
1532257571000937 2 6 -1 0 0 2 0 1
1532257571022878 -4 -2 28 1 1 3 -4 -2
1532257571060777 1 11 24 -3 -1 4 0 0
1532257571107652 -5 -4 -18 1 0 -17 0 -1
1532257571121614 9 10 -62 -4 -2 -1 2 -3
1532257571149540 2 4 6 0 0 -2 -1 -2
1532257571171656 -6 15 4 1 -2 1 3 0
1532257571194594 2 -5 -69 -7 -1 4 -1 -5
1532257571225512 -13 12 11 5 4 1 0 0
1532257571240472 -5 13 82 4 -1 1 0 1
1532257571262413 -3 0 31 0 0 2 1 1
1532257571292356 2 6 -51 -2 -5 8 -5 -6
1532257571314297 11 19 -32 -2 1 -9 -2 4
1532257571329258 21 34 23 7 3 0 4 33
1532257571352201 1 -20 5 2 4 -11 -5 -3
1532257571374137 10 -14 -18 -11 -16 7 -11 7
1532257571389098 0 -45 -5 1 24 60 12 73
1532257571420015 -27 -40 24 -2 -12 -81 12 -52
1532257571442953 1 46 25 -6 -4 -40 17 13
1532257571465892 -6 0 -84 -19 -5 0 2 -21
1532257571495812 -10 4 127 -6 -9 -3 -4 -10
1532257571524735 -6 -8 -16 -7 -11 -10 -14 -7
1532257571554678 -6 8 -26 -6 -6 -1 -3 -7
1532257571577593 -1 -4 12 2 5 -2 1 0
1532257571593551 0 6 -4 6 2 3 0 -4
1532257571622473 -3 -8 23 -10 -7 0 -1 0
1532257571637433 3 -4 -46 -17 4 2 3 1
1532257571674335 1 3 23 2 -3 -1 0 0
1532257571714228 -1 -8 -15 0 -3 -1 -1 -2
1532257571750132 -2 -23 39 9 1 0 -2 -2
1532257571768084 2 8 25 -2 -9 -4 -2 0
1532257571775065 0 -1 -25 4 -2 -2 1 0
1532257571825929 1 -3 -24 -15 4 3 1 -1
1532257571831913 1 -8 -24 11 -1 -3 -2 2
1532257571854851 0 5 -2 9 8 -4 -2 -1
1532257571899732 -1 4 -41 -16 -5 0 -1 -2
1532257571914692 0 9 -2 -4 -8 -4 -1 0
1532257571953588 1 -11 -19 -3 1 0 1 -1
1532257571974532 -2 -6 16 0 2 -2 2 -2
1532257572013428 -2 1 -6 -11 -11 -17 -3 0
1532257572019412 -1 0 -20 -9 4 0 -1 1
1532257572051327 1 11 28 21 9 2 0 0
1532257572067284 -3 -11 20 -1 1 -5 -1 0
1532257572102208 -2 -13 -48 -8 -12 0 -3 1
1532257572126127 3 6 72 21 5 3 13 0
1532257572148074 1 12 18 -12 1 -7 -5 -1
1532257572163028 4 1 -48 -18 10 4 0 3
1532257572185967 -1 -23 -1 11 -10 -2 0 -1
1532257572207908 -5 -11 31 1 -8 1 -1 -3
1532257572236830 6 3 -31 1 -16 -4 1 2
1532257572267748 0 1 13 3 -1 4 -1 -1
1532257572290687 0 -7 3 -3 -5 -4 -4 0
1532257572328585 -2 -13 4 1 10 1 -1 2
1532257572341550 1 11 -41 -7 -4 -2 0 -1
1532257572388425 -2 -3 -1 -1 -3 0 1 -1
1532257572402398 -2 -13 33 1 -5 1 -2 -3
1532257572425327 -3 3 -2 0 -2 1 -1 -1
1532257572448280 4 3 1 0 0 0 -1 -2
1532257572486164 -5 -8 -11 -1 0 0 -1 -6
1532257572507108 4 -11 -25 -3 -1 -3 -3 1
1532257572516083 -5 -4 -8 3 -1 0 0 -1
1532257572558969 -17 -12 -14 -6 -1 -1 -1 -6
1532257572590884 11 1 7 1 1 -1 -1 0
1532257572608836 -38 6 -11 -6 -1 1 -2 -9
1532257572628783 15 4 -3 3 1 -1 0 -1
1532257572645737 6 5 22 1 -2 0 -2 17
1532257572688623 -5 -5 -15 -1 -3 -1 2 18
1532257572701588 -11 26 21 -2 -2 -3 -1 4
1532257572748462 -2 -9 -19 -2 0 -2 0 -1
1532257572761428 -5 -36 14 3 0 1 -4 -6
1532257572786361 -11 -7 6 1 -1 1 0 -29
1532257572792345 6 41 0 0 -2 1 11 9
1532257572830244 -7 38 10 -3 0 -1 -4 -9
1532257572845204 6 40 11 -1 1 0 -4 -6
1532257572867161 -27 -2 10 3 -2 -3 -1 4
1532257572907038 5 -13 -7 1 0 -1 0 5
1532257572935961 -4 5 2 -3 26 9 4 -1
1532257572941945 2 39 -19 -11 -22 -8 -2 -4
1532257572964884 -1 6 1 2 0 -1 -1 -14
1532257572987822 7 -11 -2 4 1 0 1 13
1532257573010761 12 5 6 1 4 1 -2 2
1532257573070601 0 -9 17 2 4 1 -1 -14
1532257573109497 6 -14 6 6 3 4 -2 -2
1532257573133433 -13 -23 -8 0 -2 1 -3 3
1532257573145400 1 -6 -5 0 0 -1 -2 3
1532257573178313 5 -14 7 6 14 5 2 9
1532257573193273 -2 35 2 -6 -9 -1 -1 -3
1532257573197263 1 -41 0 -3 -1 1 -1 1
1532257573215214 -1 -28 -3 -5 -4 -2 0 -6
1532257573250120 9 8 1 2 3 0 -1 1
1532257573317948 -3 2 -2 -10 -2 -2 -3 -2
1532257573362819 -17 -20 1 -7 -8 -3 -2 -5
1532257573431635 -9 -16 -18 -15 -6 -6 -3 -5
1532257573461555 -5 -21 -30 -8 -10 -3 -4 -4
1532257573483497 -5 -13 10 42 6 3 0 -3
1532257573528377 -2 2 -38 1 2 0 -1 1
1532257573588217 -2 -1 12 3 1 1 0 -1
1532257573656035 -6 -2 3 -8 -12 -4 -5 -6
1532257573746793 -2 19 4 2 -3 -6 -2 -9
1532257573760756 0 1 -3 -4 -5 -5 -4 -5
1532257573804638 -4 -5 -11 -1 -1 0 13 24
1532257573970195 3 10 6 2 -5 10 -1 -3
1532257574030036 2 6 4 2 3 4 -4 -12
1532257574195593 19 -24 -4 -5 -6 -8 -6 -1
1532257574233490 -19 17 -26 2 0 3 4 2
1532257574301310 1 -10 -33 -7 -4 -3 -3 -3
1532257574391070 0 1 -6 9 0 2 -1 -1
1532257574404035 2 7 -2 -4 -2 -4 -1 0
1532257574426974 1 4 10 1 -2 1 -1 -2
1532257574472851 -4 -18 8 -3 2 1 1 -2
1532257574486814 -3 -7 -3 5 5 3 2 1
1532257574510750 -2 17 13 24 7 1 -1 0
1532257574556626 4 5 -12 -16 2 0 0 1
1532257574609486 -1 -33 22 -11 -7 -1 -2 -2
1532257574631427 4 -40 -44 -2 -3 -3 -2 1
1532257574713209 -62 4 24 2 3 6 2 -4
1532257574752117 9 -16 -84 -3 -2 -1 -4 -1
1532257574795987 22 4 -39 4 0 -5 -3 9
1532257574825907 14 -34 -25 -5 -2 -1 0 4
1532257574851866 -3 16 98 -7 -4 -3 0 -1
1532257574865801 -43 70 -9 -5 0 0 -1 -1
1532257574906691 14 -20 -105 3 2 11 4 -13
1532257574932626 -12 -17 61 15 5 -10 6 5
1532257574976504 -10 127 51 -18 -36 13 -30 -44
1532257575014403 9 -36 -128 -9 -7 -49 18 50
1532257575035347 15 39 110 22 4 -21 17 58
1532257575126104 -12 49 64 2 5 -11 11 29
1532257575142062 -7 -85 -23 0 5 17 1 17
1532257575163006 -11 -21 -87 -10 3 15 1 -37
1532257575177966 7 23 32 -12 -6 2 1 -6
1532257575215864 -68 -88 -76 -44 -9 5 -6 -35
1532257575229827 33 93 60 46 3 -6 6 6
1532257575245795 13 -3 -17 -2 0 -1 0 -9
1532257575289667 26 5 -14 0 0 -3 -1 2
1532257575328563 -3 -3 -17 -1 4 3 -19 -6
1532257575365468 -5 -57 -36 -13 -2 1 5 3
1532257575417326 31 19 25 13 2 -2 -7 48
1532257575455224 4 -24 -32 -7 5 13 4 -65
1532257575492125 46 -1 21 -2 1 0 -9 27
1532257575666659 -26 42 7 -7 -9 -7 -5 -25
1532257575732483 47 -10 -34 -13 -7 -4 7 26
1532257575755437 -4 -14 -7 -12 -9 -11 -21 -33
1532257575785341 24 5 -2 5 0 -1 8 48
1532257575815261 -4 23 15 -7 3 6 16 17
1532257575897043 -3 14 6 -2 1 3 0 -5
1532257575935939 3 -39 -24 -4 -5 -2 4 5
1532257575972840 10 1 -6 0 1 0 0 0
1532257575994781 -11 -77 -2 -3 -1 0 -1 0
1532257576017720 9 84 61 6 -2 -1 1 -1
1532257576056616 2 -3 22 1 1 -1 1 -1
1532257576092520 -5 -4 50 3 2 0 3 -2
1532257576160338 13 31 11 8 2 0 2 3
1532257576190258 2 42 -59 -11 -3 -2 0 2
1532257576212200 -6 -20 9 2 4 2 1 -1
1532257576273037 -11 -23 -39 -11 -4 0 0 -1
1532257576332877 -3 60 -5 6 -1 -1 -1 -1
1532257576377757 -3 -2 -41 2 0 -1 -2 -1
1532257576415656 -7 15 9 0 1 3 1 0
1532257576452558 -8 -57 -23 -4 1 3 12 -22
1532257576580216 1 15 -3 19 10 -4 1 -14

1532257576640056 -3 -17 -13 -4 -6 -7 -2 -6
1532257576677954 -1 4 -5 0 1 3 2 -5
1532257576699896 -5 6 -8 -13 -3 -4 4 5
1532257576737794 -2 3 1 3 -2 -2 -4 -2
1532257576760734 6 -10 -6 -13 -4 2 6 9
1532257576811597 1 -4 0 1 1 -1 -1 0
1532257576857474 0 2 0 3 0 0 -2 0
1532257576880413 -1 15 -8 2 2 -4 -1 -3
1532257576895373 3 -7 4 -3 -2 1 0 0
1532257576917315 -2 -2 0 10 0 0 -1 -1
1532257576955066 4 -26 -32 -7 2 0 0 0
1532257576978005 0 -6 -4 -1 -2 1 0 -1
1532257577000943 -10 11 9 -3 1 20 3 1
1532257577037844 -2 0 9 -2 -4 -2 0 -2
1532257577068761 -5 1 5 -2 -2 -9 -3 -1
1532257577076740 -2 26 -6 1 0 -4 -3 -3
1532257577105664 3 4 -1 -9 -4 -5 0 1
1532257577120623 -6 3 0 1 -1 0 0 3
1532257577158528 2 -4 7 0 -1 6 0 1
1532257577180463 -1 4 11 33 6 -3 -1 0
1532257577195423 7 -30 -8 -14 -4 -7 0 2
1532257577218362 3 2 -2 1 2 -3 0 -2
1532257577240303 -5 0 0 0 -1 -3 -2 0
1532257577255263 -5 -4 -18 3 1 0 -1 -1
1532257577286190 2 1 -8 -6 1 -3 -1 0
1532257577308122 -7 8 11 -1 -1 2 1 -3
1532257577314106 0 -3 0 -1 -2 0 -1 2
1532257577338042 -4 10 8 -5 -3 1 0 -3
1532257577360981 -6 26 101 1 -1 0 1 1
1532257577382922 0 7 42 6 3 0 0 1
1532257577420821 -3 -16 -56 -3 0 1 -1 -4
1532257577442834 2 20 6 -3 -3 -19 -2 -2
1532257577457794 -7 12 -2 1 6 56 -13 -20
1532257577480733 3 -67 -9 -4 -10 -14 8 -2
1532257577494042 13 3 16 5 8 91 -8 22
1532257577516981 1 51 28 1 -7 -42 -7 31
1532257577525957 6 43 49 4 3 -16 4 4
1532257577554879 -6 1 29 0 1 -19 5 -21
1532257577577818 1 -22 -51 -5 0 -4 8 22
1532257577600757 -3 -19 -31 -3 0 -8 -2 2
1532257577622698 -1 -17 47 -9 -3 3 2 -4
1532257577630676 0 -7 16 -1 1 -3 1 8
1532257577653615 0 -1 -4 -4 -1 -7 -9 -6
1532257577674560 2 17 -2 -10 -1 -3 0 6
1532257577705477 -3 11 6 -3 -3 -1 -2 -1
1532257577722431 -5 -6 3 -19 -9 -6 -2 0
1532257577743388 -3 -13 -4 9 4 -3 -3 -3
1532257577780277 -1 -8 -7 5 -2 -2 0 1
1532257577803216 2 -2 5 -4 -3 -1 1 1
1532257577817178 -2 5 3 3 4 2 1 1
1532257577873028 2 13 19 9 7 3 2 0
1532257577900954 -2 -5 -5 -7 -3 -2 -3 -1
1532257577922896 -1 -4 8 -9 -2 0 -2 -1
1532257577960794 2 2 42 2 -2 2 0 2
1532257577983732 0 -3 -3 2 -2 -4 -1 0
1532257578005683 1 -3 -8 -1 4 2 1 0
1532257578043573 -3 -14 -6 -9 0 1 0 -3
1532257578056552 -4 -17 -4 -4 -8 -2 -2 -3
1532257578080474 -2 -4 22 0 5 0 0 0
1532257578110394 0 9 13 3 1 4 0 0
1532257578163252 -2 0 6 7 7 18 23 2
1532257578177216 1 0 11 10 10 5 2 2
1532257578208132 -1 3 -33 -12 -10 -13 -12 0
1532257578237055 -2 -21 8 -12 -16 -2 -2 0
1532257578260991 1 0 74 -11 -6 -4 -2 -1
1532257578282932 -4 4 -46 -8 -1 1 9 1
1532257578296895 -1 -13 -18 8 4 0 -4 -1
1532257578320831 1 11 3 -19 -17 -3 -5 0
1532257578356735 0 -10 -20 32 8 5 -3 -2
1532257578386655 0 8 10 -2 14 8 6 -1
1532257578448490 0 -6 31 -10 0 -2 -1 0
1532257578485404 -1 0 17 13 -3 -3 -2 0
1532257578499354 1 0 -26 13 33 8 3 1
1532257578523289 1 30 23 -10 -16 -6 -4 -2
1532257578560191 -2 -17 -1 -3 1 0 0 -1
1532257578597092 -1 0 -7 -13 -5 -2 -2 -4
1532257578620031 -4 -17 -17 1 -2 0 2 -1
1532257578650949 4 4 5 1 1 -1 -2 -3
1532257578656933 0 10 -7 4 1 -2 1 3
1532257578695828 5 -14 0 -4 1 -5 -2 -3
1532257578716772 3 7 12 5 -3 1 -1 -1
1532257578763647 16 -31 -35 -3 -2 -1 -5 -9
1532257578785597 7 -10 -7 2 0 -1 -1 -2
1532257578860389 -12 10 23 -1 -4 -2 -4 -20
1532257578883327 -11 -8 -8 -5 0 0 1 -2
1532257578913247 -8 16 -5 1 1 3 -6 -6
1532257578966106 -8 7 -5 -2 2 1 18 10
1532257578979071 -2 35 -16 -1 -2 -2 -21 1
1532257579025946 14 -6 8 -6 -3 -1 0 6
1532257579085792 0 36 8 -3 -2 -2 1 3
1532257579099748 11 29 -44 -1 0 2 -1 17
1532257579123684 -10 -13 1 4 0 -4 -12 -23
1532257579147620 -8 -13 -9 2 -4 1 3 4
1532257579159588 7 -32 -93 -11 -10 -2 -3 4
1532257579183524 -11 16 45 2 -3 -4 0 22
1532257579212446 2 4 32 1 1 -2 -2 -9
1532257579230415 7 8 21 4 -1 -2 0 11
1532257579273284 -1 -71 -25 -5 -2 -5 -4 7
1532257579302222 8 44 5 -3 0 0 0 3
1532257579339108 -4 9 -5 -4 -2 -1 -12 10
1532257579363045 0 14 24 6 4 -2 5 -17
1532257579385995 -1 28 10 1 0 -2 -4 -4
1532257579399946 -4 -10 -14 -3 -1 -1 -4 9
1532257579422884 1 -17 12 4 6 9 7 -12
1532257579476741 -4 7 8 -5 -3 -2 2 -10
1532257579500676 -1 1 41 4 -1 -5 -1 6
1532257579513642 1 -7 12 17 5 1 1 2
1532257579528612 -3 -6 -4 14 6 2 1 -1
1532257579576473 -1 -9 6 -9 -4 -2 -4 -3
1532257579597418 1 -1 -11 -4 1 2 0 2
1532257579625343 -1 -1 -14 15 2 0 1 -1
1532257579649289 1 -2 9 2 -5 -2 -1 -2
1532257579669230 -1 -6 20 -1 0 0 1 1
1532257579708121 -4 -7 -35 17 -1 -2 -1 0
1532257579723082 3 8 82 8 19 3 3 1
1532257579768959 0 -15 -5 -7 -11 -3 -3 -2
1532257579797882 -2 3 9 -24 -10 -4 -1 -2
1532257579842762 3 2 -25 -2 4 2 2 0
1532257579865700 -5 -30 -13 -12 1 1 1 1
1532257579910580 12 -3 -13 13 6 -1 0 2
1532257579961444 8 4 16 -20 6 0 -4 1
1532257580141961 -7 -1 -9 5 -8 -4 -6 -17
1532257580225737 2 -4 12 3 -1 2 2 -20
1532257580315498 1 9 10 -1 -2 7 4 19
1532257580330457 3 13 -3 -1 -3 -7 -4 -9
1532257580428196 6 21 -1 -7 -3 -1 0 7
1532257580465098 2 0 5 2 4 0 0 3
1532257580547876 3 -35 -6 3 0 -2 -1 -1
1532257580562836 2 -32 -7 -10 -3 -2 -1 2
1532257580630654 7 -12 -45 -2 -1 1 0 2
1532257580667555 0 -6 15 1 -6 -2 -3 -3
1532257580705454 4 4 -6 -7 -4 0 1 2
1532257580715428 -4 -17 4 -3 1 -3 -4 -3
1532257580750334 1 -15 -6 -3 -1 0 -1 0
1532257580826132 -6 -10 -16 -1 -5 -1 0 -1
1532257580848073 0 -18 19 3 -3 1 0 3
1532257580871012 2 31 -13 -1 -3 0 -1 -1
1532257580922873 2 40 19 5 -5 -3 -1 -1
1532257580937833 -6 -5 -27 -9 4 2 1 1
1532257580976729 3 -10 9 0 2 1 -2 -1
1532257581004654 -8 -26 -2 46 6 0 2 -2
1532257581073470 7 39 30 -6 1 -2 -3 -2
1532257581117353 4 -3 8 4 -3 -2 0 1
1532257581178191 32 -17 -64 -4 -2 -2 3 12
1532257581199134 11 54 -76 -12 -5 -3 -1 1
1532257581210105 -6 -19 5 1 1 1 1 -2
1532257581240033 -6 -9 -18 -3 1 2 0 -6
1532257581284906 -9 6 59 -3 -3 -1 1 -1
1532257581291887 21 -21 -36 -3 -3 -4 -1 -3
1532257581327790 -10 41 69 4 -7 -5 -1 -40
1532257581350728 29 -30 10 7 1 1 3 23
1532257581394612 13 -33 10 -8 -8 -5 -2 17
1532257581448467 -3 38 19 2 6 7 7 23
1532257581457458 -17 -7 -113 10 4 -2 -1 6
1532257581518281 -10 43 0 19 1 1 -4 -13
1532257581522270 -6 26 89 -10 -6 0 -5 20
1532257581553188 -4 -8 -38 5 -1 20 -1 36
1532257581568147 -6 75 98 -18 -6 11 4 -2
1532257581591086 12 -11 10 0 -7 -3 -3 -15
1532257581613028 -2 6 -25 -1 15 30 12 -19
1532257581627988 1 21 -64 -6 -3 -45 0 15
1532257581651923 17 -39 13 -6 -3 19 0 -19
1532257581672868 5 16 -10 -5 -2 -3 -5 -7
1532257581695806 -3 9 20 1 -17 -86 -38 -38
1532257581718745 15 -29 -92 -5 1 28 25 21
1532257581754649 14 -14 -104 4 6 11 10 8
1532257581764622 -5 -5 127 -4 -5 0 -6 -22
1532257581817481 -4 -11 11 10 8 -3 5 2
1532257581822468 0 18 26 2 6 8 -3 -10
1532257581867363 9 6 40 10 0 -1 -2 3
1532257581898265 1 15 13 -4 -1 3 -12 -3
1532257581921203 14 4 15 5 -3 -4 -1 6
1532257581957107 -6 9 12 4 1 1 5 -6
1532257581996014 -4 -3 7 -4 -4 -3 5 -5
1532257582047871 8 1 1 -1 -1 -9 -19 -4
1532257582115697 -5 -10 -3 1 1 0 -36 -26
1532257582153589 -8 -12 -5 -1 -3 -13 -6 15
1532257582175530 3 15 -14 -9 -6 -1 -34 -33
1532257582243349 0 -15 0 1 4 4 -6 -17
1532257582272271 -4 5 0 3 5 5 9 3
1532257582311167 -13 54 8 -5 -5 10 31 -68
1532257582355050 11 4 -20 -10 -12 -44 -128 0
1532257582392949 -66 -2 9 -20 -7 2 -71 -14
1532257582429850 46 -3 -5 3 5 6 -88 -4
1532257582474730 0 33 11 8 10 5 118 36
1532257582543546 20 76 8 -4 2 21 -59 2
1532257582611364 13 23 6 -2 -7 -12 91 -2
1532257582641285 9 -87 -5 7 5 -3 59 5
1532257582655247 -8 16 -2 6 5 -5 60 3
1532257582692149 -3 23 5 2 -3 1 -11 -4
1532257582715087 -9 16 9 -1 0 2 4 -1
1532257582752986 -4 -24 -13 10 5 0 -13 -2
1532257582774927 -4 23 20 -5 -2 2 -3 0
1532257582834767 -9 -105 -76 -15 -2 -1 -4 0
1532257582872666 -6 -10 66 9 0 -2 -2 -3
1532257582940484 4 14 -44 -24 -5 1 2 2
1532257582992346 -7 -53 8 3 -1 8 2 -3
1532257583015289 9 40 78 8 5 3 4 6
1532257583053184 1 3 -42 3 6 8 0 0
1532257583075124 -5 -21 -101 -11 -4 -6 -1 1
1532257583113027 -2 -16 -19 -6 -5 -9 -3 0
1532257583180841 -1 4 19 -8 -4 0 -1 -1
1532257583194804 0 -1 -12 0 0 3 -1 -2
1532257583254644 -2 11 -85 -5 -1 -2 1 3
1532257583277583 -17 -18 43 7 3 0 -1 -4
1532257583292543 7 -12 -3 1 0 -1 0 -1
1532257583337423 -5 21 -8 -3 0 0 2 -11
1532257583383300 -9 -17 29 -3 -8 -11 -18 -34
1532257583435162 -9 15 52 -1 1 5 4 -13
1532257583458100 12 43 -17 17 2 -1 -2 5
1532257583495001 -8 19 -17 2 4 3 0 -1

1532257583532899 4 6 1 6 1 3 0 -3
1532257583577779 -2 8 16 3 -3 2 -4 -12
1532257583592740 16 0 -19 0 4 3 1 0
1532257583638618 -1 -10 -7 -16 -8 -1 0 4
1532257583674991 -4 17 6 3 1 -6 -4 20
1532257583734830 0 -6 13 -5 -5 -2 -6 3
1532257583758771 -7 12 4 -5 -1 0 1 -7
1532257583780708 -2 1 11 0 -1 3 0 -8
1532257583832570 -4 -7 -8 1 1 -12 -4 -7
1532257583878446 0 -4 -10 -3 -2 2 0 -24
1532257583915348 -4 -30 -16 -6 -3 -3 -4 2
1532257583976185 -2 4 1 0 1 -1 -9 -36
1532257584012089 2 -9 -22 2 1 2 0 9
1532257584095865 1 -67 -38 -4 1 1 1 7
1532257584131769 1 35 -12 4 -1 1 -2 3
1532257584178644 4 14 27 6 0 -2 -1 3
1532257584191609 -3 -13 16 -3 1 1 1 -1
1532257584238484 0 1 -4 -1 0 -19 10 -6
1532257584251449 3 -28 -5 0 10 61 5 -63
1532257584275385 10 33 0 -3 1 -58 11 54
1532257584298323 -22 -57 21 -8 -14 18 -7 19
1532257584312286 -11 56 67 -1 -1 -38 -26 -33
1532257584335485 9 -20 16 -3 -2 4 -8 10
1532257584358407 3 -4 -26 -6 -8 -24 -1 0
1532257584372371 2 -25 25 -17 -11 8 6 0
1532257584394462 4 65 -45 -37 -14 13 3 4
1532257584440337 -3 3 4 4 3 4 -5 1
1532257584454300 0 -18 -2 10 -1 -5 -2 1
1532257584463276 2 21 2 -8 -5 -5 -1 -3
1532257584508156 -9 8 -3 32 12 10 3 5
1532257584514140 6 -14 -19 -12 -8 -1 -3 -4
1532257584561014 0 -21 -14 -6 -1 -2 0 1
1532257584573980 4 -3 0 0 1 -2 -1 -1
1532257584620854 -1 2 4 2 -2 -2 0 -4
1532257584634817 -2 0 9 8 -1 0 1 0
1532257584657755 -3 -2 -2 8 5 -1 1 -3
1532257584680694 -1 -2 -2 -10 -9 -3 -3 -1
1532257584703633 2 -2 -2 4 9 1 2 0
1532257584719590 -1 2 1 -5 -2 -3 -2 -2
1532257584742535 -1 -2 -5 -4 -5 -2 0 -2
1532257584764470 -2 10 11 -1 8 4 1 0
1532257584784417 -1 -8 -14 7 -1 -1 -1 0
1532257584802369 2 -1 8 2 -3 -2 -3 1
1532257584831291 -2 -14 -5 -5 -5 -1 -1 -2
1532257584861211 0 -2 23 2 -6 -3 -2 0
1532257584898113 1 17 2 5 4 2 3 1
1532257584934020 0 25 61 16 5 3 1 -1
1532257584957953 0 -8 32 4 2 2 0 0
1532257584994854 -1 -20 -34 -6 7 4 -1 0
1532257585040732 0 -23 -61 4 12 4 1 0
1532257585070652 -1 7 3 -5 -9 -3 0 -3
1532257585114533 -1 13 74 -14 -12 -7 -2 -2
1532257585131488 -2 -13 17 25 11 6 0 -2
1532257585144454 -2 2 -7 -1 -7 3 0 0
1532257585162406 -3 6 25 11 5 -6 3 0
1532257585183350 -5 -15 -14 -23 -12 4 -9 -3
1532257585204294 1 -6 27 -20 -12 -10 -2 1
1532257585222246 2 1 -1 -10 7 11 2 0
1532257585243190 4 4 16 3 1 -26 0 2
1532257585272112 -1 -4 -9 -7 -2 45 3 1
1532257585294054 4 -1 2 16 8 -10 3 2
1532257585317998 0 15 17 -11 0 -12 -1 -1
1532257585331953 2 4 -7 7 1 -18 3 0
1532257585354906 -3 6 -24 -3 0 -24 -8 -2
1532257585377830 0 -15 -35 5 -8 7 -1 -3
1532257585384817 -1 -3 2 1 4 -14 -16 -2
1532257585423719 0 6 14 -12 -11 9 -12 1
1532257585437670 2 1 42 -6 -1 2 8 2
1532257585460609 12 -3 -10 -6 1 -29 -9 1
1532257585483571 -1 8 0 15 -5 -24 -8 -2
1532257585504514 2 0 -40 -4 6 41 1 1
1532257585543410 -5 -10 -46 -1 -4 23 15 2
1532257585557375 -11 -3 -6 7 2 -9 -3 1
1532257585603251 8 -18 5 -9 -2 4 -2 0
1532257585617213 -1 10 -6 1 2 1 0 4
1532257585641149 2 0 -3 -1 0 -1 -2 -2
1532257585671069 6 -8 -16 -2 0 -3 -2 1
1532257585686030 -5 -4 -28 -2 -2 -3 1 -4
1532257585722931 39 3 -1 -2 -5 -6 -2 -3
1532257585736893 -3 -5 1 -3 2 -2 -2 -1
1532257585783768 1 -17 -1 7 2 0 4 2
1532257585820669 -16 4 -3 6 5 3 -9 -14
1532257585843608 -1 1 16 7 0 1 0 -2
1532257585865549 -17 -50 -35 -9 -4 0 3 2
1532257585911426 12 12 -13 -2 -1 -1 -6 9
1532257585926387 -2 -23 -50 -1 1 0 1 -9
1532257585963288 -3 -16 1 3 1 0 -1 -12
1532257586001186 4 -8 8 0 0 1 5 2
1532257586023127 -5 19 -5 2 0 -1 -1 -9
1532257586037090 -4 7 0 1 -3 -3 -7 -6
1532257586082981 11 19 33 3 -1 -3 -1 12
1532257586106928 10 12 12 2 0 0 5 39
1532257586119883 4 -35 -25 -1 2 0 -17 -18
1532257586134842 -11 -41 2 2 0 2 -5 -18
1532257586171744 -11 34 5 0 -3 -4 -1 6
1532257586203659 1 11 2 -3 -2 -2 5 10
1532257586240559 -2 31 -11 -2 5 -2 0 3
1532257586246544 6 -7 3 -7 -1 -2 -1 0
1532257586276464 -2 2 -1 -2 -6 -4 -2 -3
1532257586300400 -2 -50 -23 -3 -3 -2 -2 -2
1532257586345280 0 6 -9 -3 0 0 0 -2
1532257586367221 -10 -14 -7 -11 4 0 -3 -2
1532257586406117 5 -3 -7 -3 1 -3 0 1
1532257586428059 -5 -10 -3 10 11 1 1 -1
1532257586505851 0 16 17 12 -1 -3 -2 -2
1532257586525797 1 9 -9 -18 -4 2 1 1
1532257586563696 -1 20 0 -16 -9 -4 -3 -1
1532257586585638 -4 2 -38 -17 12 4 -1 0
1532257586608576 5 -4 4 24 13 5 4 2
1532257586624533 -1 0 10 -8 7 2 1 3
1532257586668416 1 -7 23 9 10 4 2 0
1532257586699333 6 1 12 5 0 -1 1 1
1532257586736241 5 16 -1 -9 -3 -1 -2 -1
1532257586794080 -7 8 7 -3 -2 1 -2 -2
1532257586838960 5 25 15 7 6 -2 -6 -5
1532257586885850 -1 -16 -4 3 3 8 -5 -9
1532257586945675 -3 -5 18 1 -4 -1 -8 -1
1532257586959637 0 -16 -8 -5 1 -1 0 -3
1532257587034438 1 8 0 -1 -3 -9 -20 -28
1532257587109237 0 2 6 -2 -5 -6 10 4
1532257587186046 0 -7 11 -2 -3 -2 3 0
1532257587236896 1 5 -8 -5 -2 4 3 3
1532257587350591 -16 25 30 5 0 -2 1 11
1532257587373531 -36 -8 18 25 3 4 -1 -1
1532257587448339 7 -12 -3 6 0 -1 -1 9
1532257587478250 4 3 -7 17 2 1 1 1
1532257587539087 -4 -17 -6 6 0 -1 0 1
1532257587559034 -2 -18 -1 -2 -3 -2 0 -1
1532257587590949 0 3 17 0 -1 2 -2 0
1532257587628847 -3 15 17 3 -1 0 -1 -1
1532257587650789 0 -2 -13 2 -1 2 0 1
1532257587688687 -1 -18 -25 -1 2 -3 0 1
1532257587710629 0 16 18 22 12 5 2 0
1532257587733567 3 15 -3 -15 -8 -2 -3 1
1532257587754511 -5 -3 -16 -7 1 3 2 -3
1532257587808368 -4 23 23 -6 -5 -4 -4 -1
1532257587814352 -5 -25 14 -7 -5 -1 -1 -1
1532257587845269 0 21 27 -8 -2 -3 -1 -2
1532257587882170 -2 26 -14 7 0 2 1 0
1532257587906106 1 -18 -25 16 3 -1 0 -1
1532257587942009 -9 2 -46 -4 -1 2 2 -3
1532257587956970 1 -23 23 -9 -2 -1 0 0
1532257587987887 34 -20 -70 -4 1 -4 4 4
1532257588001851 -4 3 36 -9 -4 1 -4 -5
1532257588024789 -20 -9 29 2 0 -1 1 -3
1532257588047727 -16 -9 5 2 3 3 0 1
1532257588102581 35 -11 53 0 -2 -1 -1 4
1532257588147461 -18 16 65 10 2 1 2 -3
1532257588153444 -5 -23 -64 -20 -5 9 5 7
1532257588214282 -16 1 78 -8 -6 -2 -1 -6
1532257588251184 -18 46 -50 -17 -31 -98 -24 11
1532257588272127 -5 89 -24 20 -16 -119 -30 -54
1532257588311023 15 -66 23 -9 -5 -62 8 44
1532257588332965 12 3 18 -11 -16 34 4 53
1532257588355903 0 43 -4 4 -11 -1 -15 -56
1532257588378842 16 102 37 -5 4 71 26 26
1532257588394799 -1 -65 -93 -10 -7 -9 -2 -22
1532257588461621 1 -12 24 0 -2 -21 9 11
1532257588483561 -2 5 30 -2 6 10 10 -58
1532257588498522 5 3 50 3 1 9 -5 22
1532257588513481 3 15 30 14 -1 2 -1 3
1532257588550383 2 5 13 3 -1 -6 -3 3
1532257588564346 9 -14 -20 -6 -3 -10 -3 -5
1532257588611220 5 8 -3 3 -2 -4 -1 -2
1532257588633162 -13 -26 -36 -14 -11 -9 -22 -11
1532257588693999 -20 6 2 -4 2 -1 -3 -11
1532257588709957 4 -39 -33 -17 -1 -1 0 -6
1532257588737882 -21 -14 -18 6 6 -6 -2 -7
1532257588752841 4 3 0 6 0 -2 4 -1
1532257588776778 -4 -13 -12 -8 -5 -1 14 -4
1532257588790740 -5 -3 2 1 4 3 7 -13
1532257588828639 20 0 -7 -1 -4 -15 -39 14
1532257588858559 -9 -58 1 -1 -2 0 -17 -19
1532257588880500 22 71 4 0 -3 5 18 -2
1532257588910420 36 42 10 1 -4 -19 -48 38
1532257588933359 3 -35 -3 -2 -5 -5 -40 -19
1532257588947322 -27 75 -11 -9 -7 -2 53 13
1532257588971257 -29 23 -7 -4 -2 9 8 -23
1532257589025113 33 -67 7 4 2 1 -4 40
1532257589037082 -17 -15 -6 -5 -6 -10 -22 -7
1532257589074980 21 10 0 -10 -26 -71 -84 9
1532257589089940 19 -31 -9 7 0 -17 -21 12
1532257589135819 23 30 4 6 5 12 61 27
1532257589149780 -11 -93 9 10 15 26 70 14
1532257589180698 -7 17 2 0 -1 -6 -45 8
1532257589194660 -24 11 -3 -6 -1 1 -7 -14
1532257589232560 -6 -68 11 5 2 0 -20 -9
1532257589246522 3 27 8 -6 0 0 -19 -5
1532257589277439 -4 34 49 3 1 -2 3 -3
1532257589331295 -6 -59 -80 -3 0 -2 2 0
1532257589367199 0 -109 -45 5 1 1 0 0
1532257589391134 0 -6 63 1 0 -1 -3 -2
1532257589412079 0 -29 -22 22 1 0 4 0
1532257589427039 -3 7 32 -7 0 3 0 -1
1532257589457956 -2 3 -69 -3 -1 0 -3 0
1532257589472916 -5 15 69 -8 2 2 -5 -3
1532257589509822 -1 27 9 -5 -4 -2 3 -2
1532257589532756 5 -21 -50 -2 0 -2 -1 0
1532257589554697 2 -9 -74 -5 1 -2 -3 -2
1532257589592596 0 -31 -30 2 -1 1 -1 2
1532257589607556 -9 7 -4 19 4 -2 -7 -5
1532257589652436 6 13 -112 6 3 3 3 2
1532257589667396 -4 10 -4 -4 -4 -5 -4 -8
1532257589712276 11 -39 -18 0 0 3 -11 -13
1532257589758154 7 35 -18 -2 -2 2 -6 13
1532257589781092 -8 19 -31 4 -12 -69 -4 -13
1532257589787077 -1 47 67 10 4 13 2 -6
1532257589848911 0 -19 -49 -41 -11 -1 -5 -1

1532257589892794 -13 11 -24 -6 -9 -8 -2 -6
1532257589906756 13 -28 -16 9 2 10 4 3
1532257589929695 -8 -17 -18 4 0 -2 -5 -2
1532257589952634 3 2 1 4 -4 -4 -4 10
1532257590012474 2 10 -14 -4 0 5 0 2
1532257590026436 -6 2 -4 0 2 2 3 4
1532257590080308 -8 -4 -1 -2 -4 -3 -5 -4
1532257590103247 -1 -11 -15 -1 -1 7 2 4
1532257590193007 6 9 -20 -4 0 -2 -1 0
1532257590215946 8 -3 15 4 3 1 2 3
1532257590229908 -6 -2 1 6 6 -2 -1 -4
1532257590252287 -2 -2 -8 -1 -5 -10 0 2
1532257590290173 -1 -1 6 -5 -6 -4 0 2
1532257590342035 4 -18 -18 -4 -4 0 -2 2
1532257590395890 0 -4 1 -2 1 -12 -5 0
1532257590469693 -1 3 1 4 6 -15 -3 -14
1532257590515228 4 -3 -13 -3 -1 3 1 0
1532257590552137 0 12 10 1 0 -2 0 0
1532257590589031 3 -13 -13 -4 -7 -26 -4 1
1532257590672772 -2 -3 -5 0 0 -7 1 2
1532257590703689 3 -3 -8 1 0 -4 3 7
1532257590755551 -2 1 5 1 -1 8 -1 -2
1532257590800430 -2 -10 -10 -2 -2 1 -1 -1
1532257590861281 1 -8 -6 1 0 3 1 1
1532257591168446 -5 -12 -9 -5 0 18 0 -7
1532257591205348 -2 -9 -12 0 1 10 5 1
1532257591571605 2 -3 -4 -3 -1 22 2 2
1532257591701406 0 7 7 2 2 16 3 1
1532257591836047 -4 -20 -10 -3 0 -1 -4 -3
1532257591917828 -2 -14 -4 0 0 -4 -1 0
1532257592188115 -1 -6 -3 -2 -8 -2 -4 -7
1532257592338712 -3 1 -2 1 -2 -6 -6 -4
1532257592540207 0 -7 3 -2 -4 -2 0 1
1532257593561175 -5 -3 -4 -3 -3 -15 -4 -2
1532257593943453 -4 1 2 -1 3 18 -2 -2
1532257594219714 2 0 8 -1 -1 -2 1 -1
1532257595615913 -4 -11 -4 0 2 5 -1 -1
1532257595668772 -3 -11 -1 -3 -3 -2 -2 -2
1532257595705674 1 5 -16 1 -4 -22 -5 -1
1532257595727614 1 20 12 1 2 7 2 -1
1532257595810393 0 -16 -2 0 3 9 2 1
1532257595878212 2 12 3 -1 -3 -4 1 -1
1532257595932079 3 -11 -6 -2 1 7 0 0
1532257595989913 -1 4 -4 -4 -3 -10 -2 0
1532257596049753 0 7 -3 -2 0 2 1 1
1532257596095632 -1 1 6 1 4 27 1 -1
1532257596147493 1 27 2 -2 -2 -7 -1 1
1532257596244233 0 -4 -7 1 0 -3 -1 0
1532257596267172 0 16 3 -1 -4 -17 -5 -2
1532257596290111 -3 -44 -31 -3 -1 1 -2 1
1532257596305071 -1 15 15 -1 -2 -2 -2 -1
1532257596349951 -1 -14 1 0 1 -10 -1 -2
1532257596364910 -2 -7 -5 1 2 6 -2 2
1532257596387848 1 12 19 1 -1 1 -2 -1
1532257596424751 2 5 14 3 0 1 -1 -1
1532257596455668 2 7 -10 -2 0 4 1 1
1532257596530468 0 -13 -1 2 0 -3 -2 -1
1532257596544431 1 2 1 -1 -7 -60 -4 -1
1532257596567369 0 -39 -32 0 2 20 3 0
1532257596590308 1 24 10 0 1 8 1 -1
1532257596604288 1 12 9 2 0 3 -2 -1
1532257596627208 2 2 2 -1 1 2 0 2
1532257596650148 0 0 1 -2 -2 -3 -1 0
1532257596672089 -2 15 17 -2 -4 -7 -4 -3
1532257596724948 0 8 6 1 -2 2 -1 -1
1532257596735930 -2 -1 -2 0 -2 2 -1 1
1532257596747886 2 0 -2 -4 -2 -2 -1 0
1532257596771830 -2 -20 -13 0 1 -2 0 -1
1532257596800745 -3 8 8 -4 -6 -10 -3 -4
1532257596829668 -2 2 6 -2 2 5 2 -1
1532257596853603 -4 4 0 0 -3 -9 -1 -6
1532257596890505 -2 7 5 -1 2 5 0 0
1532257596913443 1 16 8 -1 2 7 2 1
1532257596958324 -2 -18 -20 -6 -5 -2 -1 0
1532257596987246 -2 11 1 -3 -2 -2 2 0
1532257597033123 -1 15 26 0 -3 16 -4 3
1532257597047087 5 -30 2 5 1 -1 1 -2
1532257597070025 -2 -5 -7 1 2 17 2 1
1532257597092964 -3 -3 -2 -1 3 3 -1 -2
1532257597107923 -3 -4 1 0 2 10 2 -1
1532257597129865 1 -2 0 0 -1 -11 -1 -3
1532257597152804 0 -5 -6 -2 -2 -6 0 0
1532257597167764 0 -3 -1 1 0 -6 0 1
1532257597213641 -7 -13 -16 0 1 3 -1 -4
1532257597227604 1 -14 -3 -2 -2 -5 -4 -1
1532257597249545 -2 -2 -6 -2 -1 -24 0 0
1532257597280463 0 4 13 2 -1 9 2 0
1532257597310383 -2 0 -6 -1 -2 0 1 0
1532257597370222 1 14 -15 0 3 -1 0 -2
1532257597407123 7 30 75 4 1 6 -1 2
1532257597453001 -3 -6 20 -5 -25 -102 -21 11
1532257597474942 4 -82 -47 -6 -24 -91 -21 -3
1532257597497881 -2 -2 8 -3 13 109 -4 -6
1532257597575673 -5 -6 100 12 11 12 3 -1
1532257597633518 -1 -1 -42 1 -2 6 0 2
1532257597655460 1 -16 -48 -4 -1 4 1 0
1532257597693358 -1 14 18 -6 -8 -8 -1 -1
1532257597715313 1 5 19 22 22 10 2 -1
1532257597753198 3 3 15 -11 0 -2 0 -1
1532257597776137 1 -9 5 -9 -1 3 2 0
1532257597820019 -1 -6 3 -4 -1 2 -1 -1
1532257597857918 -1 1 -10 3 6 1 3 0
1532257597895817 3 8 3 7 1 -2 -2 -1
1532257597918770 -1 -13 -47 -1 -2 3 -1 0
1532257597948675 1 -2 4 -5 2 0 3 -1
1532257597978596 -1 4 1 -3 -7 -5 -3 -2
1532257598038435 3 -1 -3 -3 1 -2 -2 -1
1532257598062372 1 0 -15 16 3 -1 0 0
1532257598089299 -3 1 -33 4 -3 -3 -2 -2
1532257598121214 1 -12 -15 -4 -2 0 0 -1
1532257598174072 2 9 0 0 1 -14 -1 0
1532257598196014 -2 -11 2 -15 -4 -15 -3 -2
1532257598209990 1 0 -65 5 5 11 -4 -1
1532257598232915 0 0 18 -8 -9 -8 -2 -2
1532257598293753 -1 3 4 -2 0 20 4 0
1532257598383513 1 12 17 -3 0 -9 -3 1
1532257598458312 -3 0 2 0 0 -5 -5 -2
1532257598479257 -2 11 -18 -13 -3 -14 -13 2
1532257598532115 -10 3 31 2 0 -12 2 -2
1532257598541091 -6 -5 -5 -2 -3 25 6 0
1532257598615891 -12 12 15 -9 -3 -20 1 2
1532257598645811 6 -17 -22 3 -2 29 -17 -7
1532257598666755 28 -8 -5 16 5 -7 -4 3
1532257598735572 -33 6 1 1 2 2 4 -10
1532257598758510 6 -17 -5 11 2 17 6 21
1532257598780451 4 24 -18 -3 -4 -13 -11 -13
1532257598797415 -24 4 10 2 1 2 2 -10
1532257598820359 5 -14 -24 -2 1 4 3 -1
1532257598847272 1 -21 -33 -6 -2 4 -10 -32
1532257598857250 0 -4 -18 -7 -3 0 2 4
1532257598880184 8 6 40 -1 -2 -2 0 4
1532257598901129 -6 -30 -65 3 1 -1 -2 -3
1532257598925065 -3 -85 -15 2 2 3 4 15
1532257598959971 -9 4 9 1 2 -13 4 25
1532257598983907 -12 10 16 -3 13 0 -7 7
1532257598999865 -3 -51 29 -3 -10 4 8 1
1532257599020809 -13 3 -7 -2 -2 -2 -1 6
1532257599058707 6 22 50 0 -6 -2 3 -15
1532257599071672 20 96 -19 -5 -6 -3 1 25
1532257599095608 0 -80 -34 -12 -3 -4 -4 1
1532257599118547 2 -13 53 0 4 0 7 24
1532257599140489 24 95 56 2 -1 -4 -7 39
1532257599178387 8 -28 36 5 1 2 0 10
1532257599208307 -1 -5 -29 -2 -4 -1 -4 -17
1532257599245209 15 32 66 9 8 6 4 26
1532257599261166 5 21 -36 1 2 -1 1 -2
1532257599314034 -4 16 -8 -3 -4 -2 1 0
1532257599342963 -8 -14 -9 0 1 0 1 6
1532257599380845 -2 -14 -4 1 -3 1 2 5
1532257599402787 0 -21 -6 -5 3 0 -1 0
1532257599448664 1 5 26 9 -1 -2 0 2
1532257599491550 11 7 -1 19 6 1 1 4
