1532257276448072 2 13 29 3 1 1 0 -1
1532257276565766 2 6 0 -6 -2 0 1 -1
1532257276613638 0 1 -3 9 3 0 -1 1
1532257276624609 -2 4 35 -10 -7 -1 0 -3
1532257276663504 2 -9 -72 -8 -2 -3 -2 -3
1532257276715366 0 -6 10 -8 -5 -2 0 0
1532257276798144 1 4 16 5 -1 -3 -2 -1
1532257276819089 -3 5 17 2 2 0 0 -2
1532257276865963 -4 -10 -3 3 -6 -10 -6 -2
1532257276887945 5 22 12 6 -1 0 -8 2
1532257276962744 0 37 20 -2 -9 -8 -6 2
1532257276999645 -2 -2 -8 2 -2 -17 -1 -3
1532257277031596 7 -9 -5 7 6 33 17 18
1532257277119362 -7 -31 -26 -14 -2 12 10 6
1532257277165239 4 5 -24 7 -1 -5 -6 5
1532257277211116 0 13 23 -1 -3 8 -12 -29
1532257277249015 -2 -25 6 -7 11 13 8 4
1532257277443495 0 10 21 5 -3 -19 -5 -8
1532257277488375 0 1 16 4 14 20 1 0
1532257277809517 2 5 4 0 0 1 1 -2
1532257277894290 4 19 29 1 -2 20 3 -6
1532257277977070 -3 1 1 -1 -7 0 6 -13
1532257278164567 -10 6 7 2 -5 -14 -2 -7
1532257278192492 0 -4 -8 1 11 17 27 -2
1532257278229394 -2 -2 -1 -1 -4 -14 -3 -2
1532257278461772 -10 7 0 -1 -1 11 6 22
1532257278532583 -1 2 2 -1 8 3 0 -4
1532257278599404 -9 -22 -21 -6 -4 -9 -3 -1
1532257278777927 -2 6 -1 -3 4 1 -19 -4
1532257278794882 5 18 12 6 0 -6 -7 14
1532257278852727 2 -3 4 -4 3 14 -1 6
1532257278874677 -1 -7 -8 -2 -2 -13 10 3
1532257278912567 -6 -7 -11 -4 -5 -17 -2 7
1532257278957447 -6 -27 -7 -3 -9 -9 -1 -2
1532257279070145 3 6 6 6 -4 0 3 -3
1532257279152924 -5 13 -10 5 8 16 -11 -2
1532257279295543 3 13 9 0 -10 -32 -8 -1
1532257279370343 -1 3 -4 -5 -9 -5 0 0
1532257279415223 1 -3 2 -3 4 -3 -1 -3
1532257279430183 2 7 -1 -7 -8 -6 -2 -1
1532257279476060 -2 2 0 -8 -2 23 0 2
1532257279548865 -1 5 -5 3 -6 -14 -8 0
1532257279655579 4 7 3 3 4 1 5 3
1532257279692481 -1 -2 -2 -2 2 5 -2 -2
1532257279745340 -2 -3 7 -5 -5 1 3 1
1532257279804182 -1 5 16 0 0 1 6 4
1532257279858039 2 -2 -10 -7 -9 -3 -1 -1
1532257279887959 -2 -6 4 4 5 -9 -6 -11
1532257279917880 -8 -25 -3 0 3 2 -3 3
1532257279955777 -4 -9 -6 -3 -2 5 -34 -6
1532257279991681 6 -4 -2 -3 -4 -7 -79 3
1532257280038556 8 -15 4 3 1 12 50 3
1532257280075457 7 41 30 1 3 -5 19 3
1532257280153249 -17 -72 1 -4 -4 12 47 -16
1532257280159232 11 78 58 6 0 -9 -64 -19
1532257280181175 9 18 -8 3 4 17 24 7
1532257280300854 9 -37 -15 0 7 17 0 -5
1532257280351719 -10 33 13 1 -1 0 -8 -14
1532257280780571 -9 15 6 -1 0 5 -25 -14
1532257281033895 17 29 -3 -4 -2 -2 25 80
1532257281080769 11 29 12 4 2 -2 -7 -20
1532257281200448 -2 -14 -2 1 -5 -3 1 5
1532257281778902 5 13 3 -21 -7 -1 -2 1
1532257281822785 7 -34 27 -6 -3 0 -3 4
1532257281965404 11 24 42 10 8 26 11 1
1532257282003301 70 45 23 -8 -6 -16 -12 36
1532257282040217 82 62 -10 12 9 5 7 -3
1532257282071121 -66 6 19 -1 -2 9 57 8
1532257282136945 -113 12 -34 -15 -4 -6 2 -38
1532257282196785 44 3 -1 17 4 -6 -4 9
1532257282273579 79 10 -3 0 0 -2 6 13
1532257282363339 -16 12 -7 -6 -5 -12 -1 -14
1532257282483019 9 -16 -29 -12 -3 1 13 -4
1532257282639600 5 -5 -21 8 1 1 8 3
1532257282783223 -5 -2 -3 0 -1 8 -2 -2
1532257282829101 -9 19 2 -2 -1 -4 7 -21
1532257282878967 -42 -26 -9 -7 -5 9 -81 -71
1532257282932823 -2 13 4 5 7 -9 52 0
1532257282985681 8 -8 12 -9 -6 2 -1 14
1532257283023580 -18 18 2 -2 1 3 -20 -13
1532257283045522 0 -7 18 2 2 -2 -9 -4
1532257283188150 -18 14 -11 -1 -2 27 27 -6
1532257283212087 -31 49 13 -1 -1 -6 6 -3
1532257283247980 -25 -9 3 -2 -1 -5 -5 -11
1532257283307820 29 -1 -1 -3 -4 1 -41 -13
1532257283428497 -12 21 4 -2 4 -6 -10 10
1532257283689838 0 -9 7 2 0 -4 -16 -1
1532257283861380 -2 -5 11 -5 -1 2 -4 -2
1532257283922217 4 -2 -1 -1 0 0 -2 0
1532257283982057 3 12 8 -1 1 -3 -4 -3
1532257284087775 3 24 17 1 -3 -2 0 0
1532257284148619 3 23 9 -7 1 0 -1 0
1532257284208451 5 -16 -30 -5 -2 -1 -1 -2
1532257284350078 -4 21 -5 2 2 2 0 -2
1532257284424880 19 -3 -24 0 2 3 4 18

1532257284486714 0 7 46 6 1 -4 2 -9
1532257284718024 -7 -12 -18 -6 -3 -1 0 -7
1532257284755906 0 10 9 2 2 1 -2 -3
1532257284806770 -4 7 -4 -4 -2 -1 -2 -7
1532257284867608 -6 0 -6 -2 -2 -1 0 4
1532257285130904 -1 -4 2 -2 -4 -2 -3 -3
1532257285190744 -1 -15 -1 2 0 0 -1 4
1532257285527881 -3 12 19 1 2 0 -2 -5
1532257285655572 -16 8 -13 -8 -9 0 10 -40
1532257285707434 -2 -13 56 5 2 -7 0 -4
1532257285872991 -2 5 -5 -3 0 -1 -2 0
1532257285933828 3 -2 -7 2 -4 -4 -3 -4
1532257285992671 -26 -2 2 4 -2 -2 1 -4
1532257286067471 1 16 -5 -7 -6 -2 -2 -1
1532257286203108 -5 -16 -30 -4 -1 -4 -8 -4
1532257286269930 13 10 1 -1 0 25 5 21
1532257286315807 0 -30 -25 -6 2 16 -7 12
1532257286352708 -1 16 -2 -2 2 -8 1 -4
1532257286389610 -3 -6 4 7 -1 -15 -1 -14
1532257286442468 -6 -1 69 -9 -3 -8 2 -6
1532257286495327 -4 -29 -34 -19 0 13 3 14
1532257286533225 4 1 22 -6 -4 -16 -7 63
1532257286578106 -11 -16 9 1 -2 -1 8 -18
1532257286616005 -2 26 -6 -7 -11 -15 -12 -19
1532257286688809 1 1 -28 4 1 -3 -1 -2
1532257286795524 -7 -6 -10 -3 -3 -3 -6 -36
1532257286842399 -1 -43 -54 -6 10 1 1 28
1532257286923183 -8 8 -97 -3 8 11 12 -4
1532257287019924 -8 -21 -71 -5 -4 -3 -3 -19
1532257287057823 5 17 42 8 4 14 -15 28
1532257287094724 6 10 63 0 3 14 -3 3
1532257287252303 1 -3 -12 1 5 1 14 -1
1532257287417860 3 -7 44 1 -3 -7 -2 -4
1532257287522580 5 11 28 1 0 -6 6 9
1532257287800843 -1 -23 -3 2 2 -5 1 -17
1532257287861673 6 16 7 0 3 -9 4 6
1532257287905556 -7 5 6 -4 -1 0 -5 -41
1532257287928494 1 -6 2 -8 -7 -10 2 35
1532257287995316 -1 10 -8 1 -1 1 2 10
1532257288018269 4 11 -5 2 3 -7 -13 8
1532257288063135 2 33 21 6 3 -3 -5 -19
1532257288079091 8 14 2 -4 -6 -24 -3 77
1532257288137934 -5 1 -7 0 -3 -7 5 -5
1532257288168851 -9 -7 -13 -4 -10 -17 0 0
1532257288220713 6 27 0 1 3 4 -6 -7
1532257288243655 2 2 -2 5 6 17 9 6
1532257288280561 3 21 5 2 -1 9 3 6
1532257288400233 -5 -18 -16 1 6 7 0 -3
1532257288520910 3 -24 -37 -3 1 10 1 1
1532257288617651 3 17 22 -2 -6 -4 -5 0
1532257288648568 1 5 -4 3 1 9 2 3
1532257288775234 1 6 -13 1 -2 2 0 5
1532257288834073 -3 -11 0 0 1 0 -2 1
1532257288925828 -3 5 -12 2 -4 -3 -18 -3
1532257288955747 4 -30 -16 -2 4 3 1 1
1532257288985676 4 7 -1 -5 2 6 41 7
1532257289031545 -6 7 -18 -3 -4 1 -99 -12
1532257289074430 -4 37 8 -1 -4 3 49 12
1532257289120308 -26 94 -4 1 3 -1 -26 -11
1532257289180149 1 -60 -8 -1 -2 5 10 -13
1532257289322766 9 -7 -7 -5 -5 5 -2 12
1532257289337726 4 16 2 3 -2 1 -33 -12
1532257289383603 -13 1 -7 -12 -5 0 23 -23
1532257289450424 -25 -55 -13 5 0 -7 7 -4
1532257289525224 -16 7 -15 -17 -8 -17 -44 -7
1532257289645902 -8 5 3 -1 -1 3 45 -15
1532257289690782 6 -21 -15 -9 -6 -5 47 6
1532257290187466 99 -19 35 6 12 22 14 24
1532257290425816 0 -11 -25 -8 -5 -6 -28 -28
1532257290559459 3 25 13 -2 -3 -4 -11 0
1532257290605336 -9 -7 -49 1 2 -4 21 4
1532257290664179 -39 -64 0 2 2 12 -7 9
1532257290891571 14 -19 -62 -2 0 0 4 7
1532257290979336 23 7 -46 -3 -1 0 5 1
1532257291039176 -3 -42 4 -1 -7 -43 -12 5
1532257291070093 14 30 -5 -5 -4 13 9 -56
1532257291204735 -25 -12 -4 -3 -5 -2 -58 -30
1532257291264573 -12 9 -21 -11 3 -1 2 -6
1532257291303470 29 5 114 -5 -1 -1 5 -3
1532257291624611 -3 -5 -4 -5 -4 -11 -41 -13
1532257291790168 -7 -14 3 0 -1 -1 -4 -6
1532257291901877 4 -19 24 4 -2 -1 -1 1
1532257292023544 -10 -36 -16 -7 -5 -1 -1 0
1532257292090365 -1 45 6 7 4 -1 -2 -1
1532257292127267 -11 -5 -7 1 3 1 1 -4
1532257292292824 2 -19 55 56 15 5 3 -4
1532257292367624 -12 13 -8 -8 -5 -3 -1 -5
1532257292427464 -8 -67 3 2 1 1 0 0
1532257292533181 14 8 13 1 4 23 13 -29

1532257292704723 1 38 -12 -28 -15 -13 -2 -2
1532257292787500 5 -25 -29 6 1 9 2 15
1532257292870329 1 -5 1 -2 -1 0 -3 -3
1532257292930169 -1 -15 -11 -6 0 0 0 -2
1532257293012538 0 -19 -5 -4 0 -3 -1 0
1532257293080357 -4 8 8 0 -3 -24 0 -1
1532257293088335 -3 -6 -12 0 0 -4 -2 -3
1532257293133215 -4 -28 -11 4 1 3 -1 -2
1532257293201042 7 -13 -1 2 0 -11 -1 -3
1532257293252895 -2 11 0 -5 -4 -4 0 -2
1532257293266858 6 -6 -1 -2 -1 -3 -2 1
1532257293326697 -2 -26 -28 -2 -2 -1 -2 -1
1532257293418459 -1 6 17 0 -2 0 -2 -2
1532257293461345 2 -12 3 -3 -1 -6 -1 -1
1532257293487275 5 -1 9 0 -1 -3 -2 2
1532257293530186 2 -6 8 -1 -1 -4 -1 1
1532257293567090 2 -7 -1 2 1 -7 -1 1
1532257293626927 -7 -3 26 2 1 4 0 -2
1532257293686768 13 1 -117 -5 -4 -6 -2 2
1532257293695744 1 -11 1 -1 -2 -2 0 -1
1532257293732645 6 -71 -28 -8 0 -3 1 -2
1532257293806447 -1 -1 -14 -2 -4 -6 -2 -7
1532257293866287 -2 -2 2 -1 -1 1 12 4
1532257294069762 -2 -17 -4 5 -1 2 -2 3
1532257294153538 -5 -5 3 -7 -7 -2 -3 -3
1532257294189442 5 15 4 4 -1 2 0 2
1532257294219362 -4 21 38 -3 -3 -1 -2 -5
1532257294273218 -3 -34 -15 12 5 1 2 0
1532257294295158 -1 11 91 -5 1 0 1 -1
1532257294392898 4 -37 20 11 7 1 4 4
1532257294452738 3 0 25 7 -2 -11 -14 -8
1532257294512578 -7 41 72 -9 -4 -1 -2 -28
1532257294656193 4 16 -62 -4 -6 -13 -8 -18
1532257294729002 -4 -20 -5 -7 -3 -1 8 9
1532257294805793 -11 -6 -89 -7 -3 -3 -3 -30
1532257294851671 -1 -17 16 -6 0 -3 -3 -1
1532257294909516 6 -25 -116 -7 -8 -5 4 20
1532257294955393 -6 8 90 0 -3 -1 -1 -46
1532257294969356 6 14 3 15 -3 -8 -12 2
1532257295068092 -3 -36 29 -10 7 7 11 24
1532257295135911 3 -16 -68 -1 3 -1 0 1
1532257295180790 -6 -9 20 -2 10 10 -1 -47
1532257295225670 3 7 27 0 2 -3 -6 -3
1532257295255590 -12 9 8 2 -6 -4 -8 6
1532257295300470 -9 -17 -48 -8 -4 16 0 -38
1532257295359313 -2 19 36 -1 -1 7 -2 -4
1532257295458049 14 -26 -38 -1 -3 5 2 -8
1532257295531852 19 11 49 7 4 -16 -17 49
1532257295707382 -17 5 18 -6 -3 -6 -3 -36
1532257295826070 9 10 43 1 0 -2 -2 27
1532257295900865 -2 3 72 4 3 0 2 -21
1532257295967687 -16 -8 -55 -6 -4 -8 3 -37
1532257296020545 1 5 -43 -6 -2 3 22 -8
1532257296049468 -1 -14 42 -5 -4 -6 3 -8
1532257296088364 29 24 -12 8 -6 6 1 15
1532257296143232 1 -16 22 11 18 2 10 -7
1532257296185107 5 0 62 4 7 -2 3 -23
1532257296224998 -5 -15 5 -2 -6 13 5 27
1532257296245942 8 17 69 -5 -9 7 2 -3
1532257296267885 -3 -10 -49 -4 6 -5 2 -2
1532257296320742 -3 12 44 -4 -2 1 9 7
1532257296380582 2 14 -24 -3 -2 3 -4 0
1532257296440422 -4 -8 3 -5 -12 -5 -2 -6
1532257296455382 -1 -23 14 7 15 3 2 2
1532257296620939 2 -4 -6 -1 -2 1 -3 -4
1532257296642881 -1 -2 9 0 -1 -1 -1 -1
1532257296719675 -1 7 12 -5 -3 -1 1 6
1532257296747600 1 4 15 2 8 0 4 9
1532257296785516 2 35 39 12 2 -9 2 2
1532257296823398 3 -2 79 -5 0 -2 -7 -2
1532257296860299 -2 -35 -6 3 0 1 8 -7
1532257296912160 -12 80 1 -11 -21 -55 21 -84
1532257296966016 2 -19 5 4 4 7 -62 -14
1532257297016880 12 92 18 8 9 27 70 37
1532257297062758 0 26 0 -5 -5 -7 -41 -3
1532257297123603 4 33 12 4 1 -6 -6 -4
1532257297183436 21 10 24 1 1 7 23 22
1532257297219340 14 24 -3 -5 -5 3 11 -13
1532257297266213 -8 -6 10 -4 -2 -2 -31 -11
1532257297296134 -24 127 -14 -11 -6 -3 0 2
1532257297378913 0 -9 8 -3 -5 -4 23 2
1532257297422796 -27 21 3 0 0 -3 -45 -28
1532257297436758 4 25 -3 -4 -1 9 82 29
1532257297558432 -20 16 -11 -3 0 -1 -58 8
1532257297625254 -5 39 2 -3 -2 -2 -15 -21
1532257297736955 -3 -13 -16 -4 -1 -1 5 -11
1532257297789814 -1 -40 1 -4 -2 -1 -11 3
1532257297887553 15 -3 -13 0 3 -1 3 16
1532257297903510 -32 1 9 0 -1 4 3 -11
1532257297947393 7 -4 -14 -5 -7 -12 1 -33
1532257298008229 -70 -6 -76 -4 -1 -12 9 -9
1532257298059094 45 7 0 -3 -2 -27 -4 72
1532257298127910 37 2 0 24 5 -1 -33 -4
1532257298195728 -5 -6 -53 -18 -5 1 -1 6
1532257298262550 0 4 -90 0 2 -9 16 -10
1532257298353307 32 6 19 -2 -2 8 27 6
1532257298374251 13 -5 -6 7 3 5 0 8
1532257298413147 5 7 29 8 4 5 1 2
1532257298436085 -14 7 -4 2 1 6 11 16
1532257298517880 26 14 7 -1 0 3 7 -3
1532257298584689 -1 -17 -24 33 9 -3 16 -13
1532257298599648 35 -9 49 -9 0 3 21 11
1532257298690405 -26 17 -57 -7 1 -2 -6 -2
1532257298705365 -5 -10 -61 2 3 -2 10 -8
1532257298758226 -14 -42 -15 -4 -7 -4 1 -5
1532257298788144 -5 12 22 -6 -4 -4 -3 -1
1532257298825046 41 9 28 3 1 -1 3 12
1532257298870923 42 -39 1 -3 -2 -1 7 -2
1532257298906827 -43 -3 5 2 1 8 -5 -53
1532257299020522 -25 -12 6 -1 -4 -3 -50 5
1532257299102304 3 -20 -21 82 18 5 26 8
1532257299208021 2 -1 74 11 6 -22 0 4
1532257299245919 42 -47 -15 -6 -5 17 -1 9
1532257299327701 -11 -8 50 9 4 0 -10 -42
1532257299492262 23 12 -9 13 6 -3 -27 28
1532257299748575 -3 -27 -12 -7 -5 -3 -4 -2
1532257299964997 -3 -12 -1 -14 -2 -1 -2 -1
1532257300138533 -1 7 5 7 1 1 -2 -2
1532257300198372 -1 0 -5 -7 -5 -4 -1 -1
1532257300258213 -3 7 -6 0 -2 0 0 0
1532257300303094 5 1 -3 -6 -5 -4 -1 -1
1532257300467653 14 -13 3 7 18 7 24 17

1532257300573371 10 -24 21 5 14 8 3 8
1532257300601296 0 5 -11 1 -3 5 -4 13
1532257300730949 9 24 15 1 -3 0 3 10
1532257300767850 -1 -2 -7 -5 -5 -1 -5 -6
1532257300827106 -2 3 5 -1 0 0 0 1
1532257300851042 3 11 0 3 2 -2 -2 -2
1532257300956760 2 -4 -11 1 -1 0 -1 0
1532257300992664 3 -8 1 0 -4 -2 -2 0
1532257301014605 10 -5 -2 0 0 0 -1 0
1532257301053500 6 -6 14 -2 -1 0 -1 0
1532257301090402 1 10 -1 0 -2 -1 1 1
1532257301113341 -2 -7 -6 -2 0 -1 -1 -1
1532257301134284 1 10 7 1 1 -1 -2 -4
1532257301160216 -1 -22 -20 -2 1 0 0 3
1532257301218060 -4 -5 0 0 0 0 -1 -3
1532257301248978 -3 21 -1 1 1 2 1 -1
1532257301270919 1 -14 -3 1 1 4 -1 1
1532257301292861 2 0 1 1 -1 1 -1 -1
1532257301352701 -6 0 5 -4 -4 -1 -1 -1
1532257301375640 -3 -20 -18 4 1 0 1 3
1532257301457444 6 7 25 9 6 3 2 2
1532257301534169 4 -5 -16 -6 -2 3 2 1
1532257301636895 8 4 -27 0 -6 -44 1 14
1532257301749593 11 31 -5 -5 1 30 22 20
1532257301764554 2 -1 -7 -3 1 14 15 16
1532257301803449 -3 -15 7 1 1 4 4 4
1532257301855312 -2 0 -2 -16 -10 -14 -8 -2
1532257301923130 0 -8 5 -9 -4 2 1 -1
1532257301967044 -2 -8 22 9 3 3 2 1
1532257301988974 0 2 -2 -13 -5 -1 0 -2
1532257302020896 0 -18 -1 -8 -8 -2 1 1
1532257302072749 5 -8 3 7 8 -7 4 1
1532257302095701 3 -8 -11 -8 -7 -4 0 3
1532257302133598 1 3 -4 -4 -9 -6 72 7
1532257302155528 4 7 18 5 -3 -12 -57 0
1532257302193427 7 -3 -1 9 5 0 13 4
1532257302215369 -4 2 12 -8 -4 -6 -17 -3
1532257302289170 -1 22 31 8 -3 -15 -15 -8
1532257302349011 -11 -10 -11 -1 0 -23 -13 -10
1532257302395885 -3 46 57 2 -6 -14 2 6
1532257302408851 6 -29 -13 -3 9 -11 -6 12
1532257302500606 -3 -9 -8 8 -3 -17 -3 -21
1532257302559448 5 19 44 -9 -8 -10 2 8
1532257302635246 -4 -2 13 7 -5 19 -5 -17
1532257302731986 -2 -38 15 -6 0 -1 -2 -6
1532257302785844 8 -5 38 -2 0 -3 4 1
1532257302852664 3 -7 2 0 -1 -20 -1 4
1532257302927464 2 12 21 2 -2 -2 1 3
1532257303018222 6 -21 30 6 14 8 4 -1
1532257303073074 3 4 26 -1 3 6 0 -6
1532257303197742 1 0 -70 -3 1 6 -3 -12
1532257303220681 6 -29 -40 -2 1 6 4 34
1532257303271543 5 8 16 -3 -6 -3 0 6
1532257303295480 -2 0 -55 -3 -3 -2 3 3
1532257303331384 1 7 3 1 -3 -3 -4 -2
1532257303377261 -2 1 0 0 -1 -2 -1 -3
1532257303409184 -1 4 3 1 2 0 1 -2
1532257303482979 -1 5 -7 -2 -4 -1 0 -1
1532257303528856 2 -7 -3 -2 0 -3 1 1
1532257303580717 -2 -9 2 -1 0 0 -2 2
1532257303700397 -18 -15 -12 -2 -1 1 6 -9
1532257303708375 -11 -18 -25 -7 -3 1 -3 -19
1532257303738296 -1 0 0 -1 -4 -3 -3 -30
1532257303800131 3 3 9 -2 -2 3 3 -35
1532257303836034 -4 2 -4 -1 3 0 1 -20
1532257303859970 5 3 7 6 4 0 4 6
1532257303941751 -7 5 6 2 4 3 1 -5
1532257303965688 -5 -2 1 5 6 0 1 -25
1532257304016551 -5 -8 2 -5 -7 -5 -2 -4
1532257304060434 2 1 8 2 -13 -20 -8 -5
1532257304074397 1 -6 -6 4 7 2 3 9
1532257304083373 -7 -6 1 -4 -7 -4 -5 -19
1532257304120274 -4 -11 -18 -1 1 -2 5 39
1532257304339687 -1 -3 -7 1 5 2 0 -5
1532257304354648 1 2 -1 2 -1 2 0 -3
1532257304450392 -4 -24 -11 -5 -3 1 -1 -3
1532257304503251 1 -6 -2 2 1 0 -1 -1
1532257304540151 -14 -49 -7 -1 0 0 -14 -2
1532257304554115 -27 42 -6 -10 -5 1 -8 -2
1532257304599991 -1 -2 4 -2 -3 -13 2 -15
1532257304645869 18 -2 7 4 2 4 81 7
1532257304682770 61 9 -2 -1 -2 -7 -54 -14
1532257304696733 -26 43 -5 -5 -10 -9 -60 -8
1532257304803447 -6 23 -6 -3 0 3 33 39
1532257304841346 -32 -20 4 5 0 -13 20 -24
1532257304885228 10 27 0 1 2 -8 -23 16
1532257304922131 4 -22 -7 -7 -11 -31 -74 -26
1532257304960028 3 33 7 1 -1 6 14 34
1532257305071730 1 -4 0 3 -1 1 -32 -15
1532257305171464 -3 14 -10 0 -3 -5 -18 3
1532257305284162 1 27 19 4 1 5 21 -19
1532257305305106 17 36 9 0 -1 -3 -29 6
1532257305372924 -49 -62 -11 -3 0 1 29 -13
1532257305395863 8 68 0 -1 -1 -2 -27 23
1532257305462685 0 -76 -3 3 3 1 -16 16
1532257305545463 6 2 2 2 1 0 -5 -7
1532257305712018 1 9 16 2 0 1 -2 -1
1532257305861618 9 -17 42 -1 -8 3 -4 5
1532257305945398 21 -3 25 1 1 -12 -12 1
1532257305972322 26 -16 -9 -4 -4 2 50 18
1532257306025212 -19 -3 12 -9 -3 -9 -25 -14
1532257306130929 13 7 81 -10 -5 -2 -4 7
1532257306259586 9 -18 -34 -3 4 2 8 6
1532257306327403 -68 -53 12 2 6 3 -83 -4
1532257306408189 15 0 -5 -37 -10 -3 5 11
1532257306565767 8 -6 -14 -19 1 1 9 4
1532257307081388 9 -7 -4 -3 -4 2 18 -8
1532257307368626 31 -1 -15 0 0 6 97 2
1532257307690758 2 -10 2 2 1 2 1 0
1532257307764561 -1 14 -17 -3 -2 -1 -1 -2
1532257307810438 -6 2 10 4 2 0 -1 -2
1532257307893216 -2 -11 -21 11 4 -3 -1 1
1532257307931115 6 -20 23 4 3 0 0 3
1532257307967019 -1 30 0 58 10 0 -1 -2
1532257308050795 -5 -1 0 18 5 1 -3 -2
1532257308116619 1 -43 -42 3 0 -2 -5 14
1532257308133574 14 33 59 3 -12 -13 0 6

1532257308313094 -1 -9 -34 -6 0 1 0 -5
1532257308386897 -2 -2 -1 -2 -3 -2 -1 4
1532257308431792 -1 -2 -4 -2 -1 -1 -4 -1
1532257308515569 -1 -1 4 -2 -1 1 -1 -2
1532257308532116 1 9 9 15 0 -3 0 -1
1532257308652793 -2 -1 -7 -3 -3 -1 -1 -2
1532257308717620 -5 -11 -2 -1 -1 0 -1 -2
1532257308815359 6 18 3 -1 -2 -1 0 -1
1532257308860239 0 11 6 0 0 -2 -1 0
1532257308905119 0 -2 -2 -2 -2 1 1 1
1532257308972938 -1 11 -4 -4 -3 0 0 0
1532257309032778 -3 -3 -8 1 -1 -1 -1 -1
1532257309138495 -1 -20 1 -4 0 1 2 0
1532257309175396 -3 -1 -1 1 -1 -2 0 -1
1532257309213295 -8 -18 -18 -3 0 -1 -1 -3
1532257309311033 1 5 11 9 3 0 0 1
1532257309355913 -3 -16 -10 5 0 -1 0 1
1532257309452655 5 6 14 -1 -1 0 -1 -1
1532257309504515 2 7 -4 -5 -2 -1 0 0
1532257309522468 4 3 1 0 2 -1 -1 -2
1532257309610233 1 -8 -8 3 0 -1 -1 -1
1532257309633172 -9 -33 -2 -5 0 -1 0 -3
1532257309656111 -1 -1 -6 -1 -2 1 -3 -1
1532257309677054 2 12 16 10 0 1 -1 -1
1532257309728916 0 23 -2 -14 -6 -2 -2 -1
1532257309752852 -4 -30 -59 -4 -6 -3 -3 -2
1532257309789752 2 3 -1 -8 -5 -2 -1 -2
1532257309859566 -1 -10 -8 -1 -1 -1 -2 -1
1532257309864553 1 -2 -18 -3 -2 -1 3 22
1532257309896468 -6 -3 4 -7 -27 -98 -21 -6
1532257309955310 4 -31 -14 -2 -2 -12 2 5
1532257309978248 7 16 -79 3 -3 -18 -4 4
1532257310075989 1 0 1 12 -1 -5 0 -2
1532257310135828 -4 -6 1 9 1 -3 -33 -4
1532257310157769 -14 5 -5 5 6 0 8 -3
1532257310218607 0 -22 -4 -4 1 0 7 -1
1532257310239550 -3 9 -2 -20 -8 -1 -4 -2
1532257310257502 -4 5 -18 4 -2 0 -1 -1
1532257310292409 3 5 17 8 0 0 1 2
1532257310315348 -1 -3 -34 -5 6 4 2 -2
1532257310375188 -5 -9 -10 0 -5 -2 -5 -9
1532257310398126 2 48 4 -5 0 6 6 0
1532257310436025 -5 -28 7 0 4 20 30 13
1532257310457966 -4 12 -2 4 1 2 -3 0
1532257310495865 3 11 7 -1 4 -6 2 1
1532257310540744 -5 -29 22 3 0 -14 -18 -20
1532257310651448 -5 -19 -13 -8 -1 -2 -1 -26
1532257310660425 3 16 27 -8 4 -8 -1 7
1532257310720274 0 6 6 5 8 11 5 38
1532257310831966 -1 -3 -3 -2 1 -4 0 1
1532257310929704 -6 2 -16 -3 -11 -7 -5 -30
1532257311005502 -3 -45 -66 27 19 12 3 -4
1532257311058362 4 27 33 1 0 -2 6 -23
1532257311215939 -1 -3 -32 -4 3 -1 8 8
1532257311343608 5 9 27 -3 -2 0 5 26
1532257311410419 1 -1 -36 0 -7 -3 -5 -2
1532257311448318 5 0 -7 -6 0 -1 -4 17
1532257311508157 0 -5 -8 -5 -2 1 -1 3
1532257311560019 4 -1 17 0 -2 -1 -2 -2
1532257311770459 5 4 0 2 0 2 5 6
1532257311883155 4 10 15 3 2 -1 2 -11
1532257311942995 -4 -4 -10 -3 -1 -3 0 -15
1532257311986878 -4 -12 -2 -1 -4 -2 -1 -4
1532257312039737 2 1 -3 -2 -12 2 1 9
1532257312069657 2 6 3 -4 0 -1 1 2
1532257312123512 3 0 1 1 2 16 5 12
1532257312159416 1 2 4 4 10 -3 3 2
1532257312197315 3 -4 6 2 -8 5 1 -4
1532257312303037 -2 -6 1 -3 -2 14 -1 -2
1532257312324974 -1 2 1 -2 -3 0 1 1
1532257312370851 -1 -5 -3 -5 -5 -3 -1 0
1532257312399774 -3 -5 -2 -4 -6 0 0 -1
1532257312504494 0 3 11 -3 2 0 0 -3
1532257312551368 4 5 -15 1 -3 0 0 4
1532257312619187 0 -12 -8 -2 1 3 0 2
1532257312663070 -2 -6 -2 -2 -2 -3 -1 -3
1532257312722909 0 17 0 -4 -3 -6 -17 -2
1532257312796712 2 -26 -2 0 6 9 56 7
1532257312843587 -1 -5 -2 0 3 -4 -34 4
1532257312963266 -10 -76 4 2 1 -8 -13 11
1532257312985208 -18 49 12 3 0 8 59 26
1532257313046045 7 -4 -4 4 1 4 67 4
1532257313082947 1 23 13 8 4 11 65 2
1532257313111869 10 11 8 8 7 3 -4 -14
1532257313134808 -10 -12 -7 -8 -7 -7 2 8
1532257313225565 22 41 7 3 2 -5 -16 8
1532257313429021 -8 -15 -4 2 3 3 17 -5
1532257313489859 1 2 8 1 2 2 1 -54
1532257313539725 2 35 -16 -9 -3 1 4 8
1532257313714259 -1 53 5 0 -1 4 17 -9
1532257313774098 -2 0 3 3 -2 -2 -36 -2
1532257314172035 -4 3 18 -8 0 1 0 -7
1532257314350557 73 22 -21 -9 -3 -9 -16 -19
1532257314387458 -23 27 36 0 5 12 -3 -2
1532257314641778 -2 15 -1 -1 -5 -39 -18 15
1532257314770434 5 -22 -23 26 20 7 7 26
1532257314905074 -13 12 36 12 1 1 -2 -3
1532257314928013 2 -10 -99 -22 -6 -3 1 3
1532257314971895 -17 9 18 -4 -3 2 -2 -2
1532257315070632 23 1 -7 2 2 -12 6 24
1532257315099554 -30 -9 6 1 -2 -15 -15 42
1532257315228210 -1 -19 -15 7 -1 2 17 1
1532257315273090 15 -11 -34 -19 -1 0 7 12
1532257315468569 3 12 30 8 1 -3 -1 26
1532257315610189 68 -90 -5 1 1 2 16 54
1532257315692967 56 -4 12 -19 -4 -3 32 -3
1532257315752807 7 52 21 -9 -5 -1 17 -8
1532257315812648 -1 -15 -24 -2 -2 -3 -4 -2
1532257315935319 1 16 18 9 1 -2 0 -2
1532257316053004 -2 -2 -11 -5 -2 -1 0 -2
1532257316066966 -4 -16 -17 -5 -1 -1 1 0
1532257316090903 -2 0 18 -4 3 0 0 0
1532257316172684 2 15 4 1 0 -1 -1 -2
1532257316187645 18 5 13 8 1 -4 -1 -3
1532257316240503 -28 68 38 11 6 3 5 3
1532257316494823 -6 -12 10 3 0 2 2 0
1532257316683319 -11 -24 5 0 1 -4 2 -2
1532257316743159 8 -21 -1 1 -4 -36 13 -35

1532257316915697 9 15 -4 -1 0 0 -1 5
1532257316975548 1 -14 17 -8 -4 -1 0 1
1532257317096214 2 -9 -3 -1 -3 -4 -2 0
1532257317237836 7 -26 -4 1 1 -1 -1 8
1532257317298674 -5 8 -2 1 0 -1 1 -35
1532257317349537 -2 20 11 4 2 0 -2 2
1532257317373474 5 8 -12 -2 -1 0 1 -7
1532257317469248 -8 -4 3 2 2 2 -5 -8
1532257317555019 -1 -9 -5 -2 0 -2 1 -2
1532257317695654 -1 -5 -2 -1 0 -1 -2 -8
1532257317816320 0 -11 -76 -4 -2 -2 1 -1
1532257317838262 0 2 8 2 4 -1 -2 -15
1532257317912064 12 9 18 -2 -3 -1 0 44
1532257317936007 -1 8 13 3 -1 -2 -1 -1
1532257317957941 7 -12 5 -4 -3 -2 -10 -18
1532257317995842 -11 32 17 5 5 7 25 -22
1532257318017784 -13 9 10 1 -5 -18 -23 20
1532257318055680 9 9 -22 -1 -1 1 2 12
1532257318114523 -2 0 23 11 0 -5 4 -6
1532257318174363 -5 -56 -49 -10 -4 -4 0 1
1532257318220242 0 -8 20 -15 -4 -4 0 0
1532257318235200 7 26 19 7 7 3 2 3
1532257318280080 0 8 7 1 5 -1 1 -1
1532257318316981 -2 -7 -1 -6 -3 0 -1 -1
1532257318339921 2 -10 16 7 2 2 0 0
1532257318407739 2 4 3 -6 -5 -1 0 -3
1532257318437658 -7 13 -8 22 7 -2 -3 -2
1532257318468582 1 1 -6 -20 -6 0 2 0
1532257318497498 3 25 -6 -15 -8 0 1 1
1532257318535410 2 -60 -3 -3 -2 3 -1 0
1532257318557338 -4 2 0 -1 3 -2 -5 -5
1532257318580277 13 86 31 7 -1 7 8 6
1532257318595237 5 -7 4 6 8 -2 -2 -2
1532257318647099 5 22 23 1 1 10 7 14
1532257318714930 10 12 1 -3 -5 12 15 60
1532257318834597 -9 64 -48 -6 -10 -14 -8 -20
1532257318904415 -6 0 -13 -6 -5 9 3 -7
1532257318970235 9 44 -31 -5 -8 -7 -7 -10
1532257319059995 -2 -30 24 -3 -3 7 -2 5
1532257319134794 5 69 102 8 7 8 6 10
1532257319203610 13 11 4 -2 -3 -16 0 28
1532257319249488 4 6 -59 -10 -2 5 -4 5
1532257319272426 1 -19 -57 -8 -1 -2 7 17
1532257319360191 9 24 65 4 2 8 5 13
1532257319397092 -4 8 20 -5 5 2 -2 -8
1532257319433994 3 67 18 -3 -5 0 -10 19
1532257319502810 17 30 23 -5 -6 -13 -2 5
1532257319540709 2 -18 -40 -5 -4 0 1 4
1532257319614511 -9 -46 -30 -13 -2 1 3 -2
1532257319705269 -4 -4 6 2 -1 0 -5 6
1532257319727211 -5 2 27 0 4 2 -6 -10
1532257319899754 3 10 -6 1 0 -1 -1 4
1532257319944628 -2 -10 -8 -2 -1 -3 -1 -6
1532257320007468 -9 3 -26 0 -1 1 3 -38
1532257320049349 1 32 4 1 2 8 1 1
1532257320097221 4 -3 -8 -3 -1 -4 4 -5
1532257320126144 -1 2 -12 -2 0 2 -6 16
1532257320163044 3 25 5 2 -1 5 5 21
1532257320177008 2 0 -6 6 5 3 2 -4
1532257320222885 2 -4 4 -4 -3 -1 -1 18
1532257320236847 0 0 2 -3 -5 2 2 10
1532257320258789 1 -4 -3 4 4 0 4 -7
1532257320297685 -6 -10 -5 -2 -3 -3 -2 -1
1532257320337578 6 0 8 3 -2 -3 4 19
1532257320374480 0 22 3 0 7 0 4 5
1532257320440303 -5 -13 -12 -4 8 3 -5 -9
1532257320463242 0 -6 5 5 3 -23 1 0
1532257320537044 -3 1 7 -5 -9 2 1 8
1532257320559984 -2 -16 21 -4 -4 15 -3 1
1532257320665701 -4 -15 -5 4 6 6 -2 -2
1532257320710580 -2 15 6 4 20 -1 0 0
1532257320838239 -4 -25 -5 1 -6 -6 6 -16
1532257320859183 -1 7 0 3 0 13 -3 0
1532257320883119 -1 5 1 0 8 17 0 10
1532257320927002 -4 -2 -11 -6 1 -12 2 5
1532257320935978 -4 -4 5 1 10 7 9 -28
1532257321039701 0 18 1 -1 -5 -2 1 -6
1532257321122479 -2 -20 -5 0 1 1 -3 2
1532257321168356 -3 -13 -6 7 12 4 2 -5
1532257321243156 3 -4 4 -3 -1 -1 20 3
1532257321301999 3 14 0 -3 -1 -11 -101 -7
1532257321347877 5 -51 3 5 4 -2 77 8
1532257321484510 22 -97 18 10 8 -10 -73 20
1532257321609178 -8 -43 0 2 -1 -2 -46 37
1532257321721876 -11 -67 -7 1 1 1 9 16
1532257321767770 16 18 14 5 3 6 45 52
1532257321812633 0 -19 1 -1 1 -4 -8 1
1532257321888431 2 -21 -4 -2 -1 -4 -64 -64
1532257322008111 -12 28 -12 -5 -4 -2 32 -7
1532257322069946 2 -31 -5 0 4 0 -41 -9
1532257322112831 -8 -12 -8 -2 -1 1 17 -9
1532257322210569 7 7 5 3 3 1 -27 -3
1532257322271409 -11 4 -12 -6 -2 -7 -25 -6
1532257322390089 2 0 -1 -2 -1 -2 4 3
1532257322435968 -1 47 5 1 -1 -1 3 1
1532257322608506 -1 -2 27 1 -1 -1 0 1
1532257322646404 8 35 28 1 5 4 -1 1
1532257322668345 -3 6 9 6 0 -1 0 0
1532257322691284 0 15 16 -5 0 -1 -1 -2
1532257322713225 8 -9 -18 0 -1 -1 0 10
1532257322736163 -41 -10 -22 -2 -2 -3 -9 -31
1532257322750132 10 -11 -13 1 -1 1 5 12
1532257322781044 -9 -3 -28 -2 4 1 -1 3
1532257322810964 -19 -1 1 1 -1 -2 -5 -8
1532257322893742 4 -22 -1 -3 -4 -3 2 14
1532257322990484 -8 8 6 -1 0 1 5 33
1532257323035375 28 -23 -10 -12 -1 4 -73 -20
1532257323050324 12 -12 -3 -9 -7 -2 20 0
1532257323080244 -23 33 12 0 0 -1 21 -9
1532257323118142 -16 -7 6 -18 -9 -4 2 -1
1532257323171001 2 -5 6 -6 0 -1 25 7
1532257323192942 7 0 7 -2 1 4 22 11
1532257323236825 3 -8 -4 -1 -1 -2 -12 -21
1532257323274723 3 9 -3 1 -1 -4 -3 67
1532257323335562 7 4 2 -1 1 5 -49 -29
1532257323351518 -12 -3 -1 -2 -3 6 -9 -34
1532257323410361 10 4 -3 1 0 0 -48 32
1532257323470201 42 -5 4 34 8 2 55 -3
1532257323493139 26 -23 -48 -22 -9 -3 14 -2
1532257323507102 -33 -12 -14 -11 -6 -3 -6 -9
1532257323531038 -13 -25 41 -7 0 1 -12 -12
1532257323566942 -22 0 -81 -14 -1 -1 -6 -12
1532257323590878 2 13 -55 3 -1 0 5 7
1532257323612820 -12 5 48 -4 -4 -4 -5 -4
1532257323672660 7 -7 5 2 -2 7 2 32
1532257323686622 2 2 -2 0 -1 -4 1 -2
1532257323725518 -2 4 2 1 1 -2 -1 -41
1532257323746462 -3 21 -3 0 0 -2 -10 -2
1532257323794338 -38 -5 1 4 5 9 19 69
1532257323806302 8 -21 1 1 6 8 -17 34
1532257323853177 24 -1 3 -18 -11 -5 -19 -4
1532257323913017 12 -7 92 8 -2 1 0 11
1532257323926980 -36 24 114 -19 -4 -1 -4 1
1532257323972857 0 -16 -20 -2 2 1 -1 -1
1532257324046670 14 -17 -39 -6 -1 -6 0 1
1532257324106499 13 7 29 -2 -5 -3 -12 56
1532257324213214 11 24 10 6 3 -3 -40 -30
1532257324273054 19 -22 0 3 0 0 1 -4
1532257324466537 0 -13 3 -7 -2 -2 5 1
1532257324549315 -3 2 16 -10 -3 0 0 -1
1532257324573251 -2 -17 0 1 2 -1 -2 1
1532257324595193 -2 -12 -16 -7 2 0 -1 0
1532257324618148 -9 11 30 10 3 -1 0 -1
1532257324656030 -7 -13 -11 1 -1 -3 -1 -1
1532257324715870 7 2 27 5 1 2 -1 0
1532257324798649 7 5 -44 9 2 -1 0 1
1532257324835550 -11 -36 27 7 3 2 0 -3
1532257324880446 -9 106 27 7 5 6 5 -3
1532257324903369 13 11 1 -1 2 -2 -1 -46
1532257324932291 -15 -14 41 32 12 4 4 3
1532257324955230 -50 22 -14 -14 -7 0 2 4
1532257324992131 13 -15 -8 -2 -1 0 4 4
1532257325031027 16 -6 25 -1 -3 -5 -3 19
1532257325046985 -7 -15 2 -5 -1 7 5 19
1532257325051972 -23 -83 -16 -1 3 -6 -18 -84
1532257325101839 9 -8 -14 -2 -3 -11 3 27
1532257325122796 6 5 -13 -2 -8 -21 -1 5
1532257325157689 -6 31 31 5 1 -3 1 15

1532257325217529 -3 8 20 -10 -4 1 -1 1
1532257325277368 2 -15 -1 -6 -3 -1 4 8
1532257325314269 -5 0 3 0 2 -2 0 -3
1532257325354163 -3 -2 3 0 0 2 1 -5
1532257325398052 3 -5 8 -2 -2 -1 -1 -4
1532257325412009 8 2 1 -2 -2 -2 1 25
1532257325457898 -8 6 -1 -2 -1 -1 -1 -6
1532257325554626 -4 2 6 -3 -4 -2 -1 -7
1532257325616462 -2 -7 10 2 0 1 -1 1
1532257325661342 -6 14 6 -2 0 -1 -1 -3
1532257325712205 0 5 6 -1 -3 0 -1 -8
1532257325735158 -10 6 -2 0 2 0 -3 -15
1532257325773043 -2 -8 9 4 0 1 3 -3
1532257325831950 -6 -49 -21 -4 -1 13 2 -1
1532257325900767 -6 -8 3 -1 0 -7 1 -3
1532257325962602 0 4 -2 1 2 -3 1 -5
1532257326005487 -1 -11 -28 1 1 -4 -3 -1
1532257326021444 0 -6 -3 -1 -1 2 0 8
1532257326057348 1 3 8 1 1 1 0 -2
1532257326071311 -2 1 8 0 -1 0 -2 -1
1532257326125167 -5 4 -4 -1 0 2 -1 -21
1532257326230891 1 -1 -8 -1 -2 -3 -1 19
1532257326267792 -6 2 15 1 0 -8 -2 -11
1532257326320651 -1 -6 -3 0 2 -3 3 -6
1532257326335611 -4 0 5 1 1 5 4 11
1532257326358550 -8 -2 -4 -3 -2 -2 2 9
1532257326388470 0 -2 -46 -1 1 2 0 9
1532257326440331 -1 4 64 -1 2 1 2 2
1532257326492192 -5 -8 -37 -4 -2 -2 0 -6
1532257326597940 1 9 32 5 2 11 0 -4
1532257326656782 -22 -11 10 -1 -7 -23 -12 15
1532257326740558 -7 -13 -40 -2 -1 27 6 10
1532257326785454 6 -19 57 -1 7 43 12 50
1532257326838297 0 3 59 31 6 1 1 0
1532257326921092 -4 -1 -26 5 3 4 1 0
1532257326943017 1 21 -10 -1 -4 -1 -2 -2
1532257326957977 -6 18 1 -19 -9 -6 -2 -1
1532257327025796 1 -12 8 -1 0 4 1 0
1532257327076660 1 -13 -5 -1 3 1 -2 1
1532257327100595 -2 -52 -5 -5 1 1 2 2
1532257327136517 -5 3 -7 -1 5 1 1 -1
1532257327145475 1 9 0 -4 -8 -4 -1 0
1532257327220276 -1 -4 -18 -3 -3 0 7 2
1532257327281112 0 11 3 0 7 3 6 0
1532257327340953 0 15 17 4 3 5 7 1
1532257327362894 4 -3 -9 3 1 -3 -3 17
1532257327422734 4 0 15 3 3 7 3 -3
1532257327558372 -4 -79 -65 -11 -5 2 8 9
1532257327722932 -19 20 -2 0 4 2 3 0
1532257327745870 -2 3 -29 0 -4 1 0 -15
1532257327844606 3 -14 16 3 1 -6 4 0
1532257327905443 -4 -18 -40 -4 -6 -1 1 0
1532257328023129 -7 -5 40 0 0 -11 -3 -8
1532257328142809 -8 -9 20 -3 8 -14 -15 13
1532257328263486 -8 -2 21 -3 -7 -2 -15 -16
1532257328353246 6 -3 -15 -2 0 7 2 0
1532257328481902 2 6 7 -1 2 0 0 -2
1532257328645464 2 11 6 1 0 -1 -2 10
1532257329006499 -1 0 8 12 5 0 -4 3
1532257329049384 -3 16 -5 -11 -17 -1 -1 -11
1532257329102244 0 -9 10 0 18 3 2 -7
1532257329275779 -5 13 -2 -7 1 -4 -6 -6
1532257329327640 2 -1 -2 -2 2 -2 -3 -1
1532257329627838 -1 8 -5 4 0 0 39 -2
1532257329702638 2 1 3 -2 -9 -11 -1 2
1532257329987875 1 35 -8 -6 -3 10 48 17
1532257330032754 -1 -50 -13 -6 -6 -10 -45 8
1532257330130493 -8 -34 -7 -4 -2 -7 -13 -13
1532257330190334 9 38 6 5 3 7 49 10
1532257330250190 21 25 -5 -26 -8 5 32 18
1532257330354894 4 -2 -4 -10 -5 -3 -52 6
1532257330446648 -6 3 4 0 0 1 27 7
1532257330520451 4 -6 6 3 4 1 20 -5
1532257330610211 6 3 7 5 0 1 -12 3
1532257330686008 -3 9 2 1 1 -1 4 -2
1532257331001165 -48 -7 52 5 1 0 -3 -59
1532257331120845 3 19 -14 0 -3 -2 -3 13
1532257331159741 3 10 3 3 0 2 2 22
1532257331203630 25 -8 -78 -6 -3 1 -7 0
1532257331233544 -9 -11 12 -7 4 2 1 11
1532257331330285 21 26 7 5 5 7 11 13
1532257331376163 46 -11 4 1 -1 -4 -11 7
1532257331496840 13 7 0 0 2 0 -37 5
1532257331614525 26 -34 -16 -32 -9 -9 1 -4
1532257331629485 -50 6 6 1 2 0 1 -4
1532257331675363 14 0 15 -7 -2 2 -2 -3
1532257331720242 1 17 -3 -5 -1 -1 1 -7
1532257332012462 -51 -27 -24 26 -2 0 31 1
1532257332072301 -29 19 1 3 2 1 10 -22
1532257332110199 5 5 -104 -19 -6 -2 -12 1
1532257332191981 -5 -16 -3 2 1 -1 -11 -9
1532257332252818 -15 -4 66 7 1 -3 -4 -10
1532257332350562 -3 18 -4 -8 -1 -2 0 -2
1532257332394439 46 109 18 2 -2 6 65 38
1532257332515117 38 -2 -2 -1 -3 -12 -2 -5
1532257332620834 6 13 2 0 2 1 -13 6
1532257332694653 -4 -18 -11 -3 7 0 -26 5
1532257332732535 5 12 -22 -15 1 4 -5 -1
1532257332815314 4 -5 -18 9 -1 -1 -3 2
1532257332829277 -1 2 6 17 2 -2 -2 -1
1532257332898093 3 -17 -10 -11 -3 -2 -4 -4
1532257332935007 0 13 12 23 10 1 0 -2
1532257332994846 7 -3 -22 3 -2 -1 -2 2
1532257333031735 -5 -30 6 22 5 1 1 0
1532257333062653 -1 -17 17 -13 -4 -3 -1 3
1532257333084594 -1 17 -3 4 0 0 -2 1
1532257333114513 15 12 0 2 -1 1 0 0
1532257333138450 2 18 9 -1 0 0 1 -2
1532257333152413 8 30 40 -2 -1 1 -1 -1
1532257333212253 3 8 -13 -12 -5 -1 -2 -2
1532257333258130 -22 13 -8 -14 -2 1 11 -1
1532257333341906 -21 -1 9 -1 1 3 -63 -83
1532257333377810 1 -116 -18 1 -9 -7 50 2
1532257333445628 -8 0 31 15 5 -4 4 -19

1532257333498487 -8 -5 38 12 2 3 14 -1
1532257333535389 17 20 14 5 0 -1 17 31
1532257333633127 -6 -26 -3 -5 2 0 -4 -13
1532257333670028 1 16 -11 -5 -2 2 2 5
1532257333699948 0 2 -8 -2 0 -2 3 6
1532257333774749 0 11 1 -2 -2 -3 0 -7
1532257333811650 -2 -2 -2 0 1 0 -1 -1
1532257333834589 -3 9 -2 -2 -1 1 -1 12
1532257333880466 1 10 1 -1 2 2 0 6
1532257333925355 -4 -8 -1 -1 0 0 0 0
1532257334038044 4 0 0 0 -2 -3 -1 16
1532257334074945 -4 1 1 2 1 1 1 1
1532257334120823 1 -2 1 0 1 1 -2 -4
1532257334165703 -10 -3 -1 0 1 4 0 2
1532257334180663 -5 12 3 -1 0 -1 -2 -12
1532257334202659 2 -13 -4 0 1 9 -2 -15
1532257334263498 1 2 2 2 2 3 6 3
1532257334302412 0 -3 1 0 0 -1 -1 -6
1532257334323339 0 -4 0 2 1 -1 -3 -16
1532257334374202 -2 -1 -2 -1 -1 -2 0 -7
1532257334434715 2 -3 -2 0 -2 -3 1 8
1532257334481578 -10 -5 -3 -1 -2 -6 -6 -66
1532257334600274 -5 -2 1 0 0 -3 -4 -19
1532257334697999 -7 -4 1 2 2 1 1 -2
1532257334765817 -8 -6 -1 2 2 0 -4 -3
1532257334831642 8 -2 -3 1 2 2 1 23
1532257334878517 2 2 -1 -2 0 -1 -2 -10
1532257334990668 0 -3 0 -3 -1 4 0 1
1532257335035549 7 -7 0 4 3 3 1 18
1532257335119324 -2 1 0 1 0 -4 -2 31
1532257335200108 -4 3 2 1 0 1 -5 -16
1532257335223047 5 -3 -2 -1 -3 -1 -2 -6
1532257335312807 4 -1 -1 1 -1 -4 2 8
1532257335476374 4 6 1 -3 -2 3 -3 -17
1532257335703761 2 -8 0 0 0 -3 0 -2
1532257335763601 0 -3 -3 -1 0 2 -2 -8
1532257335823441 0 2 1 0 1 3 -2 4
1532257335980023 4 1 4 -1 -3 -2 -1 27
1532257336025900 15 -8 -5 1 -2 -46 -4 22
1532257336191463 1 14 59 -1 3 5 4 -5
1532257336265266 2 1 -40 -3 -3 -2 -2 0
1532257336333085 -3 3 -21 -1 -1 1 -1 -7
1532257336385944 -2 -1 -3 -1 0 -1 -2 -3
1532257336429826 2 -14 -51 -4 1 2 -1 2
1532257336528562 2 4 8 2 2 1 -3 -3
1532257336602365 -2 1 10 1 -2 0 0 -1
1532257336662204 1 3 -3 -3 -2 -2 0 -1
1532257336678162 -4 -5 -12 1 -2 -2 -3 -2
1532257336729026 -3 -3 -4 6 5 2 0 -1
1532257336805820 1 9 2 1 -1 0 -1 -1
1532257336841725 0 9 2 -1 6 3 0 -1
1532257336888599 3 14 3 2 0 2 0 0
1532257336924503 3 2 3 3 4 4 0 0
1532257336933479 -1 -10 1 4 6 3 1 -1
1532257336961405 -3 -4 6 2 4 1 -2 -2
1532257337008279 3 3 -2 -6 -5 0 -4 2
1532257337021244 0 8 -13 -7 -3 -2 -1 -4
1532257337076098 -5 22 -10 0 -5 9 -8 -2
1532257337091072 -3 -12 -11 -3 -6 -2 2 0
1532257337141922 -8 -56 -14 -5 0 -8 -1 -3
1532257337247652 -2 -32 -8 -3 -9 -7 1 3
1532257337286535 1 0 -53 -8 5 7 -4 6
1532257337321442 7 24 6 8 -2 -9 -1 11
1532257337405218 0 -7 -12 -10 -6 6 9 5
1532257337442119 -1 2 15 -1 -2 0 -2 6
1532257337524898 -1 -16 -11 -6 -4 -11 -1 7
1532257337607676 6 -4 -10 -2 4 3 3 10
1532257337690455 5 15 38 7 20 -5 2 23
1532257337711411 -1 -5 -88 -5 -4 -2 -5 17
1532257337870972 -1 -5 26 -3 -2 4 1 -26
1532257337883938 -2 0 -59 -3 -3 16 2 3
1532257337990654 -11 -11 -14 -2 -1 -5 -3 12
1532257338119308 -3 -2 20 -5 -7 -23 -12 7
1532257338139255 -1 2 7 1 -2 -1 7 3
1532257338216049 1 5 -1 3 -3 -16 2 19
1532257338275889 6 12 12 3 -2 -2 -5 3
1532257338395570 2 37 22 0 1 1 1 7
1532257338418525 -5 3 -48 -6 -6 -2 1 4
1532257338447431 -1 -18 4 1 -3 -4 1 3
1532257338492311 0 0 16 -6 -4 -6 -4 -5
1532257338530209 4 -6 -11 -2 5 -1 2 11
1532257338552151 -3 -18 -7 -2 -6 -3 -5 -5
1532257338606007 7 21 19 10 18 0 0 3
1532257338649889 -1 -9 -3 -3 0 6 0 -1
1532257338680807 -6 -22 -10 5 -11 29 2 -5
1532257338769570 0 20 3 1 3 1 2 -2
1532257338807468 1 5 6 -6 1 -1 1 0
1532257338936124 1 1 8 -10 -12 -4 -1 -1
1532257338950087 -3 6 -5 3 -6 -4 0 0
1532257338972028 4 -8 6 5 16 3 -1 -2
1532257339032865 -3 -8 -3 -8 1 2 2 1
1532257339069777 -3 -3 -4 3 10 0 1 1
1532257339129606 2 -2 2 -3 -8 -4 -1 -2
1532257339152545 -1 -1 -7 -1 -6 1 -1 -2
1532257339207399 -2 -7 -1 8 4 -2 1 0
1532257339243302 0 7 6 0 1 -4 -1 -3
1532257339355004 -3 -5 -32 -1 -2 -6 -5 -12
1532257339429804 -1 8 7 2 5 -2 5 -5
1532257339527543 1 11 5 -4 -9 -8 -1 4
1532257339572422 -1 -13 0 -1 0 -3 0 -3
1532257339595361 1 -7 -3 -3 -8 -3 1 2
1532257339632262 2 4 21 4 0 -1 0 4
1532257339655201 1 -37 -21 -8 -3 -1 1 3
1532257339694097 0 -21 -1 4 3 0 -5 -6
1532257339769894 7 9 1 -1 1 2 1 9
1532257339792833 2 17 13 5 1 -1 0 0
1532257339807793 -1 7 0 1 0 2 1 0
1532257339835719 1 9 -4 -1 1 1 1 -5
1532257339895558 5 -3 -14 -1 -4 1 1 0
1532257339932459 -4 5 5 -6 -16 -5 -3 -6
1532257339955398 -17 -49 -8 0 9 -2 0 -4
1532257340037179 -2 4 -7 -6 -6 -8 -10 -10
1532257340055131 3 14 -3 -8 -8 -8 -98 -3
1532257340091036 18 -48 19 19 18 41 95 1
1532257340148881 -49 -110 -15 -9 -5 5 2 -2
1532257340255596 -5 45 -12 -8 -8 -2 6 -9
1532257340315436 -8 -2 11 7 2 2 10 -2
1532257340397216 -13 -86 -9 2 0 0 10 -6
1532257340412176 6 -23 -13 -23 -9 -7 26 -4
1532257340495953 4 9 8 -7 -5 -4 -6 -1
1532257340555793 28 39 20 6 1 -5 0 10
1532257340595686 2 -48 -1 2 -1 -12 6 19
1532257340670486 -7 19 -11 2 0 -3 24 -6
1532257340711377 13 -44 8 1 2 -1 -16 16
1532257340818092 10 10 22 7 2 -6 -25 -18
1532257340909846 7 22 1 0 3 2 -1 -6
1532257340953729 -4 20 -9 -5 -4 1 0 5
1532257340974673 8 -11 5 2 0 -2 10 3
1532257341013568 -2 -24 -4 -1 0 1 -11 2
1532257341057451 -6 1 5 4 0 -6 -29 -3
1532257341163169 -15 -38 -7 -5 -2 -2 -6 0
1532257341247942 7 -2 -1 0 1 2 -3 2
1532257341419483 7 -5 -90 -6 0 6 6 0
1532257341441425 -1 21 29 3 3 0 0 1
1532257341507248 22 26 32 15 4 8 3 2
1532257341534177 -19 2 -10 -11 -5 -7 -2 -6
1532257341555121 -2 -6 -20 -6 -4 -7 -4 -2
1532257341562102 -111 -17 -3 0 -7 -5 -3 0
1532257341597009 13 6 -18 -2 -3 65 8 -16
1532257341650864 -10 10 10 6 5 -5 -41 -14
1532257341694747 0 -4 6 3 0 -5 11 -5
1532257341719681 8 -20 -3 -6 -4 0 0 -4
1532257341777526 6 -5 13 -2 -3 -5 1 4
1532257341898203 4 -34 -4 -1 0 -5 -14 4
1532257341934107 1 -3 0 -1 -3 -8 -8 -10
1532257341958052 -17 20 5 3 1 -4 -5 7
1532257342002923 -14 9 7 2 -2 11 17 -10
1532257342040822 1 -19 -8 -1 -1 1 0 -9
1532257342062763 -50 32 -12 -12 -11 -9 14 -9
1532257342077723 16 17 11 -40 -13 3 1 4
1532257342138560 -12 -7 29 6 1 0 -8 1
1532257342174464 8 19 -16 8 5 3 -3 -2
1532257342183440 7 -28 -32 -10 -6 -8 1 -2
1532257342266219 6 12 -10 -1 1 8 10 -23
1532257342377920 15 7 -5 -1 0 -24 14 -17
1532257342383904 -30 18 12 -2 -1 20 19 -13
1532257342437765 16 22 116 -21 -7 3 3 -3
1532257342496603 -25 15 -79 -12 -3 -2 -2 -4
1532257342520539 22 2 44 10 2 4 1 0
1532257342617280 -9 -22 -17 -3 -2 -2 8 7
1532257342677120 -2 -47 -12 1 1 2 13 27
1532257342782837 14 19 -9 -10 -13 -16 51 59
1532257342976320 -4 -8 0 -6 -1 3 -3 2
1532257343037158 -1 18 1 -9 0 -7 -6 -3
1532257343084032 -4 -12 -33 -7 -6 -1 4 -1
1532257343098992 7 24 4 -12 -7 -1 1 0
1532257343156837 -5 -10 -1 -2 -2 3 -10 -1
1532257343179775 5 7 3 14 1 8 15 2
1532257343216676 7 8 -13 -6 -1 -1 -1 3
1532257343239615 3 -16 -7 -18 -3 -2 4 -2
1532257343285493 1 2 -5 24 2 5 2 2
1532257343323392 -7 12 -3 3 -2 -1 -2 1
1532257343345334 -22 -5 7 -1 4 1 0 -2
1532257343405173 16 -6 29 8 6 2 2 -1
1532257343444069 5 -15 21 7 7 2 2 -1
1532257343478976 -2 4 15 3 -3 -1 0 -4
1532257343502912 3 8 5 0 2 -3 -4 -3
1532257343683429 -6 -16 0 -6 -9 1 29 -89
1532257343736288 2 -23 -1 4 5 -4 18 0

1532257344005568 3 4 12 1 1 3 -9 6
1532257344042469 5 -27 -4 -1 -1 -2 -2 -5
1532257344065408 -3 14 5 1 -1 -3 -1 -7
1532257344102309 -10 26 7 0 1 0 -1 -13
1532257344125248 -2 -11 4 4 2 0 0 -5
1532257344148186 4 -6 -3 -2 0 -1 4 44
1532257344193067 0 -1 2 0 1 -2 0 -2
1532257344230964 11 -7 -1 -2 -4 0 4 20
1532257344305765 -9 4 -1 1 -2 0 -1 -4
1532257344342666 -3 -3 -4 0 1 3 3 6
1532257344409526 -7 -23 -7 -2 -3 -1 -3 -3
1532257344427478 7 15 2 -2 -1 0 1 8
1532257344523222 -4 2 -3 0 -1 1 -1 -12
1532257344568119 -2 2 -4 0 -2 1 -1 0
1532257344636061 3 -1 -4 1 -2 0 -1 2
1532257344665964 4 -4 -1 2 -1 -1 0 -1
1532257344687906 -1 1 1 0 0 -1 1 1
1532257344725805 1 -2 0 -2 -2 0 -4 -3
1532257344755725 -3 5 0 -1 -1 -2 -1 1
1532257344786642 -1 -5 -1 1 1 0 0 -2
1532257344830525 -3 0 -1 0 -1 1 -1 -1
1532257344891362 -5 -2 0 1 0 2 -1 -7
1532257344905325 -7 6 0 0 -2 -1 -2 -26
1532257344942232 1 -1 8 1 -1 -9 0 5
1532257345002072 13 -15 1 5 5 9 37 41
1532257345091832 -3 -4 6 2 -1 2 10 -12
1532257345144690 -10 -39 31 -18 -8 -9 -6 -12
1532257345227470 -3 5 -23 -6 -2 19 -9 -4
1532257345274344 -2 1 3 7 2 -8 0 -5
1532257345342175 -10 1 -24 -8 -2 -5 -2 -3
1532257345408984 3 -3 -13 0 0 -2 2 4
1532257345489768 -3 -3 -16 -2 -3 7 -1 -9
1532257345572546 1 4 29 3 0 -4 -11 -4
1532257345827864 -6 -10 -25 -4 -6 -3 -3 -4
1532257345984445 8 25 -9 1 3 3 -3 -2
1532257346007384 -3 -16 1 -5 -7 -3 -1 5
1532257346187901 1 5 38 6 7 20 0 -2
1532257346247741 -9 1 24 -1 -2 -3 -1 -7
1532257346307582 2 -1 47 10 -4 -4 -4 21
1532257346353458 -12 11 37 1 0 -6 -13 -58
1532257346405320 4 -15 -96 4 0 -5 -4 19
1532257346420293 -6 14 53 1 -6 -7 -6 14
1532257346480120 1 2 -58 -8 -2 2 -3 -3
1532257346532979 4 10 -14 -4 -9 -5 -3 2
1532257346629719 -11 -38 -28 -8 -3 -1 -3 -22
1532257346652676 2 2 10 -6 4 9 -3 9
1532257346691555 1 -27 -42 -17 -1 4 6 31
1532257346750397 -1 -4 -63 -10 -5 -2 -4 -9
1532257346914957 -7 -13 5 -2 -3 -4 0 -16
1532257347097469 -2 -1 10 4 -1 -1 -4 15
1532257347231111 -11 -5 -8 -1 3 0 -1 1
1532257347336829 3 -11 -1 4 -2 -1 1 34
1532257347417613 -9 -29 -85 -1 -2 1 -10 23
1532257347455511 -1 -5 48 -4 -6 1 5 5
1532257347562226 1 27 11 -3 -4 6 -3 -25
1532257347648994 4 41 77 -3 -14 -6 1 1
1532257347949191 -5 33 0 -5 -11 1 1 1
1532257347972130 -5 -24 27 1 -13 -5 -8 -17
1532257348018007 3 15 28 -7 -5 -3 -4 3
1532257348055906 4 -25 -8 -2 8 4 9 4
1532257348160642 0 43 24 -1 -8 -11 -12 3
1532257348197527 11 0 19 1 8 14 78 19
1532257348392007 26 33 16 0 11 13 43 19
1532257348610423 10 24 3 2 -2 -9 3 -32
1532257348925581 6 24 12 3 1 -6 21 0
1532257349015340 6 -9 -9 0 -1 -3 -58 -7
1532257349398316 -12 5 20 -6 1 15 8 -31
1532257349532956 31 31 -12 -7 2 -1 5 4
1532257349570855 -52 16 8 5 4 0 8 23
1532257349743393 -12 22 71 6 0 15 11 10
1532257349794257 -17 -9 -3 -3 -4 12 -6 -30
1532257350028631 34 29 -1 -26 -6 0 8 11
1532257350116396 13 -2 -13 -12 -1 0 2 0
1532257350177233 7 -10 -4 -12 -4 -2 -8 -6
1532257350402631 19 4 -18 -37 -9 -1 -1 -12
1532257350523308 13 -4 38 1 -3 -2 -4 -4
1532257350621052 -16 -10 7 0 -2 0 8 42
1532257350905287 6 18 -18 -6 -9 -2 -16 2
1532257350943185 2 0 5 0 -2 -2 -2 3
1532257350966132 -2 6 -1 2 1 -1 -4 0
1532257351025964 -3 -1 -13 -15 -2 0 -2 -2
1532257351130697 0 2 35 2 0 0 -1 1
1532257351265324 8 33 15 -5 -2 -1 0 3
1532257351339126 11 2 -17 3 -1 1 1 1
1532257351354086 -19 -11 11 -3 -2 -2 -2 -4
1532257351474780 9 -3 7 0 0 -3 -4 -18
1532257351505681 15 -17 -11 0 5 9 7 32
1532257351528620 -3 101 25 6 -1 -4 -20 -10
1532257351579484 2 5 -31 20 9 -1 4 -10
1532257351602431 1 2 23 -5 -5 -2 1 -1

1532257351669243 -1 -1 -45 -3 -3 -2 2 3
1532257351688193 12 14 12 -5 -3 -5 -2 12
1532257351708140 6 12 -41 6 5 1 2 2
1532257351753036 -7 13 29 -9 -3 -2 -3 -1
1532257351782939 2 12 6 -2 1 -2 1 15
1532257351805878 0 -4 -30 -3 -1 -2 -4 -1
1532257351827820 1 7 18 0 1 -2 1 1
1532257351872699 0 0 0 -2 -2 -3 -4 -3
1532257351895638 9 6 0 -1 -1 1 0 -3
1532257351933536 -1 -25 2 -1 0 2 -1 -12
1532257352010332 -4 22 2 0 2 0 -2 -4
1532257352015317 0 -2 7 1 0 -1 -1 5
1532257352045238 -1 -15 0 1 -2 0 1 1
1532257352127019 -4 -16 0 3 1 3 0 3
1532257352195836 -3 4 1 -2 -1 -1 -1 -1
1532257352209798 -2 1 1 1 2 0 0 0
1532257352284598 -1 2 -1 1 1 0 -1 -2
1532257352307537 -1 -7 -1 0 -2 -2 2 2
1532257352345444 -5 3 0 -2 1 0 1 1
1532257352367377 -7 -2 -1 -2 -1 -2 2 2
1532257352405275 2 -2 -1 -1 0 0 -1 -4
1532257352427217 -5 10 -1 0 0 -1 0 1
1532257352503014 3 1 1 0 -1 0 -2 -8
1532257352534929 -2 2 2 -1 0 1 0 -3
1532257352556870 -3 -1 -3 0 0 2 -1 2
1532257352607735 3 -3 -2 -2 1 -2 -3 -2
1532257352630673 -1 -4 0 -1 -2 -2 0 3
1532257352644635 0 -3 0 1 -1 0 -1 -1
1532257352667574 4 2 2 1 2 1 -1 -3
1532257352727414 0 -3 0 0 -2 -2 0 -2
1532257352749355 0 3 -2 -2 -3 1 2 4
1532257352787254 -2 -1 -1 -1 0 -1 -2 -2
1532257352825152 1 3 0 0 1 1 -1 -3
1532257352907942 -5 -3 0 2 1 1 1 -1
1532257352945079 -3 -5 0 0 0 -1 -1 -25
1532257352967021 2 -5 -1 -1 0 -1 -1 6
1532257352990957 4 3 -1 -2 -1 0 2 4
1532257353027858 -2 -24 -1 0 0 0 -2 -2
1532257353064759 -5 -6 -2 1 0 2 1 -7
1532257353124599 -1 3 -2 -1 0 -1 -1 -15
1532257353142552 4 2 -1 1 2 0 1 6
1532257353231314 -5 -20 -2 0 0 0 2 2
1532257353245277 3 9 1 0 -3 -2 -2 -6
1532257353267218 0 4 -1 0 0 -2 -1 -1
1532257353290156 -2 -6 2 0 0 1 0 -2
1532257353305117 2 1 -1 0 0 -1 -3 -4
1532257353327058 6 2 0 0 -1 -2 1 21
1532257353349997 3 3 -3 0 -2 -1 2 7
1532257353387904 -4 3 4 -3 -2 -1 -2 -6
1532257353424796 -3 1 -4 -3 -3 -1 -2 -4
1532257353447735 1 0 -3 -1 -1 -1 -1 2
1532257353470674 -3 8 -2 -2 -2 -2 -2 -6
1532257353568413 -2 -3 -3 -1 -1 0 -1 -2
1532257353590354 3 -7 -2 -2 -2 -2 2 1
1532257353627255 -4 9 1 -1 0 -1 2 0
1532257353658173 -4 -3 -1 -1 -2 -1 -1 -3
1532257353711032 -2 1 0 -2 0 -1 -2 3
1532257353747932 2 1 2 1 2 1 -1 -2
1532257353770871 0 -3 7 1 -3 -1 0 0
1532257353807773 -7 7 -11 1 0 1 1 1
1532257353830728 6 -8 -17 0 -1 0 2 6
1532257353875591 0 9 7 -4 -3 -3 -6 -4
1532257353913490 8 8 36 1 -1 1 3 12
1532257353935431 6 -1 -57 -7 -3 6 -3 5
1532257353989301 -8 -18 1 5 20 79 -18 -81
1532257353995271 13 -11 0 3 11 21 -5 20
1532257354010231 9 3 6 5 3 -20 4 32
1532257354056109 -11 -20 -21 -2 3 -8 0 12
1532257354106972 1 8 -2 4 2 -15 1 8
1532257354137889 2 0 -88 -2 1 -4 2 4
1532257354198727 2 -2 -5 -4 -2 -2 -1 2
1532257354212690 2 5 15 -2 1 -3 1 3
1532257354226653 1 -2 -1 -12 -5 -4 0 1
1532257354250588 -1 0 18 4 2 -1 1 1
1532257354286493 3 6 18 -6 -6 -1 -3 0
1532257354333366 -4 20 0 2 0 -1 0 -3
1532257354392210 1 2 5 -4 -2 -3 -2 -3
1532257354433112 -2 19 4 -1 -1 -1 -2 1
1532257354467018 6 15 12 6 6 3 3 4
1532257354535825 0 -3 0 1 3 2 5 3
1532257354572727 -2 14 -2 -3 2 0 20 -1
1532257354609629 -10 -13 -28 -7 -4 -1 -2 -6
1532257354669469 4 12 12 -1 -2 -1 -4 2
1532257354693404 -1 15 -13 1 5 4 -3 0
1532257354715346 -12 -4 36 -3 -16 0 -3 -8
1532257354775186 -5 -39 -12 -10 4 6 6 -4
1532257354850983 -4 -38 -13 0 5 13 0 1
1532257354895862 -1 -25 -22 -1 -4 10 5 -14
1532257354955703 -3 8 -1 -1 -10 -5 3 5
1532257355032497 -7 29 82 1 4 28 4 -10
1532257355053442 3 -16 -32 -10 -3 9 -7 11
1532257355121260 -6 -10 -56 -4 -3 -7 -12 -18
1532257355173122 -2 11 39 1 -1 9 1 -12
1532257355240940 -4 -1 -7 -3 0 3 -3 -4
1532257355283825 -7 -7 10 -3 -1 -31 -11 -10
1532257355375594 3 -4 16 6 -2 -22 -7 6
1532257355488279 -1 -10 -15 1 -2 -1 4 15
1532257355628902 -3 5 19 0 -1 1 4 -8
1532257355916134 2 14 12 1 -3 -1 -2 4
1532257355977969 -1 4 10 3 2 0 -3 -1
1532257356020855 -3 -15 -4 -2 -1 5 -8 -5
1532257356102635 -2 -1 -1 -6 -3 0 -1 -6
1532257356113606 0 -1 -1 -5 -7 1 -1 4
1532257356170455 3 -4 -1 1 0 -11 -2 -1
1532257356177436 -2 -11 -3 -5 -9 0 2 -2
1532257356252236 -1 0 1 -1 1 2 -1 -7
1532257356298115 2 12 4 -5 -5 4 -1 2
1532257356336012 2 -5 0 6 0 -1 1 0
1532257356357953 -2 -8 -5 -5 -2 -6 -1 -2
1532257356394855 1 16 2 4 -5 -6 1 2
1532257356431756 1 -6 -4 -5 -8 -17 -2 0
1532257356491596 -1 -3 -8 -1 -2 -14 -6 -1
1532257356521516 -2 2 -5 -10 -4 -5 -2 -1
1532257356688070 3 9 9 -2 -1 -2 -2 1
1532257356755889 -2 -5 -1 -1 -3 1 -1 -3
1532257356800769 -2 -15 -9 0 4 5 1 4
1532257357004225 -7 -20 -2 0 -1 -5 21 -5
1532257357064065 1 -11 1 0 11 14 34 10
1532257357279489 31 59 17 2 3 6 50 33
1532257357310406 13 29 -2 -1 -2 3 71 -6
1532257357363267 7 -3 5 1 1 0 -17 -8
1532257357384209 5 -22 -4 -9 -6 -9 1 -18
1532257357414128 -11 -71 -8 -1 -1 -7 -35 -2
1532257357445046 4 -34 8 6 8 26 103 -15
1532257357520860 1 -56 -1 2 0 3 34 8
1532257357723302 -10 -9 -13 0 2 5 -47 -25
1532257357783142 11 85 16 5 -1 -12 -65 -9
1532257357820044 17 -51 8 7 7 7 13 9
1532257357848976 8 -32 12 8 5 6 68 12
1532257357963659 4 30 3 -2 -3 15 -13 36
1532257357976625 -4 -23 -37 -9 -3 1 -4 -17
1532257358023499 0 -14 -41 -1 1 -1 0 1
1532257358075362 -3 10 39 -5 -2 -3 -1 -9
1532257358092316 -15 -4 12 -5 -4 -8 -6 -10
1532257358142182 -16 3 21 3 3 -4 -1 -4
1532257358159137 13 2 -9 -4 -1 3 1 4
1532257358187062 16 4 61 4 2 1 1 4
1532257358225959 -29 14 -27 11 -4 -2 -1 -6
1532257358420437 -17 10 -12 6 -4 4 14 3
1532257358503216 -19 -12 -11 -5 -4 -7 -9 -9
1532257358541115 -26 6 23 -1 -2 0 5 -27
1532257358585995 8 -4 -27 -3 -1 7 -12 2
1532257358653813 -5 0 -14 -3 -1 -38 -24 18
1532257358728614 -3 -2 -18 -5 0 4 10 -11
1532257358750555 -4 5 11 -2 -3 0 -16 -6
1532257358765515 -38 3 27 0 -4 10 19 -2
1532257358788466 22 -16 -4 -22 -10 -3 -13 -12
1532257358802417 -5 2 -15 24 -1 -12 -23 -4
1532257358825355 -56 -8 -29 -2 1 0 -33 -3
1532257358839318 24 5 12 -4 4 10 46 15
1532257358893173 47 -12 21 39 7 -1 -5 22
1532257358916118 -3 -18 -41 -4 4 -7 -26 -25
1532257358953014 -92 42 30 11 -1 -3 -11 -19
1532257358967973 85 40 76 -12 0 3 12 55
1532257358982934 15 -46 -87 -12 1 -11 1 -42
1532257359042774 14 4 10 -5 -3 2 -3 5
1532257359102614 5 11 15 1 2 -4 1 28
1532257359162454 13 6 -4 -3 -2 -11 -2 -16
1532257359208331 33 -57 0 -2 -4 -14 -14 13
1532257359245232 51 54 -2 -2 -4 -11 4 6
1532257359282134 9 -16 4 -12 -2 0 -8 15
1532257359327013 40 22 6 -17 -9 -3 -3 2
1532257359364912 10 -15 -27 -17 -2 -1 2 3
1532257359387851 8 21 -40 17 5 1 -4 0
1532257359424752 49 20 63 23 5 0 1 20
1532257359447691 -19 -4 11 7 3 3 -1 -6
1532257359462650 -26 -9 -50 -14 -1 -1 -1 -6
1532257359493568 -8 4 92 1 0 10 0 -5
1532257359507530 -36 31 24 0 4 4 0 6
1532257359523488 -4 -11 -31 2 1 6 -5 14
1532257359568368 -18 -8 5 1 -1 -6 -4 -12
1532257359605269 -8 -17 -14 -3 -3 -5 -5 -6
1532257359628208 -5 -5 10 1 2 0 1 -12
1532257359642171 -5 1 -36 3 -1 -3 -3 17
1532257359665111 2 10 -30 0 -2 -5 -7 -25
1532257359688048 23 -15 22 0 3 5 0 -49
1532257359710987 11 12 -5 0 -3 -3 -7 14
1532257359725946 -31 -30 7 -3 -5 -6 27 7
1532257359792768 4 -12 10 4 8 11 35 14
1532257359822688 -28 30 -5 -2 1 2 20 -12
1532257359882528 -9 -26 -1 -1 -14 -2 18 13
1532257359935387 -3 -15 -10 5 -10 -4 -8 -3
1532257359942368 3 -11 -23 -6 0 -3 -7 3
1532257359965307 -5 -17 11 -3 -5 -1 -6 0
1532257359988251 4 4 2 3 5 -2 3 5
1532257360002211 -3 2 3 0 4 -1 -2 1
1532257360048086 -1 -3 -38 0 3 0 -2 -1
1532257360070027 2 8 1 -9 -3 -2 -1 0
1532257360107925 -7 -11 -15 -8 2 1 0 0
1532257360129867 -3 -13 -30 4 0 -1 -1 1
1532257360168778 -7 -29 3 1 -1 -1 1 1
1532257360189706 -1 -7 -14 -5 1 1 1 0
1532257360228603 10 25 33 18 6 -2 -1 1
1532257360264507 9 18 10 -4 -2 -1 -2 -1
1532257360348283 -3 14 5 -5 -1 -1 0 -2
1532257360431061 5 -1 21 -1 -1 -2 -8 0
1532257360445024 -3 -14 -25 -7 -1 -1 2 -3
1532257360475941 -23 -4 -1 -3 -2 -2 -2 -5
1532257360490901 9 0 5 4 5 1 12 2
1532257360529797 0 -4 29 3 0 -1 -14 -3
1532257360550741 -16 -10 3 -6 -1 -4 -2 -34
1532257360597615 46 -25 9 10 -5 2 -14 31
1532257360617562 -10 -18 -6 -16 -13 -27 19 11
1532257360649477 7 -4 -6 48 20 5 3 -6
1532257360662442 -3 9 39 1 0 -7 -22 9

1532257360685382 -18 1 -17 -18 -9 -5 4 -26
1532257360716298 -3 71 -7 -7 -3 -4 -4 -3
1532257360730260 14 -15 -1 1 -1 -2 0 1
1532257360784155 1 -3 1 6 -2 1 10 10
1532257360799115 16 -21 -10 27 9 -1 -4 11
1532257360821069 7 2 33 3 -1 1 -2 -1
1532257360920798 0 0 0 -5 -1 -2 -2 -2
1532257360940736 -4 0 -9 -1 -2 -1 -3 3
1532257360949713 -5 -17 2 -2 0 -1 -3 7
1532257360972655 -3 4 -3 -1 -2 -1 3 4
1532257361029499 3 -11 -5 -2 1 2 4 5
1532257361055437 -4 -1 3 1 0 -1 0 0
1532257361059419 0 1 -2 -1 0 -3 -2 -2
1532257361077372 3 -13 -1 0 0 -1 -1 -1
1532257361105296 -1 5 2 2 2 1 -1 1
1532257361128242 -2 -2 0 1 -1 1 -2 0
1532257361164146 0 2 0 0 -2 -3 0 -2
1532257361211020 4 -2 -3 -2 -2 -2 -2 -1
1532257361247922 0 -5 -2 -2 -1 0 1 4
1532257361270860 0 4 1 -2 -1 -1 -1 -1
1532257361330700 0 -18 -2 0 1 -1 0 -2
1532257361398519 -4 -3 1 -1 1 -2 0 -3
1532257361412482 -1 -9 0 1 1 0 3 -3
1532257361447389 6 1 -3 -1 -5 -13 -2 -20
1532257361465340 0 4 0 -1 0 1 -1 -5
1532257361487282 13 -4 -4 -7 -5 -13 -4 2
1532257361518199 -2 -4 1 2 -1 5 1 -8
1532257361547122 2 -8 -2 0 -1 -1 0 -2
1532257361585021 -4 -4 -1 -1 0 -3 -3 -1
1532257361598983 3 -2 -2 -1 1 -2 -1 2
1532257361621922 0 2 -1 -2 -2 -2 0 4
1532257361644860 -1 4 -1 3 1 3 -1 -4
1532257361675777 -9 -2 2 2 2 3 4 2
1532257361689740 0 -3 -1 -1 -2 -1 -1 1
1532257361735618 10 -4 -1 -2 -3 -3 -2 15
1532257361750578 10 -11 -3 -3 -1 1 -1 6
1532257361801442 -3 2 0 -1 2 0 0 10
1532257361826375 -3 1 1 2 1 -2 -2 12
1532257361885234 -3 1 2 5 2 0 0 7
1532257361907159 6 2 0 -2 -2 1 1 8
1532257361953036 3 0 -5 -4 -2 -6 -3 -16
1532257361990935 -2 -3 2 1 -2 -6 -2 -14
1532257362058767 -4 1 -8 1 1 2 -1 -1
1532257362101640 -6 3 89 4 -2 -2 -8 8
1532257362161479 14 -13 -14 -4 -14 -38 -2 26
1532257362215335 -11 -38 -1 2 7 32 26 5
1532257362357961 0 0 5 -32 -10 3 5 -3
1532257362409815 -4 8 -16 3 -7 -1 -1 3
1532257362508551 4 21 -3 -1 -1 1 -1 1
1532257362554428 -6 -22 5 7 1 0 -2 -3
1532257362598311 -2 -11 -22 -12 -7 -1 -1 -1
1532257362649175 -9 -32 -9 -11 -10 -6 -1 -3
1532257362717991 4 52 6 6 1 4 6 1
1532257362776833 -5 37 18 -3 4 12 2 -2
1532257362785825 -6 -25 -4 -8 -4 2 -1 1
1532257362844652 0 -4 -23 -7 -3 -3 0 -3
1532257362889532 -1 -16 28 -1 -2 -12 -4 3
1532257362958348 -6 -29 -14 -2 4 0 -4 -3
1532257362973308 1 -37 0 -2 5 7 3 1
1532257362995252 -4 -4 -38 -3 -3 13 9 5
1532257363048108 3 8 -15 10 3 -9 3 13
1532257363063068 2 13 11 -3 7 11 1 -1
1532257363128892 5 43 20 8 -5 -2 2 10
1532257363159809 1 -12 -14 -2 8 1 3 1
1532257363235607 3 11 -76 -3 5 4 3 10
1532257363303439 9 3 -1 0 3 -8 2 29
1532257363340326 -1 8 2 5 18 19 4 -2
1532257363430086 4 22 13 -1 -3 -1 -1 -6
1532257363497905 0 0 11 -2 -1 5 3 0
1532257363624566 -4 -4 -9 3 4 13 5 0
1532257363670445 4 16 29 5 5 1 5 3
1532257363738262 12 0 -20 -1 3 1 4 -2
1532257363805084 -3 3 -2 -5 -4 -5 -3 -5
1532257363964657 -5 -13 -22 -6 0 -2 -2 -3
1532257363991585 2 4 -1 1 -1 10 3 2
1532257364051425 -3 1 6 4 2 0 0 0
1532257364074364 1 -6 -9 -1 -1 27 4 17
1532257364128220 -8 -57 -7 -5 0 -6 -2 -7
1532257364219974 -2 0 0 -2 -3 -9 0 -1
1532257364300758 -1 -5 -6 -4 -4 3 0 7
1532257364360598 -7 8 -7 -3 -2 -4 1 -3
1532257364405493 -1 -1 4 -4 10 5 -2 -18
1532257364458337 -8 18 11 7 7 -2 3 -3
1532257364518215 8 33 6 -7 -11 -19 -3 11
1532257364554081 -5 -27 -9 0 12 3 4 1
1532257364613921 -3 13 2 -3 1 4 -4 -10
1532257364682737 -4 -11 -2 -1 -7 -1 -2 -5
1532257364880209 1 -10 9 4 2 1 0 2
1532257364967975 -3 -29 13 -3 1 0 0 -1
1532257365012854 -8 22 21 -1 2 2 20 -4
1532257365131537 -1 27 7 0 -1 -8 46 -4
1532257365223291 11 -29 6 4 3 8 3 12
1532257365283131 12 29 -1 -2 -3 1 6 2
1532257365321030 13 -91 1 -1 -1 -4 -20 4
1532257365342971 -2 -11 -10 -4 -6 -12 -7 -11
1532257365411787 -7 0 -9 -6 -3 1 13 -4
1532257365462651 -15 22 2 4 5 13 5 13
1532257365499552 -5 -4 -3 -1 4 12 -8 5
1532257365545430 -34 1 -5 -1 -4 -5 -12 -36
1532257365589312 11 9 4 2 1 1 -8 28
1532257365784811 -17 2 10 5 5 13 57 -17
1532257365897488 -15 49 76 -2 -6 -14 -35 67
1532257365988246 -7 -19 -13 1 2 4 3 -5
1532257366040107 2 -7 43 3 2 1 -4 -8
1532257366099947 7 109 -16 0 0 -3 -5 3
1532257366122886 13 -102 -51 -5 -1 -1 1 -3
1532257366154801 2 -58 7 -1 -3 -1 -2 5
1532257366167766 -3 22 61 5 2 -1 1 0
1532257366182725 -4 10 25 2 2 -1 1 1
1532257366207665 -13 -24 69 1 -6 -4 -1 -5
1532257366242565 -16 -3 -73 -13 -4 -2 -5 -7
1532257366267499 -5 8 -59 0 0 -3 -2 -3
1532257366279468 -11 4 3 -8 0 -3 -1 -5
1532257366302406 24 -11 28 4 1 1 2 4
1532257366348283 22 -22 -41 0 0 18 7 -7
1532257366385185 -6 4 -45 7 7 39 20 -3
1532257366400144 -65 -15 1 -12 -9 -24 -10 -1
1532257366452006 9 5 26 -8 -5 -5 -4 -19
1532257366482934 55 36 10 2 -4 -2 35 30
1532257366505862 4 8 -21 9 2 -6 -12 1
1532257366542762 -43 -48 9 -3 -6 -6 17 -35
1532257366565702 -21 15 0 -1 -2 -1 -6 9
1532257366602603 37 -11 -75 6 2 -8 -14 12
1532257366655462 -42 1 1 -4 -2 -3 -4 -11
1532257366678400 8 -12 58 -4 -1 -4 -9 -18
1532257366709317 -4 3 25 2 3 -1 6 -7
1532257366722282 -1 1 76 5 3 19 8 9
1532257366759184 -71 -13 17 -1 -3 -5 8 -8
1532257366782123 41 -2 -37 -10 -5 -8 -9 -18
1532257366806058 26 6 -4 2 -3 2 -4 3
1532257366819032 -64 -20 -5 -3 1 -6 20 -35
1532257366841963 20 12 0 2 2 0 9 12
1532257366872880 6 5 -8 2 2 9 -10 -4
1532257366910779 17 7 8 -1 -1 -2 3 32
1532257366939701 -5 -2 12 -9 -1 0 8 0
1532257366971616 -24 -5 -26 -7 -2 -3 9 -19
1532257366985579 7 4 23 0 -1 -3 -15 -4
1532257367068358 2 43 32 14 4 2 3 8
1532257367188037 21 -6 -12 -1 2 3 3 0
1532257367225936 16 4 18 -1 -2 -4 -1 1
1532257367247877 -31 0 -14 -1 -1 -32 -2 -48
1532257367308714 -12 -19 11 2 4 16 3 48
1532257367322677 -2 63 -4 -3 -3 -6 2 24
1532257367345616 4 -5 -4 2 2 8 0 4
1532257367368565 -7 -18 2 3 5 6 1 -6
1532257367413435 2 -1 -43 1 13 8 5 11
1532257367435376 26 11 -47 -3 -5 -3 -1 -1
1532257367488234 -39 -6 15 -25 -14 -4 -1 -3
1532257367547077 -20 -9 -24 4 2 0 0 -19
1532257367565029 17 12 18 4 1 2 4 4
1532257367704656 33 -13 -1 -2 -1 -3 -12 32
1532257367713632 69 30 15 3 -3 -3 -6 -53
1532257367790427 -30 27 1 -1 -1 -1 35 -16
1532257367810373 -35 -27 -6 -8 -13 -5 27 -11
1532257367848272 -15 -23 -57 26 11 -1 3 -8
1532257367885173 -45 -9 30 -7 3 -1 7 -11
1532257367922074 8 21 9 9 20 1 7 -8
1532257367951995 -14 -11 -21 -12 -5 -1 0 -4
1532257367990890 9 -16 46 0 1 -1 0 -3
1532257368004853 9 4 22 12 3 0 2 2
1532257368034774 0 0 -8 -2 -1 -1 1 -2
1532257368064693 2 1 -24 -3 0 1 -1 1
1532257368089627 -2 10 16 -3 0 0 -1 0
1532257368110571 -10 -18 0 -1 -2 -1 2 0
1532257368124533 0 -3 -11 0 2 -2 0 0
1532257368170410 4 1 -2 9 1 0 8 -1
1532257368184403 7 3 3 -2 -1 -1 -3 1
1532257368230250 -2 -5 -6 -3 0 0 -7 -3
1532257368268151 -2 18 -16 3 -1 -1 0 2
1532257368313030 -6 -2 23 0 0 -3 2 -2
1532257368329984 -4 10 7 -9 -3 0 0 1
1532257368363893 -2 13 -67 -10 -5 -1 -3 -4
1532257368395808 -4 -2 -19 -12 -7 -5 -1 -3
1532257368417760 8 3 21 14 5 2 1 4
1532257368440688 0 19 95 26 9 2 3 -3
1532257368449672 0 14 71 2 0 0 1 -1
1532257368472617 6 -19 0 -4 -3 -2 -4 -6
1532257368510502 -7 -9 -35 1 2 -2 -17 -3
1532257368530447 8 6 85 -3 -1 -2 0 -3
1532257368553386 13 -27 -9 2 2 -2 -2 1
1532257368567349 -1 25 -13 -6 -2 -1 -1 -6
1532257368597269 0 -5 -20 2 0 -4 6 -116
1532257368635168 -7 2 -15 -10 -14 -24 1 -30
1532257368681045 -5 18 33 36 10 -2 -6 15
1532257368701990 -20 5 30 -15 -2 0 2 12

1532257368732906 -8 -17 9 7 4 4 2 9
1532257368769808 -3 -17 -14 -11 -6 -4 -3 1
1532257368807706 1 1 14 6 3 -2 -5 14
1532257368829648 -4 0 14 4 1 2 2 -5
1532257368869541 -2 0 19 1 -1 2 4 0
1532257368913424 6 1 13 -3 -1 -8 -9 -2
1532257368929381 1 -1 -16 -1 0 15 4 21
1532257368941349 0 -14 -1 -1 -2 -2 0 0
1532257368987226 0 3 -2 -2 -2 -1 -2 2
1532257369033104 -3 -3 45 -1 -1 1 0 1
1532257369047076 -3 -6 -18 2 2 1 0 -1
1532257369077986 0 -4 -11 1 0 -1 1 0
1532257369094938 1 2 -9 -12 -2 -1 -1 -3
1532257369152783 -2 -2 8 -1 -1 0 -1 0
1532257369166746 -1 -3 3 -4 -1 -1 -3 -1
1532257369175722 2 -3 -1 6 2 2 -2 -3
1532257369220602 -8 4 11 -2 -1 0 0 -2
1532257369243541 2 -2 -4 -5 -3 0 0 1
1532257369286441 0 -2 2 0 0 0 -3 0
1532257369318354 1 -2 1 1 0 -1 1 -2
1532257369333301 7 -7 -39 -4 -4 -2 -1 0
1532257369395136 -5 4 5 0 1 3 -5 6
1532257369425055 6 2 14 -1 -3 4 4 4
1532257369437023 -1 0 9 0 -2 0 1 -6
1532257369496863 -5 -6 2 1 1 -1 1 -1
1532257369550719 2 -2 3 -1 2 -1 -2 -3
1532257369588619 0 0 18 1 1 0 1 2
1532257369610564 7 -3 2 -2 -3 -1 0 2
1532257369627514 0 -1 5 -1 0 -1 -1 0
1532257369678378 -2 -1 -3 -2 -2 -4 2 6
1532257369699322 2 0 -2 -1 0 1 1 -1
1532257369708303 -1 2 -2 0 0 1 0 -2
1532257369738221 -1 2 0 0 0 -3 -1 -3
1532257369792074 0 -1 2 -1 -2 1 -1 0
1532257369827978 -3 1 0 0 0 1 -1 -4
1532257369851917 -2 -1 0 -2 -3 2 -4 -4
1532257369878842 1 0 0 -1 1 1 0 -2
1532257369918736 1 0 0 -1 1 -1 -3 -1
1532257369961620 -1 -2 0 -1 -3 1 1 -1
1532257370032431 2 -4 -1 1 -1 -2 0 1
1532257370052380 1 -5 -2 -2 -1 0 0 -1
1532257370076314 -9 9 0 0 0 1 -2 -3
1532257370128175 0 -4 -1 -1 -1 13 7 5
1532257370151115 0 1 0 -1 -2 0 0 6
1532257370188015 -6 -2 -1 -1 -1 -1 0 1
1532257370209956 -2 -4 -2 2 0 0 -1 -1
1532257370224917 3 -3 0 1 2 -2 -2 -2
1532257370261818 -1 3 10 -1 -2 -6 0 2
1532257370315674 -5 8 -31 4 -1 -2 -4 -5
1532257370336618 0 -1 6 2 1 3 6 -26
1532257370398452 -6 -4 6 5 4 1 -16 0
1532257370435366 -14 -32 4 1 5 34 28 5
1532257370458293 5 -27 9 2 -11 -58 6 -5
1532257370495194 10 46 11 0 -7 -50 3 33
1532257370509156 -9 45 10 7 6 43 20 -10
1532257370549050 6 -25 0 -1 5 -19 -2 18
1532257370607892 -1 -12 -17 2 6 3 0 -5
1532257370616868 -3 -34 -52 59 16 -19 -3 -12
1532257370698650 0 10 25 5 16 5 2 -1
1532257370735552 3 88 55 -13 0 0 5 -1
1532257370803369 5 -12 -13 4 0 3 1 1
1532257370818348 0 19 2 4 2 -3 0 -1
1532257370847252 4 -5 -3 -7 -6 -1 0 2
1532257370894127 -3 -8 3 -7 -6 -5 -1 -2
1532257370916068 7 21 24 8 10 3 0 4
1532257370975909 -2 -12 9 6 5 1 0 -2
1532257371020788 -4 -1 4 4 9 -4 1 -1
1532257371035749 5 33 8 3 -6 -4 0 10
1532257371057690 -4 -7 12 4 9 11 13 -5
1532257371080628 -5 -1 -21 -2 -8 -11 -7 11
1532257371095588 -3 -26 -19 -8 -4 -4 -7 -4
1532257371118533 5 13 -3 -13 -20 -6 0 4
1532257371171386 -3 17 6 -1 -1 -5 -3 -38
1532257371215268 9 -7 17 10 16 -24 2 -3
1532257371238207 -3 4 -3 -6 -1 25 6 -11
1532257371276105 1 20 14 1 -7 16 -9 -10
1532257371320985 -3 -11 -26 7 7 15 5 -21
1532257371334959 -3 -17 3 5 8 4 -5 -27
1532257371439668 2 20 11 -1 -6 -2 -4 -36
1532257371500506 1 3 20 -5 6 4 5 48
1532257371551370 1 1 22 4 1 -1 -1 4
1532257371620185 1 1 -2 1 3 -5 3 18
1532257371725903 -4 -15 7 2 3 21 12 14
1532257371800702 0 -5 15 0 -3 5 7 10
1532257371905423 -2 0 12 -2 -2 2 -1 3
1532257372113865 -2 -2 -21 2 0 0 -4 -4
1532257372214598 -2 -4 -6 -3 1 4 -3 -7
1532257372274447 4 7 16 2 -1 9 -2 -1
1532257372340260 1 6 -1 -2 1 -18 1 3
1532257372534740 -2 -5 -2 -1 -3 -2 0 1
1532257372545710 -2 -1 1 -1 2 -1 2 -10
1532257372617518 -8 -11 -11 -10 -5 -2 -3 -30
1532257372677358 7 13 3 1 8 -8 3 19
1532257372722238 -1 -30 -1 12 19 -7 0 -4
1532257372782078 -2 7 5 8 7 5 2 -9
1532257372939657 -2 -3 0 -3 0 3 1 -1
1532257373001498 -2 -12 -4 -6 -11 -3 -4 -4
1532257373061332 -1 13 0 1 -2 0 -1 5
1532257373097235 2 -3 5 3 4 0 1 -1
1532257373165054 -2 0 -1 3 7 -3 -2 -3
1532257373239854 1 -8 -2 -5 -10 -4 16 1
1532257373293713 0 -7 5 7 8 0 44 2
1532257373442315 -2 81 -1 1 -2 1 37 -8
1532257373457273 14 -15 -6 -2 2 2 -23 34
1532257373502170 -8 -8 -8 -1 -4 -7 41 13
1532257373518114 30 59 9 0 0 2 -42 13
1532257373541064 -20 -18 -4 -1 -4 -19 -49 -23
1532257373570969 17 -15 4 5 4 1 14 7
1532257373614851 16 24 11 1 1 -5 -5 2
1532257373698627 -15 -75 -11 -6 -2 -12 16 -4
1532257373765449 19 -19 -6 57 19 7 12 15
1532257373803347 3 8 3 -6 -4 1 11 32
1532257373825289 1 -12 -6 -7 0 -4 10 -9
1532257373848227 19 19 4 -8 -2 8 18 -15
1532257373944969 -6 -13 7 4 5 9 41 4
1532257373955940 0 1 -5 -1 4 7 31 -45
1532257373990846 3 -6 -2 -3 -2 4 24 8
1532257374012787 -2 15 3 0 -3 -3 -35 20
1532257374042707 -3 38 -9 -7 -5 6 81 9
1532257374065645 9 22 9 3 6 6 25 12
1532257374079608 7 -14 2 -2 0 0 3 -4
1532257374127480 12 29 14 6 2 -7 -41 -5
1532257374148425 -10 -22 -9 2 1 1 60 -9
1532257374170366 1 8 -1 2 -2 -5 -43 -4
1532257374199288 5 -8 -17 -3 -1 0 -16 7
1532257374238185 -5 -10 6 1 -1 -3 2 -16
1532257374254142 1 25 9 1 2 -1 -13 -3
1532257374283065 6 51 -11 2 -2 -1 2 9
1532257374318969 -1 87 17 2 1 55 27 3
1532257374404739 6 36 61 3 2 2 -7 -2
1532257374545363 -22 -22 -40 -7 -4 -22 -4 -13
1532257374666040 7 -4 14 0 -4 -7 -4 -10
1532257374756798 5 -29 -77 -4 -5 -2 -18 -3
1532257374769763 -14 -2 -12 4 -1 -4 1 -7
1532257374787714 39 24 -3 -4 1 1 36 21
1532257374830600 21 2 15 3 0 1 6 10
1532257374868499 11 -8 -5 -2 -4 9 -4 22
1532257374898419 -36 16 -3 -1 -2 24 -3 -22
1532257374935334 7 -4 11 -1 -9 -5 -6 -36
1532257374973219 -2 -2 -4 -1 -1 15 74 17
1532257375085918 16 -17 -13 -14 -6 -1 66 3
1532257375145758 11 8 -69 -5 -2 -3 -3 -16
1532257375167700 -16 -6 13 -5 -1 -5 -70 -12
1532257375204600 -9 -9 -11 -3 3 1 6 -5
1532257375211581 -3 4 -61 -11 -5 0 10 -4
1532257375265438 18 4 9 -1 0 -1 4 10
1532257375295358 40 -82 8 3 3 -1 -2 -5
1532257375355197 2 16 3 2 -1 1 -22 -60
1532257375392099 -36 -25 -5 -3 -2 -2 20 26
1532257375422019 -14 62 31 -3 -5 -2 1 -9
1532257375444958 20 21 5 15 5 3 37 36
1532257375481859 -1 -16 -21 -20 -10 -2 11 -2
1532257375490836 -22 -56 95 29 9 2 19 2
1532257375511779 13 4 27 9 -6 0 2 -5
1532257375550675 -10 10 -47 -14 -2 0 6 8
1532257375564637 -5 -1 -8 -4 -4 0 3 0
1532257375588573 -4 3 -30 13 1 -1 7 2
1532257375670355 -12 33 14 0 -4 0 4 -19
1532257375684333 -4 10 23 2 2 0 0 -2
1532257375715234 -7 -32 -7 -5 -1 1 -2 -7
1532257375730196 -79 -45 20 0 1 2 1 -3
1532257375753137 -76 15 -12 -1 3 19 36 -12
1532257375790035 23 -4 0 -4 -13 -9 -86 -24
1532257375828931 15 10 8 -3 -1 0 33 36
1532257375863837 -14 6 -9 -5 -9 -12 -37 -12
1532257375918691 -7 6 -1 -2 2 -2 1 12
1532257375947613 -14 -11 2 -2 -6 -3 6 8
1532257375970552 -10 -78 -8 18 9 2 9 -4
1532257375993493 6 -6 4 0 -2 -2 -16 0
1532257376009448 5 14 3 3 -1 0 0 0
1532257376044355 -3 -92 -7 3 0 -2 -8 -2
1532257376090232 -5 40 1 -7 -7 6 2 4
1532257376128131 -5 -6 -5 -7 -2 -6 -4 -2
1532257376164035 -2 0 -11 6 1 1 0 0
1532257376210909 2 29 -15 1 0 0 -1 -2
1532257376247811 0 -7 25 2 -2 0 -2 -1
1532257376330589 16 -10 14 -8 -1 -1 -1 2
1532257376435309 6 22 27 -15 -5 0 -1 1
1532257376511106 30 -13 -50 2 -3 -3 3 -2
1532257376533048 2 -1 -15 17 -3 1 -2 -1
1532257376600867 -4 -2 36 7 8 18 6 -24
1532257376622808 -10 35 -5 5 11 7 -7 15
1532257376668686 26 -77 -13 9 0 -41 9 40
1532257376715560 -5 3 6 -26 2 7 2 -4

1532257376728525 5 14 82 26 8 -3 11 -6
1532257376773412 11 19 -50 15 -1 3 3 -1
1532257376786376 5 -3 -28 14 6 12 12 6
1532257376833263 -9 -20 -2 20 4 0 -6 -3
1532257376847226 0 -6 -65 -8 -1 -3 1 -2
1532257376870164 -16 -12 3 4 0 0 -1 -1
1532257376952943 0 -4 18 4 0 -2 1 -8
1532257376975881 7 -4 3 4 1 3 0 3
1532257377019764 1 10 9 0 3 1 8 -10
1532257377073621 1 2 2 2 3 2 0 14
1532257377086586 -6 12 16 -2 -3 -14 -4 -1
1532257377133520 0 4 -5 1 4 2 -6 -3
1532257377146484 -4 -1 -9 2 0 -1 0 -18
1532257377169424 3 -2 -24 1 2 -1 -1 12
1532257377223285 -7 -1 -69 0 -2 -3 -9 -31
1532257377253206 6 1 -39 1 -3 1 5 21
1532257377276157 -4 0 -13 -1 0 -1 -4 3
1532257377372885 -1 4 16 2 2 1 -1 -9
1532257377431728 -7 -7 -8 0 -3 -2 -1 -28
1532257377477272 3 1 0 -2 0 -2 1 22
1532257377515170 -16 -3 -43 -1 -1 1 -1 1
1532257377544094 -2 -2 9 1 0 2 2 4
1532257377576007 2 -5 0 1 0 0 1 -20
1532257377589970 5 -2 4 0 -1 -1 4 26
1532257377635848 -6 5 -6 0 1 7 -1 -2
1532257377680728 -2 -3 6 2 3 0 4 -20
1532257377716632 -1 11 69 8 4 5 2 -9
1532257377754530 1 14 -21 -1 -3 -6 -6 -39
1532257377779464 5 -16 -54 0 -1 -9 -3 19
1532257377847297 -9 -75 -32 -5 0 -16 -10 -24
1532257377868226 -11 -40 -9 -3 8 -10 -19 -32
1532257377889170 -12 -1 -102 -11 -1 -5 -11 -27
1532257377956989 0 -13 96 14 1 -13 6 12
1532257378040765 -3 -28 28 3 2 0 -1 7
1532257378063704 27 25 54 26 14 8 1 4
1532257378093623 -6 29 -9 -14 -10 -6 1 2
1532257378115565 3 -10 2 13 7 5 0 2
1532257378129527 -8 -16 34 16 10 0 -2 -2
1532257378153463 5 17 -43 1 0 -5 -1 -1
1532257378175405 2 5 18 -4 -2 2 -1 0
1532257378212306 4 2 6 2 14 4 -1 0
1532257378258196 0 6 -7 -1 -6 -3 -2 0
1532257378296084 2 2 16 1 -5 -3 -1 -1
1532257378355937 -5 4 10 -1 -4 -1 -1 -2
1532257378415762 -2 -12 -7 -4 5 -2 -1 -1
1532257378512503 10 59 4 8 5 8 8 9
1532257378535450 1 6 12 7 -1 -3 -10 -5
1532257378595282 2 46 8 3 -3 1 -3 5
1532257378678061 -8 -33 0 -9 -8 0 1 -6
1532257378836640 1 16 -6 -3 -2 -3 4 22
1532257379157778 -5 9 12 0 0 5 1 -5
1532257379277457 1 -1 1 0 -1 -1 0 -3
1532257379337298 -3 -1 1 -3 1 17 0 -7
1532257379554720 3 6 1 1 1 -4 5 3
1532257379653453 -1 -3 -5 -13 -2 1 2 1
1532257379723281 0 -2 2 -4 1 0 2 4
1532257379773133 -1 8 3 0 -1 1 -1 2
1532257379817015 -1 -3 -11 -4 -3 -4 0 -7
1532257379854914 0 6 -1 -1 19 8 2 -3
1532257379937692 -4 -16 -6 -13 -19 -10 -6 -15
1532257380328648 -3 3 27 -1 -13 -3 -1 -2
1532257380500188 4 27 6 9 -6 0 59 3
1532257380792407 -2 16 3 3 -4 0 19 1
1532257380868204 6 -15 -10 -10 -8 -7 7 -4
1532257380920065 7 -10 -2 6 6 6 -14 3
1532257380943004 -6 -34 0 -1 -3 -11 1 5
1532257380956967 -2 -20 6 0 0 4 15 8
1532257380979905 -2 18 3 1 2 5 15 -13
1532257381010823 2 -16 -3 -4 -1 1 38 0
1532257381063681 15 -6 11 4 1 -5 -10 1
1532257381076648 11 7 10 7 2 9 34 1
1532257381139479 5 11 6 6 1 6 38 22
1532257381176387 -4 -30 9 5 0 -7 -23 -3
1532257381205303 -16 -45 -23 -10 -6 -1 -4 -19
1532257381245196 -27 -26 -2 3 3 4 17 -8
1532257381266140 7 81 -3 -1 0 4 -13 2
1532257381279105 8 18 -4 -4 -1 -1 -6 13
1532257381303041 -13 -41 -9 -4 -4 -3 -19 50
1532257381332964 36 41 22 6 6 26 34 -18
1532257381346924 2 -31 0 -1 -4 -5 17 -5
1532257381385820 -1 -9 -5 0 0 -3 45 9
1532257381430700 -24 -37 -21 -2 1 -10 -58 -54
1532257381455649 -9 -18 -15 -11 -5 -6 -16 -13
1532257381505500 10 0 3 -1 -5 -4 -16 -2
1532257381519478 1 -6 3 2 1 -2 -5 12
1532257381543398 -6 0 -11 0 4 2 -6 -8
1532257381565340 2 10 8 0 -2 0 -15 0
1532257381594263 0 24 -7 -2 1 -1 -3 -4
1532257381644128 0 -5 4 1 -2 -4 -8 -2
1532257381751850 0 31 -22 -1 -2 -1 -1 -2
1532257381776774 2 33 -10 3 1 2 0 0
1532257381783755 -4 -25 34 -5 -1 5 6 -2
1532257381829633 -11 18 -1 -2 -2 0 1 0
1532257381887478 1 0 47 11 2 0 -2 -2
1532257381949313 7 10 -4 -4 -3 -4 -3 4
1532257381994193 -19 -15 -79 0 1 -9 -11 9
1532257382031094 -91 2 38 -5 -5 -26 -34 -19
1532257382105894 31 -33 4 13 7 2 -8 -1
1532257382165734 -46 11 -8 3 1 1 -9 -5
1532257382195655 25 -1 -12 -2 -4 0 6 17
1532257382315334 45 15 -4 0 1 -19 -11 6
1532257382331292 -7 -1 2 0 1 -9 -2 -11
1532257382368193 -55 -13 -4 -2 -2 -11 33 30
1532257382406091 -23 20 -5 8 6 5 -5 1
1532257382428033 23 -1 1 -3 -2 -5 5 34
1532257382487872 -21 13 -11 -2 -2 1 8 4
1532257382501836 -9 -5 13 1 -3 0 14 -1
1532257382525771 -4 2 -13 -19 -8 -4 3 -1
1532257382585612 11 -4 -60 5 6 3 8 6
1532257382608550 -38 7 30 5 1 -1 4 -2
1532257382645452 13 -10 -58 -3 -3 -7 -3 -6
1532257382668391 6 20 6 5 4 1 2 2
1532257382681355 -32 29 38 -4 -3 0 -7 -11
1532257382705291 24 -37 17 2 0 0 10 0
1532257382742193 5 39 7 6 5 12 16 63
1532257382765131 -38 -25 -7 -3 -2 -10 -3 38
1532257382788070 13 9 5 5 1 -7 -22 10
1532257382802033 31 -18 0 -1 -4 -2 -1 -11
1532257382825969 -6 -10 -2 3 4 4 -6 -39
1532257382861873 62 8 2 -15 -4 0 2 6
1532257382870861 11 -11 -23 21 12 3 -9 20
1532257382893788 13 -16 8 -3 -3 -2 6 -6
1532257382921713 5 24 7 -1 1 2 0 -8
1532257382944651 -15 7 -51 -7 0 -2 -2 -6
1532257382996516 -5 22 76 5 0 -1 0 -5
1532257383043387 20 6 34 -4 -2 -3 -5 -4
1532257383071313 12 -35 -12 1 0 0 2 3
1532257383102230 7 14 6 3 4 2 -3 -7
1532257383125169 -17 22 -12 0 4 1 -1 -7
1532257383148107 1 -7 -25 -8 -4 -1 -2 10
1532257383185009 16 -19 -3 3 -2 -2 -1 12
1532257383207947 -17 -11 0 -5 -4 -5 6 11
1532257383230886 7 -23 -6 -1 1 3 -8 12
1532257383290726 26 -29 4 -1 -1 -2 -5 5
1532257383304688 -10 -26 -3 0 2 -1 -4 3
1532257383327627 -5 -52 0 4 1 0 6 0
1532257383350573 -30 10 -1 -4 -3 0 7 -3
1532257383364528 34 3 -5 -4 -2 -1 2 29
1532257383388477 19 52 -4 -1 -1 -2 1 7
1532257383410406 10 -37 1 -1 0 -1 -7 2
1532257383424369 -6 9 -6 2 -2 -1 -8 -9
1532257383448304 -1 33 -2 2 -7 2 1 0
1532257383484208 -1 5 -3 -6 -3 -1 -3 -4
1532257383531083 -5 -1 4 -13 5 2 0 -3
1532257383553024 -5 25 24 -16 1 1 -1 -2
1532257383606884 -5 9 6 9 1 -1 0 -2
1532257383634806 18 9 20 -1 -1 -1 1 3
1532257383652758 1 -5 10 11 1 2 1 -1
1532257383688662 -3 1 2 -3 0 -1 -1 -5
1532257383724566 -10 -15 5 4 1 -1 0 -3
1532257383748502 -9 -19 39 2 0 0 0 0
1532257383770443 3 -17 1 -2 -2 1 -1 -2
1532257383793395 -6 -7 -98 0 -1 2 -2 2
1532257383809339 -7 5 32 -5 0 0 2 -1
1532257383853222 3 20 12 10 -1 0 -1 1
1532257383868182 2 18 -35 -5 -1 0 -1 0
1532257383893115 -8 2 31 2 -2 -1 0 6
1532257383913061 -9 -9 -15 -8 -1 -2 -3 -3
1532257383935015 12 15 20 3 -2 0 1 -6
1532257383968913 2 -7 40 0 0 -2 0 6
1532257383987862 15 -12 44 6 2 1 -2 1
1532257384010801 10 -11 -6 -10 -3 -1 -1 -3
1532257384033739 -21 25 -2 3 -4 -3 -12 -2
1532257384071638 -5 -28 -14 3 -2 -3 -2 5
1532257384093579 -18 -30 10 -9 -3 -8 -1 -21
1532257384107542 -2 4 -7 -4 -4 -62 -15 10
1532257384177355 23 66 5 -9 5 10 -8 -7
1532257384197302 -24 -8 23 -25 -6 -2 6 6

1532257384236201 -2 -31 -9 14 2 -2 0 -3
1532257384273098 -11 -1 28 -4 -3 -11 -3 -1
1532257384287062 11 6 -47 -6 -1 9 2 -28
1532257384296038 12 -9 -14 7 1 -1 1 7
1532257384340917 -17 2 3 -1 0 3 -1 0
1532257384362859 -3 -5 -1 0 -2 4 -1 -2
1532257384399760 0 -3 -1 2 -1 2 -2 0
1532257384440660 3 6 3 0 2 3 -1 -3
1532257384475558 0 16 3 1 1 -1 2 1
1532257384505478 2 -6 -8 -2 -2 -1 -1 -6
1532257384528416 -2 -8 1 0 0 2 0 -2
1532257384535398 1 -9 0 0 3 -2 2 -8
1532257384552364 2 -5 0 -1 -3 0 -2 3
1532257384595318 4 -1 0 1 -1 1 1 2
1532257384612286 0 5 4 0 -2 -1 2 2
1532257384671115 -1 -4 -1 -1 -2 -1 -1 1
1532257384707019 -8 -6 0 6 1 0 0 1
1532257384736939 1 8 5 18 1 -1 -1 1
1532257384761872 -5 -2 3 4 2 1 0 -3
1532257384784811 -3 0 -1 -10 -2 -1 -1 -3
1532257384804773 -2 -9 -4 -3 1 0 -2 -1
1532257384814731 -2 0 0 -2 -1 -1 -2 0
1532257384849637 -3 -1 -1 2 -1 0 0 0
1532257384873573 0 16 -2 -1 0 0 -2 -2
1532257384886539 3 -3 0 -5 -3 -3 -1 0
1532257384933413 -2 1 -1 -1 1 -1 0 -1
1532257384993253 -1 -7 -2 1 3 9 0 -1
1532257385037136 1 5 3 -2 -1 -2 1 0
1532257385054091 1 -2 1 -3 -2 -3 -1 0
1532257385112933 -3 6 -4 0 -3 -13 -1 0
1532257385149835 -3 12 -6 -2 -3 -5 -1 -2
1532257385156816 -2 7 -14 -2 -2 -8 1 0
1532257385201695 3 0 -6 -2 -2 0 3 3
1532257385240592 3 -2 1 0 2 5 -1 1
1532257385285472 1 -3 -4 0 -2 -14 -1 -2
1532257385324368 -3 3 -1 -2 -1 8 -2 -3
1532257385375232 -5 6 42 2 2 7 2 -2
1532257385390192 -5 2 29 6 4 9 1 -2
1532257385450032 17 5 0 0 -4 -23 8 27
1532257385532811 -2 -15 5 -1 12 82 20 11
1532257385697370 -4 -22 -28 -8 -5 -1 1 -7
1532257385757211 2 12 -32 -17 -7 -4 -5 -12
1532257385841985 -4 -23 -29 -10 -12 -3 -2 -2
1532257385922768 2 43 35 -4 12 2 0 0
1532257385952688 -8 -28 9 1 1 -1 -6 -11
1532257385997570 1 30 24 1 -8 -3 -1 1
1532257386057408 5 -11 -2 -3 -4 2 3 0
1532257386074362 -2 -11 -15 -1 2 -1 -2 -14
1532257386155146 0 24 24 -7 -8 -8 -7 -4
1532257386222964 -7 3 9 -4 -7 -2 5 -5
1532257386282805 8 -19 27 -1 3 4 -1 68
1532257386335673 -1 -10 -16 -7 0 2 -4 -19
1532257386379546 6 3 -27 0 -2 4 6 30
1532257386611925 4 10 55 0 -4 -4 -1 15
1532257386922095 2 0 -14 -5 5 -3 -2 2
1532257386987920 1 -1 -33 -3 4 -1 -3 -45
1532257387100618 -11 1 57 5 -2 0 -15 -52
1532257387137519 -2 -4 22 10 4 1 1 6
1532257387160458 2 9 41 3 -4 0 0 7
1532257387354938 2 -13 5 1 -2 2 -1 -3
1532257387602277 0 13 1 -9 0 2 13 50
1532257387686053 -1 -31 -22 3 -3 2 5 6
1532257387731930 0 13 35 1 -1 0 2 16
1532257387767834 1 13 51 -2 3 1 1 -6
1532257387820693 3 -6 -3 2 6 5 3 9
1532257387940372 1 -15 -32 5 13 3 1 17
1532257387977274 0 2 -39 -10 -15 -3 0 5
1532257388000212 -2 -15 -21 -9 3 -5 3 7
1532257388023150 3 4 -21 -3 -3 1 -3 -2
1532257388037114 -2 0 -13 0 -3 -5 -3 6
1532257388053071 0 2 8 0 2 0 -3 -3
1532257388105930 3 12 5 -3 -12 -4 -3 1
1532257388156794 -3 0 15 7 10 5 0 -1
1532257388225610 -3 -6 -3 -4 -3 1 -1 -5
1532257388270490 2 0 3 4 -2 -1 3 1
1532257388347284 -4 21 29 3 0 1 0 2
1532257388406127 9 37 1 2 4 -5 -6 -5
1532257388503866 5 49 8 -2 -2 -18 5 -14
1532257388587642 7 -56 10 5 2 2 3 2
1532257388607588 8 -33 7 4 8 26 123 26
1532257388630527 12 -15 -5 -3 -6 -17 -86 5
1532257388696351 -22 -9 -16 -8 -7 -2 -41 -14
1532257388720287 -36 -35 -15 -3 -1 10 -10 -33
1532257388767162 -7 15 -15 -8 -5 -9 10 -7
1532257388832985 18 -31 11 7 5 7 15 -36
1532257388839967 -12 -21 2 3 0 2 30 12
1532257388961641 8 11 -8 -7 -4 -7 -9 7
1532257388983583 -3 -15 -13 -2 -1 5 -3 9
1532257389019487 -14 -16 -10 -2 2 24 99 -2
1532257389028463 15 44 11 0 -4 -13 -34 18
1532257389044420 -4 -20 -11 -3 1 -1 41 -16
1532257389088303 -16 -45 4 4 1 -5 14 -15
1532257389133183 4 8 11 2 4 0 -43 13
1532257389164100 -3 -1 6 1 -5 -14 -60 -71
1532257389193022 -8 15 -1 -5 -7 -5 -22 14
1532257389221946 6 30 -3 -4 -2 -3 -52 6
1532257389251875 2 75 2 0 0 -3 11 17
1532257389305721 -13 -36 -14 -6 -1 0 56 6
1532257389335642 3 5 -2 -2 1 1 32 6
1532257389365561 -19 -35 -12 -5 -2 2 5 9
1532257389410441 2 -3 -15 -1 0 0 -17 5
1532257389457316 -2 20 -10 -4 -2 -1 -6 1
1532257389473273 -8 -54 -29 -4 -1 -4 -4 1
1532257389493219 8 40 52 2 -2 1 4 3
1532257389531119 -2 13 -90 -1 -2 -2 -3 -5
1532257389576996 -3 -29 7 5 -1 1 1 -3
1532257389666755 -95 -20 16 -1 -3 -5 -5 -15
1532257389868217 -10 -13 -19 11 3 0 0 -1
1532257389913097 1 5 19 -2 -1 2 10 1
1532257389942020 -17 1 16 4 0 -1 -4 -11
1532257389967950 -7 3 19 -2 0 1 -2 -5
1532257389971940 -9 -1 5 -2 -1 2 1 0
1532257390009839 30 3 -5 -3 -4 -8 0 -8
1532257390043748 31 5 1 -1 -1 -1 -9 32
1532257390065689 -35 -5 -1 1 1 2 -13 -6
1532257390085636 12 3 0 -3 -6 -15 -20 9
1532257390108575 -36 -12 -4 1 1 -7 -2 -6
1532257390130516 -2 2 1 -1 2 -1 1 -2
1532257390204318 -22 0 0 -5 -6 -2 -30 -7
1532257390268157 16 18 -5 10 2 -1 8 2
1532257390302070 29 -4 14 -1 -3 0 2 2
1532257390311044 7 -39 1 -2 -2 0 1 5
1532257390347934 -22 -4 3 -3 -3 0 -3 -9
1532257390407774 15 -51 -6 2 2 -2 4 8
1532257390445673 5 37 1 -2 -2 -5 -69 10
1532257390481576 11 27 1 -1 -1 2 7 3
1532257390496537 6 -32 -4 -1 -2 -3 -1 27
1532257390543412 -8 4 2 3 2 3 103 28
1532257390565353 -7 -2 -9 12 6 2 0 -9
1532257390626190 -27 -15 14 -15 -7 -5 -2 3
1532257390730910 -14 -8 -62 -1 0 0 -19 -14
1532257390827652 -33 -12 70 -4 -1 -5 -5 -43
1532257390873529 -56 -57 -9 -1 -4 -5 19 26
1532257390933369 -82 -6 -15 -4 -4 -2 -10 21
1532257390970270 -12 -17 -20 -2 1 -4 -37 -82
1532257390984233 -61 25 -3 -1 -6 -30 -18 -35
1532257391031107 -22 -14 -1 -7 -7 0 -15 23
1532257391126851 -78 -11 6 -3 -2 -4 -19 -38
1532257391164768 6 12 -2 -2 3 -1 -2 9
1532257391233566 -11 -3 0 -21 -7 -2 1 -6
1532257391330308 -1 -2 20 11 -3 -2 0 0
1532257391428055 -2 13 -34 -5 -2 1 0 -3
1532257391463950 0 -7 5 -5 -1 -1 0 1
1532257391487886 3 -17 2 -1 -2 -1 -2 0
1532257391555704 45 -4 -23 -10 -1 1 -1 -2
1532257391578643 -7 12 20 20 1 -1 0 3
1532257391616542 -16 -24 16 -3 -2 1 -1 -2
1532257391646461 -3 40 12 -2 1 -1 1 -1
1532257391690345 -12 -7 -1 0 1 0 1 0
1532257391720269 1 -2 -35 -6 -4 -6 -11 3
1532257391743204 -3 16 -27 1 -4 2 17 5
1532257391810025 -63 -1 8 1 -10 -42 5 -21
1532257391832963 23 -6 41 -13 3 13 -9 7
1532257391876846 8 8 45 -9 -1 0 7 -3

1532257391907763 3 -3 8 -11 -7 1 7 10
1532257391930702 -18 -18 -21 1 -2 -1 -3 1
1532257391967603 13 -38 -5 2 1 -5 -2 -22
1532257391975589 -5 15 0 -14 -7 -3 -4 -5
1532257392019465 1 8 2 25 7 4 0 8
1532257392044405 -1 -5 -2 -7 -2 0 1 -2
1532257392073326 8 6 -18 -6 -2 1 -4 17
1532257392133179 1 -6 -4 -2 -3 -4 0 -8
1532257392156118 -2 -7 -2 -3 -1 -1 -3 -8
1532257392200998 1 -1 -1 0 0 0 -4 -3
1532257392222939 2 26 2 -1 -1 -1 -4 8
1532257392252860 -4 -7 -1 -1 1 -2 -1 -4
1532257392266822 1 1 0 -1 -1 -1 -1 -3
1532257392313696 3 -1 -1 0 -1 -2 -1 -1
1532257392350599 -5 -3 -1 1 0 2 -2 -1
1532257392386503 6 -2 -2 -1 -2 0 0 -1
1532257392410438 -2 0 -1 1 0 0 0 -2
1532257392432379 0 0 -1 0 -1 -1 -1 0
1532257392492220 -2 5 0 0 3 0 1 -1
1532257392567019 1 -7 2 1 0 0 -5 -3
1532257392588961 -1 3 -2 -2 -1 0 -2 -2
1532257392612897 -2 -10 -1 1 0 0 -2 -1
1532257392634842 -3 2 -1 0 2 -1 1 -5
1532257392649803 -6 -3 -2 0 -1 -1 -3 -5
1532257392672737 4 12 0 -2 -3 -21 0 6
1532257392694678 -1 -7 -2 -2 1 7 0 -1
1532257392709638 2 -3 -1 -1 -2 3 -1 11
1532257392748542 -9 4 2 1 2 -3 3 -1
1532257392754518 7 2 -2 -2 -2 2 1 0
1532257392770479 -1 -1 -4 -1 -2 18 3 2
1532257392830315 -2 0 8 2 0 -2 -3 -7
1532257392852257 3 -5 0 -1 0 -2 -5 -3
1532257392875195 -7 -6 10 -1 -1 -6 -1 -2
1532257392921073 1 -2 2 -1 -1 3 -1 -6
1532257392949999 5 12 1 2 1 4 -1 17
1532257393009835 0 -6 2 0 0 1 -1 -10
1532257393040753 0 -19 -2 -1 0 3 4 4
1532257393079649 2 8 4 0 -1 -1 0 1
1532257393100593 4 -7 -6 -1 -2 1 -3 -11
1532257393115559 -4 -5 -1 1 0 1 -1 -2
1532257393152454 -1 3 -2 -3 -4 -3 -1 6
1532257393175393 2 -18 -25 -7 -3 -17 -1 7
1532257393197334 2 4 -8 1 -2 -2 -4 8
1532257393235243 -2 -2 -1 -1 -3 1 0 -1
1532257393295083 1 5 1 -3 0 0 -2 -5
1532257393354923 -2 1 -12 1 -1 1 0 -5
1532257393415262 -1 -7 8 2 2 -2 1 5
1532257393489065 -3 -17 0 -2 -5 -99 34 -43
1532257393512004 -7 12 1 -1 6 67 -4 -7
1532257393534943 1 32 0 -2 -3 25 -38 -14
1532257393571844 11 15 -73 -2 0 -3 2 21
1532257393619716 -7 -15 79 0 0 7 -8 -5
1532257393624702 6 0 -84 7 6 -2 1 10
1532257393654633 -2 -6 -2 -12 8 2 -2 -6
1532257393738399 -9 -46 -39 -10 -6 -6 5 -30
1532257393775300 -1 -1 10 0 -8 -1 -3 4
1532257393805220 -6 -4 -11 -8 -3 -3 -1 -4
1532257393866056 2 -2 -3 1 -4 -1 1 -1
1532257393917919 3 3 3 -3 -10 -7 -2 2
1532257393954820 -1 8 6 8 8 2 0 0
1532257393977758 0 -39 -23 -7 1 1 -1 -4
1532257394014660 1 44 24 -2 -4 -8 -5 -3
1532257394074512 4 23 31 10 2 -3 -1 0
1532257394180217 -2 45 -23 0 -1 -10 3 -29
1532257394218133 -7 0 0 1 0 2 -1 -21
1532257394353752 1 3 -20 4 0 -8 10 19
1532257394428552 6 8 12 2 0 -3 -4 -10
1532257394697832 -2 0 11 -3 -2 -3 0 1
1532257394750691 0 -3 -1 0 5 -10 4 -3
1532257394794574 0 4 -1 3 5 2 -8 -19
1532257394985064 -1 2 -7 0 5 9 0 -5
1532257395260328 -1 1 -1 0 -2 -2 0 -1
1532257395381006 -2 3 -2 -2 -2 -1 -1 0
1532257395417908 -3 3 -6 -4 -2 0 -1 -1
1532257395470766 0 10 3 0 1 9 -3 -7
1532257395510659 -8 -7 0 -1 -1 -20 -4 -36
1532257395530605 1 -5 -2 -4 0 2 0 5
1532257395537587 1 25 2 3 5 -1 3 4
1532257395583465 -3 -13 -2 3 2 -4 0 -12
1532257395596430 -4 4 -1 0 -3 -1 0 5
1532257395656276 -1 -11 -4 -2 -5 5 -1 -7
1532257395680212 -1 2 1 -2 -8 -3 -1 -1
1532257395771966 2 4 5 4 0 0 -1 3
1532257395800889 -2 12 1 -2 0 -5 -2 -5
1532257395852751 -1 -9 -8 -5 -3 2 1 -1
1532257395890649 -1 -2 -1 -2 -1 16 1 0
1532257395897630 -1 8 4 2 -6 1 -3 -4
1532257395943508 2 -1 3 0 2 -1 -2 -2
1532257395965449 0 -9 0 -2 1 -2 2 2
1532257396019322 -3 -2 -4 -4 -7 -4 -2 -2
1532257396040249 -1 4 -2 -1 -4 -3 -2 1
1532257396132003 2 -15 -4 -3 -2 -4 -2 -1
1532257396161923 -3 1 9 2 0 3 1 1
1532257396265647 1 3 10 2 -3 0 0 1
1532257396316510 -3 -12 4 -2 -1 1 -1 0
1532257396424223 2 8 9 -3 -1 0 -20 -7
1532257396468105 -8 -28 -8 4 4 18 69 11
1532257396627695 -3 5 10 1 3 7 16 10
1532257396709475 -4 -17 -9 -8 -8 -28 -37 -29
1532257396736403 2 23 10 6 3 15 12 -1
1532257396895977 3 -3 6 -1 -3 -11 -57 -2
1532257396940856 -9 -32 -4 1 4 10 3 -15
1532257397007678 -10 58 1 2 2 3 -7 9
1532257397022638 -5 -61 -9 -4 -4 -9 -20 13
1532257397068523 -2 -16 -14 -3 -3 0 -5 -12
1532257397105417 11 0 20 7 4 1 25 37
1532257397150297 -7 36 -14 -5 -4 1 13 -36
1532257397210136 -1 17 -4 -1 -1 -1 -12 -9
1532257397234072 -12 -45 -9 -2 0 9 72 -36
1532257397276957 -1 21 0 -3 -6 -5 9 2
1532257397298899 -2 15 12 5 1 3 -51 -6
1532257397322836 -6 -51 -2 -1 -1 -1 27 21
1532257397345773 -1 -1 11 2 0 5 21 7
1532257397382676 14 -3 3 1 2 -1 7 -10
1532257397428552 -16 -24 -1 0 2 2 2 -18
1532257397442515 -2 -3 -4 0 -1 0 7 5
1532257397489390 6 8 3 0 -1 -2 1 1
1532257397512328 -4 -5 -1 -1 -4 -5 -5 2
1532257397563192 -4 -40 -8 -4 0 0 10 -2
1532257397586148 2 -40 115 -1 -3 -4 -2 3
1532257397631011 -7 -20 5 0 0 -6 -1 2
1532257397660930 -7 2 -6 -6 -2 4 -3 1
1532257397690851 0 0 -28 12 5 8 -2 -13
1532257397711795 -6 12 -54 -2 -2 20 1 -1
1532257397738737 -40 -9 -14 -4 -15 -47 -11 -8
1532257397752686 -9 -9 1 -10 -6 -19 -7 -10
1532257397802552 -21 -29 -36 -9 -6 -35 -3 25
1532257397834468 94 16 9 2 6 9 -4 10
1532257397861395 -12 14 38 -8 -6 -7 8 -19
1532257397885345 16 -3 59 -9 -7 -5 -41 -2
1532257397968144 -18 -2 -32 4 0 0 1 -6
1532257397982073 6 -2 -29 0 1 -1 5 4
1532257398012990 12 29 23 -5 -5 -4 -36 1
1532257398027950 9 5 -25 -1 3 0 17 1
1532257398058867 -12 -5 -18 1 0 2 6 4
1532257398080809 27 16 22 0 -3 4 1 31
1532257398118707 -6 25 -10 -4 -4 -3 43 34
1532257398124691 28 23 3 1 -3 24 -33 9
1532257398148627 10 57 -7 4 3 -40 -78 -45
1532257398184543 28 9 0 2 2 24 24 -26
1532257398207469 3 -40 -9 -3 -3 -13 -16 -9
1532257398245368 54 -53 9 -8 -4 8 46 4
1532257398268324 -17 35 1 -10 -6 0 7 -1
1532257398410925 -5 8 14 -3 -1 -1 -2 0
1532257398470765 8 3 -4 1 0 -11 -20 -3
1532257398507673 -1 -6 4 1 1 -6 10 28
1532257398568505 3 -28 -3 -1 2 -5 -66 -63
1532257398598424 -19 -27 -3 -5 -6 -1 36 63
1532257398620366 20 6 3 9 4 6 -1 1
1532257398674221 30 -4 19 -3 -5 -3 3 4
1532257398688184 33 6 27 4 -2 -6 -2 14
1532257398711123 21 -10 38 9 3 -1 -3 -5
1532257398748024 -14 -6 -47 4 -1 0 -3 -8
1532257398770963 -6 3 14 -5 -1 -3 -5 -1
1532257398830803 4 12 -34 -1 -1 -3 8 -7
1532257398844765 42 -14 -58 -3 -1 0 -35 -13
1532257398860723 69 -33 -15 1 -1 4 6 8
1532257398896628 -28 15 -12 -3 0 -4 -40 -47
1532257398937517 -17 6 -11 0 0 -2 -31 2
1532257398950483 -7 -39 -11 -2 -2 -1 5 34
1532257399010323 -11 -10 -1 0 0 0 5 -37
1532257399033262 6 41 -2 -3 -4 -3 7 -23
1532257399107065 34 36 0 5 3 2 3 8
1532257399197821 -17 27 28 1 8 0 2 2
1532257399249683 7 8 12 5 -4 -1 2 0
1532257399286584 -6 -5 9 -5 1 0 0 -1
1532257399332461 0 3 -9 -16 2 0 2 -2
1532257399370360 -1 -10 -20 -7 0 1 0 -1
1532257399452152 4 10 -6 -5 5 2 0 0
1532257399476077 0 -2 4 7 1 0 0 0
1532257399490040 -4 -4 8 1 -2 1 -1 -2
1532257399534925 -21 25 -5 -3 -4 -1 0 -4
1532257399586781 -11 -17 19 -12 2 0 0 1
1532257399678535 8 3 -1 -5 0 0 -3 0
1532257399708455 4 16 -12 -5 4 0 2 3
1532257399715438 -11 30 14 2 3 1 1 2
1532257399754333 -12 -5 -19 -1 1 1 4 -1
1532257399827139 2 65 23 7 1 -2 0 -4
1532257399879996 -19 50 17 9 3 4 -4 57
1532257399909917 3 -30 6 3 3 7 7 35
1532257399949810 0 -19 14 2 2 9 -8 1
