1532261199229004 2 3 0 1 1 1 3 2
1532261199240961 3 2 3 6 -14 -14 1 1
1532261199282849 1 1 0 -9 18 46 8 2
1532261199303794 -3 -1 -1 -10 -22 -9 -7 -3
1532261199349671 -7 -5 -9 -15 -53 -36 -7 -8
1532261199440427 2 8 2 -7 -11 -70 -10 -2
1532261199482315 -4 -6 -6 -6 21 25 5 -5
1532261199512236 -3 1 -1 6 42 73 -6 -4
1532261199526198 -1 -3 -3 6 -45 -50 -4 0
1532261199572076 -2 -3 2 4 3 -8 0 1
1532261199586038 -5 -7 -10 -8 -6 -26 -5 -3
1532261199655858 -1 1 2 0 -5 2 -2 -1
1532261199672806 -1 15 -2 -1 46 46 -6 -5
1532261199716689 7 3 -3 -21 -71 5 5 5
1532261199753591 -3 -5 0 2 12 -19 -2 -1
1532261199788497 -1 0 2 5 9 2 -3 -1
1532261199825398 0 -2 2 2 -3 0 0 0
1532261199919148 -1 -1 -1 -2 -1 1 0 0
1532261199947073 -1 -3 -2 -1 0 -2 0 -1
1532261200015889 -1 0 0 -2 -3 -3 0 0
1532261200074732 -1 0 -3 2 0 1 1 1
1532261200247270 0 -2 2 -2 1 0 -3 -1
1532261200273201 -1 2 0 0 0 1 -2 -2
1532261200294145 -1 0 0 -1 -2 -2 1 -2
1532261200316086 1 0 -1 -1 1 -2 -2 -1
1532261200436763 -1 -1 0 -2 0 -1 -1 0
1532261200586379 -2 0 -2 -2 -1 -1 1 0
1532261200606310 -1 0 -1 0 -2 0 1 0
1532261200712028 0 -1 -1 1 -2 -1 -1 -1
1532261200825724 -1 0 0 -2 0 -1 -3 -3
1532261200845669 0 0 0 -2 -1 0 -1 -1
1532261200877585 -1 2 -1 -2 -1 -2 -3 -1
1532261200966347 -3 -2 -2 -2 1 -3 2 -2
1532261201035164 -1 -2 -2 -1 -2 -1 -1 0
1532261201267542 -2 0 -3 -2 -3 -2 0 0
1532261201290497 -2 -1 0 -2 -2 -2 -2 -2
1532261201358299 -2 -1 -1 0 -1 1 -1 0
1532261201381238 -2 -2 0 -1 -1 1 1 -2
1532261201402181 0 -3 0 -2 -2 -1 -2 0
1532261201420134 1 -2 -1 -1 0 1 3 -2
1532261201462035 -2 -2 1 0 0 -1 1 -1
1532261201491948 -3 -3 -4 -2 0 -3 1 -3
1532261201544800 -2 -2 -1 -3 -4 -5 -3 -1
1532261201588684 0 0 0 1 -1 -2 -1 -1
1532261201658496 -2 -1 -2 -2 -3 -4 1 0
1532261201680438 -1 0 0 1 1 0 1 -1
1532261201702380 0 -3 -3 -2 -2 -4 2 -1
1532261201723323 -1 -2 0 1 -2 -2 -5 0
1532261201771195 0 -1 -2 -3 -2 -6 -3 -1
1532261201777179 -1 -1 -2 -2 -1 -2 -1 0
1532261201822064 -2 -1 -1 0 0 0 -1 0
1532261201845001 1 1 0 -1 -1 7 1 0
1532261201866939 -3 -2 0 1 0 -1 2 -1
1532261201889878 -3 -3 0 -1 0 3 -2 -1
1532261201958694 0 0 -1 4 2 -3 -2 0
1532261201973654 0 -1 -1 -1 -1 -3 -3 1
1532261202032497 -2 -1 0 0 1 -1 1 -1
1532261202069398 -2 2 -1 1 0 2 0 1
1532261202099318 0 0 -2 0 -1 -6 -3 -3
1532261202122257 -1 -3 -2 -2 0 1 -2 -2
1532261202168134 0 1 -2 -2 -1 -4 0 -1
1532261202190087 -1 -2 -1 -1 -1 0 1 -1
1532261202212017 0 -1 -2 -2 -1 1 -1 -1
1532261202249915 -2 0 -1 -1 -1 -1 0 -1
1532261202264875 -1 -2 -4 -2 -1 -5 -2 -4
1532261202332701 0 0 -1 -2 -3 -5 -2 -1
1532261202361617 0 -3 0 -1 -2 0 2 -1
1532261202376576 0 0 -1 -3 -1 0 -3 1
1532261202423451 -1 0 0 -1 -1 -4 -2 0
1532261202491270 -2 0 -1 -1 -3 -1 -1 -1
1532261202527173 -2 -1 -1 -1 -1 -1 1 1
1532261202556096 0 -3 1 0 -1 -2 -1 -1
1532261202609952 -3 -1 -2 0 -2 0 -1 -1
1532261202954032 1 -1 -1 -2 -1 -2 -2 -2
1532261203046784 -1 -2 0 2 -2 -2 1 -2
1532261203068725 -2 -1 -2 -3 -4 0 -3 -2
1532261203141531 0 -1 -1 0 -1 0 -1 1
1532261203284150 1 -1 -3 -1 1 1 2 -1
1532261203360943 -2 -1 0 0 1 -2 -1 -1
1532261203381888 -1 -1 -3 0 -4 -4 -3 -1
1532261203426768 -1 -2 -3 -1 -2 -1 -3 -1
1532261203480624 0 0 -1 -1 0 1 1 1
1532261203510556 0 1 2 1 0 2 0 0
1532261203555424 -1 1 0 -4 0 -1 0 0
1532261203625236 -1 0 -1 -2 -1 -1 -2 0
1532261203646181 0 -2 -2 0 0 -2 -2 0
1532261203658149 10 0 -1 0 -2 -1 1 0
1532261203691061 -4 -3 -2 -3 -2 -1 2 -1
1532261203704026 -3 -2 1 0 1 -2 -6 -1
1532261203740928 -3 0 1 1 -1 -1 -2 -2
1532261203854624 -2 0 -3 0 -3 -2 -2 -3
1532261203879557 0 -1 0 0 0 0 1 0
1532261203916459 -1 -1 -3 -2 -3 -2 0 -1
1532261203936405 -1 0 0 -1 -2 -2 -1 -2
1532261203966325 -1 -2 -1 -1 0 -1 1 0
1532261203980295 -1 -1 0 -4 -2 1 1 -2
1532261204013228 -2 0 -2 0 -1 -3 -4 -1
1532261204066086 -1 -2 -2 -5 -3 -2 -1 0
1532261204110982 -1 -2 2 -1 -1 -8 -6 -1
1532261204133921 3 2 -1 -1 -1 3 2 -1
1532261204155862 0 1 1 1 -2 1 1 0
1532261204178786 0 -1 -1 -4 -3 0 2 -2
1532261204193745 1 -1 1 1 -1 0 3 1
1532261204214690 -2 -3 -1 -2 1 0 0 -2
1532261204229650 -2 -2 -3 -1 -2 -2 -1 -1
1532261204289495 0 0 0 1 -3 0 -1 0
1532261204311430 -1 -1 -1 -1 -2 0 0 -1
1532261204411172 0 -3 0 -1 -1 0 -2 -2
1532261204439097 -2 -1 -2 -2 0 -2 -3 -1
1532261204456052 -1 -2 0 -2 -1 -1 0 0
1532261204471012 -2 -1 -2 -2 -2 1 1 -1
1532261204483977 -2 -2 -1 -4 -4 -3 -3 -2
1532261204505919 -1 -2 -1 0 0 -1 3 -1
1532261204529855 -2 -1 -1 0 -2 0 -1 1
1532261204551796 -2 -2 1 0 -1 1 0 -3
1532261204643551 0 1 -1 -2 1 -1 0 -3
1532261204666494 -1 0 0 -2 -2 -3 -2 0
1532261204688431 0 0 0 2 -1 0 -3 0
1532261204710371 -1 -5 -2 -1 -1 4 2 -2
1532261204733311 0 0 0 0 0 -4 -2 0
1532261204746276 -1 0 -2 -1 0 0 2 1
1532261204769231 -1 -2 -2 -2 0 -1 -1 0
1532261204792153 -1 -2 -1 -1 -1 0 0 -1
1532261204822073 0 0 -1 1 -1 -1 -1 -1
1532261204942750 -1 -1 -1 -2 -1 -1 -3 -1
1532261204965704 -1 -1 -2 0 -1 1 0 -1
1532261204989625 0 -1 -1 -2 -3 -2 -1 0
1532261205013562 -2 0 0 -3 -2 -1 -1 0
1532261205031514 1 -1 -1 1 -2 1 2 0
1532261205116287 2 -1 0 -1 1 -2 0 -3
1532261205153188 -1 0 -2 0 -2 -1 0 -2
1532261205243946 -1 1 0 -2 -1 -2 -3 -2
1532261205288835 0 0 1 0 -2 -1 -3 -1
1532261205309769 0 0 -1 -1 -2 5 3 -1
1532261205369608 -1 1 -4 0 -1 -2 -2 -3
1532261205476338 0 0 -2 -2 -2 -2 -1 -2
1532261205497282 -1 -4 -1 0 0 -1 -2 -2
1532261205518225 1 1 -1 -1 -2 -1 1 -1
1532261205566107 0 0 -2 -1 -3 -1 1 -2
1532261205580062 1 0 0 1 0 0 -3 -2
1532261205631922 0 0 0 -1 -1 0 -3 -2
1532261205653863 -3 -3 -1 -1 0 0 -4 -3
1532261205692759 -1 -1 -1 0 0 -4 1 1
1532261205698744 -1 -1 0 -1 -2 -2 0 -2
1532261205821418 -1 -2 -1 -2 0 0 0 1
1532261205864300 0 -1 -2 0 -2 -1 0 -1
1532261205948077 -1 -2 -2 1 0 0 -1 -3
1532261206007918 0 1 -2 -1 -2 0 -2 -1
1532261206066761 0 -1 0 -1 -1 -2 0 -2
1532261206135576 -4 -1 -1 0 1 3 1 -1
1532261206187436 0 -2 -2 -2 -1 -1 -1 1
1532261206238311 -1 -2 0 -2 0 1 0 -1
1532261206332056 1 1 0 -4 -4 -2 -2 2
1532261206351000 -5 -2 -2 -1 0 2 0 -3
1532261206517553 0 -2 -2 1 0 -2 -4 -3
1532261206747938 -1 -1 -2 0 -1 -1 1 -2
1532261206840690 -1 -1 -2 0 -1 -1 -2 0
1532261207019213 -2 -2 -2 0 -1 0 1 0
1532261207048135 0 -1 -2 -3 1 -2 -2 -1
1532261207072070 -1 -1 -3 -1 -1 -2 -1 -2
1532261207101990 -1 -2 0 -1 -2 -2 0 -1
1532261207139890 -1 0 -1 -1 -2 -1 -1 -2
1532261207153853 -2 -3 -2 0 -1 0 -1 0
1532261207192748 1 3 0 1 -1 -1 -1 0
1532261207206711 -1 0 -1 -1 0 0 3 0
1532261207243612 1 -2 0 -2 -2 -1 -2 -2
1532261207274530 -2 0 -1 0 0 -3 1 1
1532261207297470 -1 -2 -2 -1 -1 -1 -1 0
1532261207325394 -2 -3 -1 -1 -1 -2 1 0
1532261207348333 1 -2 0 0 0 -1 -2 -2
1532261207366284 -1 -1 -3 -1 -2 0 -1 -1

1532261207463026 -4 0 -1 0 -1 -1 -1 -2
1532261207486962 -1 -2 0 -2 -1 -2 -6 -2
1532261207557772 -1 -1 0 1 -1 -1 1 -1
1532261207642545 -1 -1 1 -1 -2 -1 -4 0
1532261207664487 -2 -2 -3 0 -1 0 0 -2
1532261207687550 -3 2 -2 -1 0 0 -2 -3
1532261207694531 2 -2 -1 -2 0 0 1 0
1532261207741406 -1 1 0 -1 -1 0 -3 0
1532261207764344 -1 -1 -1 -2 -3 0 -2 -1
1532261207785288 0 -2 -1 -2 -1 0 -2 -3
1532261207820195 -2 -2 -2 0 -1 1 -2 -1
1532261207874051 -2 -4 -2 0 -1 -2 -2 0
1532261207896990 -2 -2 -1 0 -1 0 0 -2
1532261207918931 -1 -1 0 0 -1 0 0 -2
1532261207947853 0 1 -1 -1 -1 -2 -2 0
1532261207970792 -2 1 -2 -1 -1 -1 0 0
1532261207994729 0 0 -2 0 0 2 -2 -2
1532261208040617 -1 0 1 -1 0 -3 -1 2
1532261208064542 -1 -3 0 0 -2 -1 1 -1
1532261208077507 0 0 -2 0 -1 0 -1 -1
1532261208138351 0 -1 -2 -2 -2 -2 0 -2
1532261208174248 -1 -1 1 0 -1 -2 1 -1
1532261208226110 -2 -2 0 -2 0 0 -1 -1
1532261208272996 -3 -1 -1 0 -1 -1 -3 -2
1532261208295923 -3 0 -1 0 0 0 -1 -1
1532261208339806 -1 -1 -2 0 0 -1 1 -1
1532261208376707 -1 -2 -2 -2 -2 -1 -1 0
1532261208473449 -2 -2 -1 -1 -1 -1 1 -1
1532261208504365 0 -1 0 -1 0 -3 -3 -2
1532261208551240 -1 -3 -1 1 0 -2 -1 -2
1532261208572184 -1 -2 -3 0 -1 0 1 -2
1532261208595123 -1 -1 0 -1 -1 1 0 0
1532261208634019 -3 -1 -1 -1 -3 -1 -3 -1
1532261208652969 0 0 0 -2 0 -1 1 0
1532261208676905 -2 -1 -1 -2 -2 -1 -2 -1
1532261208729764 -1 -1 1 -3 -2 -1 -1 -1
1532261208759683 1 -2 -2 1 -2 0 0 -3
1532261208772648 0 0 -1 0 -1 -2 -1 1
1532261208805560 -2 -2 1 -2 0 0 1 -2
1532261208872395 1 1 -2 0 -1 -2 -2 -3
1532261208895320 0 -1 -1 0 2 -2 -1 0
1532261208909283 -2 -2 0 -2 -1 -3 0 -1
1532261208947181 -1 -2 -1 -1 -2 1 2 0
1532261208999043 -1 1 0 -2 -2 0 2 -1
1532261209013005 -1 -1 -1 -2 -1 1 1 -2
1532261209021981 -1 -1 0 -1 -1 -1 -1 -2
1532261209059880 -1 1 -1 -2 -2 -1 -1 -2
1532261209119720 -1 -1 -1 0 -2 -2 0 0
1532261209128696 0 -1 -3 -2 -3 1 0 -1
1532261209149641 -2 -2 -2 0 -2 0 -1 -1
1532261209209481 -2 -1 0 0 1 -2 0 0
1532261209249374 -1 -3 -1 -1 0 -3 -2 -1
1532261209305224 0 -1 -1 -1 -2 -3 -4 1
1532261209381022 -1 0 -1 0 0 -2 -1 -2
1532261209427896 -1 -1 -1 0 -1 0 -4 1
1532261209465795 0 -1 0 -1 -2 -1 0 -1
1532261209516659 -3 -1 -1 -1 -1 -1 0 -2
1532261209613399 -3 1 0 -1 0 -1 3 -2
1532261209639331 -1 -1 -2 -3 -1 -1 1 -1
1532261209659278 0 -3 -1 0 1 -1 -1 -1
1532261209729091 -2 -3 -2 -2 1 0 -6 -2
1532261209765002 -1 0 1 1 -1 -1 0 0
1532261209815859 -1 -3 -2 -1 0 0 -1 1
1532261209892653 0 -1 -2 0 0 0 0 -2
1532261209983410 -1 0 -2 -2 -2 0 -1 0
1532261210042255 -1 -1 -1 -3 -1 -3 -1 -1
1532261210102093 -2 0 -2 0 1 0 -1 -1
1532261210237730 0 -1 -3 -1 -1 -1 -1 -2
1532261210304552 -1 -2 0 0 -1 -1 1 -1
1532261210349433 0 -2 -2 -1 -3 -1 -1 -1
1532261210413261 -2 -2 -1 -1 0 0 -1 -1
1532261210463128 -1 -1 1 -1 0 -2 -3 -1
1532261210515987 -2 0 -3 -2 1 0 -5 -3
1532261210538925 -1 0 0 -1 -1 -2 0 -1
1532261210560866 -1 -2 -3 0 1 4 0 -2
1532261210574828 0 -2 -1 0 -1 2 -2 0
1532261210604749 0 -1 -3 -2 -2 3 1 0
1532261210617714 -2 -1 -1 0 -1 -1 -1 -1
1532261210626690 -1 -1 -1 -2 -1 1 0 -1
1532261210695506 1 -1 -1 -2 -3 2 -1 -3
1532261210738392 1 -1 -3 0 -2 4 -4 -2
1532261210816184 -1 -2 -1 0 0 2 -2 -2
1532261210853085 -3 0 0 -1 -1 -3 1 1
1532261210875026 -3 -2 -1 -1 -4 4 1 0
1532261210925891 -1 -1 -1 0 0 -1 2 1
1532261210978749 -1 0 -1 -1 -2 8 1 -2
1532261211125358 -1 -1 -2 0 -2 2 -5 0
1532261211133336 5 -1 0 0 -1 -1 -2 -1
1532261211166254 -2 -4 -1 0 0 -7 -2 -1
1532261211243042 -2 -5 -1 -2 -1 1 -11 -3
1532261211369703 -2 -1 -2 0 2 10 -1 -1
1532261211394637 -2 -4 -2 -4 0 9 -1 -1
1532261211466445 2 26 -1 0 0 14 5 2
1532261211519304 12 -5 -2 0 1 3 1 -1
1532261211645966 -3 -8 0 -2 -1 10 -1 -2
1532261211680879 -8 -37 -2 -1 -4 -24 -10 -2
1532261211690845 4 0 -1 -1 -1 9 2 0
1532261211706802 -4 -1 0 -1 0 -1 -3 -2
1532261211766642 -2 -1 -1 -3 -3 3 0 -1
1532261211902279 -1 1 -1 0 -2 -16 -3 0
1532261211926215 -2 -2 2 0 -1 9 -1 0
1532261211963116 1 -2 -2 -1 0 -5 -1 -1
1532261212203474 -2 -1 1 -2 -1 0 -2 -1
1532261212261319 -1 0 -1 -1 -3 -1 -1 0
1532261212435852 0 0 -3 -1 -2 2 -2 1
1532261212500680 0 -3 -2 -1 0 -1 -1 0
1532261212526615 0 1 1 -2 -2 -6 -2 -1
1532261212547555 -2 -2 1 0 0 -1 -1 -1
1532261212569495 0 0 -1 -2 -4 -6 -1 1
1532261212599415 -1 0 -2 -1 0 -1 0 -1
1532261212652274 -1 0 -1 -1 2 2 2 0
1532261212795890 -2 -1 -1 -2 -1 -2 -4 -2
1532261212801874 2 1 1 -2 -2 -1 0 0
1532261212839772 0 0 0 0 0 3 0 -3
1532261212953468 -1 -3 -1 -3 1 1 -2 0
1532261212974412 -2 -1 -1 -3 -1 -1 -6 -1
1532261213064172 -1 -1 0 1 -1 -3 -1 -1
1532261213109057 0 -1 -1 0 0 0 1 -1
1532261213131991 -1 0 -2 0 -3 0 -1 -2
1532261213229729 1 -1 0 -1 -2 -3 -5 -1
1532261213291565 -2 -2 -1 -1 -2 -14 -9 -3
1532261213298546 1 -1 1 1 -1 0 1 -1
1532261213335450 -2 -2 -2 0 0 1 0 0
1532261213352401 1 0 -1 -3 -1 -4 -1 -1
1532261213409250 -2 0 -3 -1 -3 0 -2 -2
1532261213567825 -2 -1 -2 -1 0 3 -3 -1
1532261213588769 0 -1 -3 -1 0 2 3 -1
1532261213649606 -1 -3 0 -2 0 -2 0 -2
1532261213679527 -1 1 -1 0 -2 -5 -2 0
1532261213702465 -1 -1 0 0 -2 4 0 -1
1532261213731398 -2 -1 0 -2 -1 -4 -1 -1
1532261213801202 -1 -1 -2 -1 0 -4 1 -1
1532261213874007 -2 -1 0 0 -2 -5 -4 -1
1532261213899937 0 -2 -1 -2 -2 -1 5 2
1532261213913900 1 3 -2 -1 0 2 -1 -2
1532261213936839 -1 -1 -2 -1 -1 -3 -2 -2
1532261213958795 -2 -2 -1 0 -4 -4 2 0
1532261214128326 -1 0 0 0 0 -4 -12 -1
1532261214184183 -2 -2 -2 -2 1 -2 1 -2
1532261214212112 0 -1 0 0 0 -2 -1 0
1532261214249005 -2 -3 -2 -1 -1 -3 1 -1
1532261214294881 -1 -2 -1 0 -1 8 5 1
1532261214385639 0 -2 -2 -1 -2 -6 0 -1
1532261214400599 1 2 1 2 -1 -5 -3 0
1532261214422554 -1 -1 0 -1 0 -3 0 0
1532261214488364 0 -3 -3 0 -1 0 -6 -2
1532261214579120 1 0 0 0 -3 -3 -1 -1
1532261214676860 1 -1 1 -1 -1 -2 -2 -1
1532261214702791 1 0 -1 0 -1 1 -1 -1
1532261214744678 1 0 1 -2 0 -16 0 -1
1532261214796540 -1 -1 0 1 0 -1 3 -2
1532261214880316 1 -2 -1 -1 -3 -3 0 -2
1532261214932177 -1 -1 0 0 -1 6 0 0
1532261214999995 -1 -2 -1 -1 -2 -2 -2 0
1532261215050860 -2 0 -1 0 -3 2 -3 -1
1532261215096737 -2 0 -1 -1 1 0 1 1
1532261215233372 -2 -3 -2 0 1 1 -4 -1
1532261215256310 -1 -1 -1 0 0 0 -2 1
1532261215280246 -2 -2 -2 0 0 1 -2 0
1532261215299196 -1 -2 -1 0 0 0 -1 0
1532261215337094 0 -2 -1 -1 0 1 -1 -2
1532261215395937 -3 -1 1 -1 -1 -3 -2 -1
1532261215486694 -1 1 0 -1 -2 -5 -4 0
1532261215534567 -2 -1 -2 -1 0 -1 -1 0
1532261215577452 -2 1 -1 -1 0 -1 1 1
1532261215614357 0 -1 -2 0 -1 1 1 -2
1532261215637292 0 -2 1 -1 0 -1 0 -2
1532261215651254 -1 -3 0 -1 1 -2 0 1
1532261215673196 -2 0 1 0 -3 -1 -3 -1
1532261215720070 -1 -2 0 0 -1 -2 1 -2
1532261215743009 -1 -3 -2 -1 0 -2 -3 -1
1532261215788897 -3 0 -1 0 -2 0 -2 -2
1532261215810827 -2 -3 0 -1 0 -3 -3 0
1532261215860694 1 -1 -3 -2 0 0 1 -1
1532261215878647 0 -3 -1 -1 -1 -1 1 -2
1532261215929510 0 -1 0 0 -1 1 -1 0
1532261215967409 1 0 -2 0 0 0 0 0
1532261216011292 0 0 -1 -1 0 -2 1 -1

1532261216088085 -2 0 0 -3 -2 0 0 -2
1532261216111025 1 -2 -1 0 0 -2 -2 -3
1532261216125985 -1 -3 -3 0 -2 1 2 -2
1532261216146929 -1 0 -1 0 -1 -1 1 -1
1532261216177340 -1 -2 0 -3 -2 -1 1 -1
1532261216199283 0 -1 -2 -2 -1 -1 -2 -1
1532261216229211 1 1 -2 -1 0 -1 1 1
1532261216273761 1 0 0 -2 0 1 -1 0
1532261216335595 0 -1 -1 -1 -2 0 -3 -2
1532261216372497 -2 1 -2 -1 1 -1 -1 1
1532261216386459 0 -2 -2 0 0 -1 0 -1
1532261216447304 -3 0 0 0 -1 1 2 -1
1532261216462257 0 1 -1 -3 0 -3 -2 -1
1532261216530075 1 0 -2 0 0 -1 -2 -2
1532261216582933 -2 -2 0 -1 -2 0 -1 -1
1532261216597894 0 -2 -1 0 0 -1 -2 -1
1532261216623825 0 2 -2 -1 -1 0 2 -2
1532261216643771 -1 -2 0 -1 -1 -1 -2 0
1532261216664715 -1 -2 -1 -1 -2 -2 0 -1
1532261216679675 -1 0 -1 -1 0 -2 -1 -1
1532261216701616 -1 1 1 -1 -2 1 -5 -2
1532261216739515 -2 -2 -2 0 0 1 -1 -1
1532261216762454 -1 -1 0 -2 -1 -3 -1 0
1532261216777414 1 -2 0 0 0 -1 2 0
1532261216837261 -3 -1 -2 0 -1 0 -2 -1
1532261216858198 -2 -1 -1 -2 0 -1 1 0
1532261216927027 1 -1 0 0 -2 -1 -3 0
1532261216947958 -1 -1 -1 -2 -1 -1 -2 -1
1532261216962918 -1 0 -1 0 0 -2 -1 0
1532261216981867 0 -1 -1 0 -1 0 2 0
1532261217003808 0 -1 0 0 -1 -1 -3 -2
1532261217030736 -1 -2 0 -1 -2 -1 -1 -1
1532261217061654 1 2 -3 0 -2 -2 -2 -2
1532261217099552 0 -2 -2 0 0 1 2 0
1532261217145430 -1 0 -1 -3 -1 -1 -1 -2
1532261217174352 0 -2 -2 -1 -1 -1 3 -1
1532261217197291 -1 -1 -1 -1 0 0 1 -2
1532261217219232 0 0 -1 -2 -1 -1 0 0
1532261217256134 -1 0 -2 -2 -2 0 -1 -1
1532261217378806 0 0 0 -2 -1 0 -1 0
1532261217429670 -2 -1 -1 0 0 1 0 -1
1532261217476544 -1 -2 -1 -2 -1 0 1 -2
1532261217498485 1 -1 -3 -2 -1 -1 0 -1
1532261217512448 0 -1 -1 -2 -2 -1 -1 -3
1532261217555348 -1 -3 -2 -2 -3 0 -4 -2
1532261217572288 -2 -1 -1 -1 -1 0 -2 1
1532261217609205 -1 0 -3 -1 -1 -3 -4 -2
1532261217640107 0 0 0 -2 -1 -1 -1 0
1532261217661050 0 -1 -3 -1 -2 0 -1 -1
1532261217744827 -2 -1 1 0 0 1 2 0
1532261217752814 -2 -2 -2 -2 -1 2 3 -2
1532261217792699 -2 -3 -1 0 -1 -1 0 0
1532261217849547 0 -1 -2 0 -1 0 -1 -1
1532261218031062 0 -1 -1 0 -2 -4 -1 0
1532261218053003 -1 -1 -2 0 -1 1 -1 2
1532261218067963 -2 -1 -1 -1 -3 -1 -2 -3
1532261218103867 1 0 0 -1 -1 0 -5 0
1532261218126805 -2 0 -1 0 -2 0 0 1
1532261218291365 -2 0 -1 -1 -1 -1 -1 -3
1532261218330261 -1 -1 -1 -2 -2 0 0 0
1532261218346219 -2 -2 -1 1 0 -2 -2 -3
1532261218463903 1 -2 -2 0 -1 -3 0 -2
1532261218585579 -1 -2 -1 -2 -1 2 4 0
1532261218643424 -2 -1 0 -1 0 -1 2 -2
1532261218704261 -2 -1 0 0 1 0 -4 -2
1532261218816960 0 0 -1 -2 1 -1 0 -1
1532261218886773 0 -2 0 -2 -2 -2 -3 -3
1532261218921684 -2 -2 0 -1 0 1 1 0
1532261218951600 1 1 0 0 0 -3 0 0
1532261218996480 -1 -4 -1 1 1 -2 -2 2
1532261219139098 -1 1 1 -1 0 -1 -2 -2
1532261219178993 0 0 -1 -1 -1 0 1 0
1532261219185972 0 -1 0 -2 -1 -1 -4 -1
1532261219207914 -1 0 -2 0 1 0 1 -2
1532261219235840 0 1 -2 -1 0 -7 -3 -1
1532261219306651 -2 -2 -1 -1 -2 -1 -2 0
1532261219418352 -1 -2 -2 -1 0 0 -2 -1
1532261219440293 -1 -1 -1 -2 1 3 -5 -1
1532261219476196 -1 0 -1 1 -2 -1 0 -1
1532261219529056 -1 2 -1 1 1 -14 -3 -2
1532261219551994 -1 0 1 -1 -2 -11 -2 -1
1532261219588896 -1 -2 0 -1 2 7 -1 -2
1532261219673669 -2 -2 -1 0 -2 -1 -2 -3
1532261219733508 0 -1 -2 0 0 -13 5 0
1532261219756447 0 0 -1 -1 1 -2 -3 -1
1532261219784373 1 -2 -2 -3 -2 12 -4 0
1532261219925994 -2 -2 1 -1 1 -5 -1 -2
1532261220023733 -2 -2 -1 -3 1 6 2 0
1532261220046671 -1 -1 -2 -1 0 -11 0 1
1532261220250127 -1 0 -1 0 -1 -1 3 1
1532261220504447 -1 -2 0 0 0 -6 -3 -2
1532261220551334 -1 -3 1 -1 -2 0 -2 -1
1532261220618143 1 -2 -1 -3 -2 -3 1 -1
1532261220691946 -1 -1 1 0 -1 0 -2 -1
1532261220805644 -1 -2 0 -1 0 -3 -1 0
1532261220849525 -1 -1 1 -1 -2 3 3 0
1532261221059962 -1 -1 -2 -2 -1 -3 -3 -2
1532261221065946 -1 -2 -1 0 0 -3 -1 0
1532261221104859 -2 -1 -1 -1 0 -3 0 -2
1532261221123791 0 -2 1 0 1 -3 -1 -2
1532261221171663 0 -2 -2 -1 0 -2 -1 -2
1532261221196596 0 -2 -3 -1 -1 -5 -5 -1
1532261221269402 -1 -2 -1 -2 -1 0 0 -1
1532261221361156 -1 -2 -1 0 -1 -2 2 -2
1532261221383097 -2 0 -3 0 0 -3 1 0
1532261221397061 0 -2 0 -1 -2 -5 2 0
1532261221419998 -2 0 -1 -2 -4 -3 -2 0
1532261221441940 -1 -1 -2 -1 -1 1 -4 -2
1532261221471860 0 -1 0 1 -1 -2 2 1
1532261221576581 1 -1 -3 -2 0 -3 0 1
1532261221592537 -1 0 -1 -1 -1 1 -5 -1
1532261221659358 0 0 -1 -1 -2 -3 -10 -1
1532261221675316 -2 -1 0 1 -2 0 2 2
1532261221695262 0 -1 -2 0 0 -3 1 1
1532261221734158 -2 -2 0 -2 -2 0 2 0
1532261221749119 -2 0 1 -1 3 0 -1 -2
1532261221773056 0 -3 -3 -1 -2 -2 0 0
1532261221825914 -1 1 0 -1 -2 -3 -4 -2
1532261221838879 0 0 -2 0 -1 0 2 0
1532261221870794 -2 -3 -1 -2 0 0 -1 -2
1532261221954569 -1 -1 -2 0 0 -3 -10 -3
1532261221974516 -1 0 -1 -3 -1 0 0 1
1532261222123120 -2 -3 -1 -1 -1 0 -3 -2
1532261222192932 -1 -1 -1 2 6 -1 0 -1
1532261222213877 0 -1 -2 -1 0 0 4 -1
1532261222311615 -1 -2 0 -1 3 -4 0 0
1532261222402372 -1 -1 0 0 0 5 -2 -1
1532261222431295 0 -3 -2 -1 0 0 -3 -1
1532261222559950 -1 -2 0 -1 -2 1 -3 -1
1532261222672650 -2 -1 -2 -2 1 -1 2 -2
1532261222749444 0 0 -1 -1 -2 2 0 0
1532261222771390 0 -2 0 -1 0 2 -4 -1
1532261222786348 -1 0 0 1 -4 -5 -3 -1
1532261222820255 1 -1 -1 -2 0 3 -3 0
1532261222839214 -1 0 -2 -1 -1 -3 0 -1
1532261222882089 -1 -1 -1 -2 -1 0 -1 -1
1532261222971849 -2 -2 -1 -1 -1 -2 -2 -1
1532261223025706 -1 0 -2 -2 -2 -3 0 -3
1532261223048644 0 -2 -2 -1 -1 0 1 -1
1532261223068591 0 0 -1 -2 -2 -3 0 -2
1532261223099508 -3 -1 0 0 -3 -1 -2 1
1532261223116462 -2 -1 -1 -3 1 1 -1 -1
1532261223257087 1 0 -1 2 -3 -1 -3 0
1532261223466526 -1 -2 -1 -1 -3 -2 -2 -1
1532261223580223 -2 -1 -2 -1 0 -1 0 0
1532261223604159 1 0 -1 -1 -1 1 -1 -1
1532261223618121 0 -2 0 -2 -1 0 -6 -2
1532261223654025 -1 -3 -1 -1 -1 -2 0 -2
1532261223699908 0 -1 0 -1 -1 -2 -2 -1
1532261223737800 0 -1 -1 -2 -1 1 -2 0
1532261223766724 -1 -1 0 -1 -2 -2 -5 -1
1532261223789662 -1 0 -1 -1 -1 0 1 -1
1532261223835540 -1 0 0 -2 -1 0 -3 -1
1532261223859476 1 -1 -2 -1 -4 -1 2 -1
1532261223895380 1 -2 -1 0 -2 0 -2 1
1532261223917321 -2 -2 -3 -1 -1 -3 1 -1
1532261223962201 0 -4 -2 -1 -1 0 0 0
1532261223999102 -2 -1 -3 -1 -1 2 2 -1
1532261224022041 -1 -2 -3 1 -4 0 1 -1
1532261224061934 0 -1 0 1 -2 -1 0 -2

1532261224158675 -1 -2 0 -1 -2 -1 2 0
1532261224171641 -3 0 -2 -1 -2 0 0 0
1532261224193582 1 -1 -1 -2 -1 -2 -2 -2
1532261224216521 -1 0 0 -1 0 -1 0 -1
1532261224277358 0 -2 0 -2 -2 1 1 0
1532261224314259 -1 -1 0 -1 -2 -2 1 -1
1532261224382078 0 0 -1 -1 1 -1 0 -2
1532261224436931 -1 -2 0 -1 -1 -3 1 -1
1532261224479817 -1 -3 1 -1 0 -3 -1 -1
1532261224501757 0 0 -1 0 0 -2 1 0
1532261224539657 1 -1 -3 0 -1 -1 -2 -1
1532261224584537 0 -1 -1 -1 0 -2 -2 -2
1532261224713192 0 1 -3 0 -3 -1 2 -1
1532261224729150 -1 -1 -1 -1 -3 -4 -6 -1
1532261224749096 -1 0 -3 -3 -3 0 -1 -1
1532261224772035 -1 -2 -2 -2 0 2 1 0
1532261224824894 -2 0 -2 -3 0 -1 0 -1
1532261224908670 0 -1 -1 0 -1 -1 0 0
1532261224966515 -1 0 -1 -2 -2 0 -2 0
1532261224996435 -1 0 -2 1 -1 0 2 0
1532261225042313 -1 1 -1 0 -1 0 0 -1
1532261225055278 0 -1 0 -1 -2 -3 -1 -1
1532261225087193 -2 -1 0 -2 -1 -1 -3 -1
1532261225102153 -2 -1 -2 -1 0 -3 -2 2
1532261225132072 -1 0 -1 0 -3 1 1 -2
1532261225154014 0 0 -1 0 0 -2 -5 -2
1532261225175955 -1 -2 -1 -1 -2 0 3 0
1532261225268707 -2 -1 -2 0 0 -1 1 -1
1532261225283667 -2 -1 0 -1 -2 0 1 0
1532261225326553 1 0 -3 -1 2 -3 -1 -1
1532261225341513 -1 -2 0 -1 -3 -4 -1 -1
1532261225387404 -1 0 -1 -1 -1 2 -4 -1
1532261225431273 -2 0 -1 -1 -2 0 1 0
1532261225560926 0 2 -2 1 1 -1 -4 -1
1532261225605807 -1 -2 -1 0 -2 1 -2 -2
1532261225641710 0 -1 1 0 0 0 1 -2
1532261225663651 -1 -2 -2 -1 -1 1 0 1
1532261225716510 0 -1 0 -2 0 -2 0 -1
1532261225740446 -1 0 -2 -2 -1 -3 -1 -1
1532261225764382 0 2 -1 -1 -1 -1 0 -1
1532261225823225 -1 -2 0 0 -2 -2 -2 0
1532261225830206 -1 -1 -2 -1 -2 2 -2 -1
1532261225858131 -1 1 -3 -1 0 -3 1 -2
1532261226032664 -1 -2 -1 -2 -1 -1 1 0
1532261226079539 -2 0 1 -1 -2 -1 -4 -3
1532261226122433 0 2 -1 -2 -2 -1 1 0
1532261226151347 -1 -1 -1 -1 -2 -1 -1 -1
1532261226266041 -2 -1 -2 -1 -2 -1 0 0
1532261226489443 -1 -2 -4 -1 -2 -2 -2 0
1532261226655998 -1 0 0 -1 1 -2 -2 -2
1532261226671954 0 -3 1 -1 0 2 -1 -2
1532261226743763 0 -1 -1 -1 -2 -2 1 -2
1532261226766701 -2 -2 -2 -2 0 -1 -1 -1
1532261226796621 -1 0 2 -3 -1 1 -2 -1
1532261226843496 1 1 -2 0 -1 0 3 0
1532261226865438 0 -1 0 -1 0 0 -2 -2
1532261226911315 -2 -2 -1 -1 0 1 -3 0
1532261226956195 -3 -1 0 -1 1 -2 0 -1
1532261227007060 0 -1 -2 -1 -2 -4 -3 -1
1532261227112776 0 -2 -1 -1 -1 -1 0 -1
1532261227151671 -1 -3 -1 -2 -1 0 0 -1
1532261227188573 0 0 1 2 0 1 1 -1
1532261227193560 -2 -2 -2 0 -2 -1 -5 0
1532261227223480 -1 -2 -2 0 -1 -1 2 0
1532261227247417 -2 -1 -2 -2 0 0 -6 -2
1532261227269361 -2 -1 0 0 0 -1 1 0
1532261227284326 -1 0 -1 -2 -2 1 -2 0
1532261227352136 -1 0 -1 -2 -2 -2 -2 -2
1532261227420952 -1 -2 -1 -1 1 -4 -3 0
1532261227488771 0 0 -2 0 1 -2 -2 0
1532261227509715 -2 -1 -1 -1 -2 1 -4 -2
1532261227722185 -1 -1 -2 -1 0 -2 -3 -3
1532261227766029 -2 -1 -2 -1 -3 -9 -1 -2
1532261227788968 1 -2 -1 -1 -1 2 -5 0
1532261227809927 -1 -2 -3 -1 0 -2 -2 0
1532261227868764 1 1 0 0 0 0 0 -1
1532261227892691 -2 -2 -1 -1 0 -2 2 -1
1532261227998408 -2 0 -2 -1 -1 -2 0 -1
1532261228020351 -1 0 -2 -1 -2 -3 -2 0
1532261228057250 0 -1 -1 -1 1 1 -1 1
1532261228108114 -1 -2 0 -1 -1 0 -2 -1
1532261228169949 1 1 0 -1 -1 -4 -4 0
1532261228276664 1 1 0 -1 0 0 2 -1
1532261228321544 -1 0 0 -2 -1 1 -2 -1
1532261228372407 -1 -3 0 -1 -2 -2 -1 -1
1532261228409309 0 -2 -1 -1 -1 2 -1 0
1532261228453192 2 -1 -2 -2 -2 -1 -1 -1
1532261228508044 -2 -2 0 0 -2 -1 1 0
1532261228575863 -1 -1 -3 -1 1 0 0 -1
1532261228671608 -2 0 0 -2 -2 -1 -3 -3
1532261228739431 -2 0 1 -1 0 -3 -1 0
1532261228793282 -2 0 0 -1 -1 -4 0 -1
1532261228837165 -2 -2 -3 -3 1 0 2 -1
1532261228877058 1 1 -1 0 -2 -2 -3 -3
1532261228897005 -1 -1 -2 0 -1 -1 -4 0
1532261228934903 0 1 -2 -2 -1 -3 0 -1
1532261228971804 -3 -4 0 0 -1 0 -1 -2
1532261228994743 -1 -1 1 -2 1 -1 -2 -2
1532261229018688 -1 -1 0 -1 -1 0 0 -1
1532261229062574 0 -1 0 -1 -3 3 0 0
1532261229076525 0 0 -1 -3 1 -2 3 -1
1532261229153331 -1 -2 -1 0 -2 -2 -2 0
1532261229168279 -2 -1 0 -1 -1 -3 2 0
1532261229176258 -2 -1 -1 0 0 -3 -4 -2
1532261229212162 -1 -1 -1 0 -1 -2 -2 -2
1532261229242082 -2 -2 -1 -2 -2 0 -1 0
1532261229249076 0 1 -1 -1 2 -2 -1 -1
1532261229294953 1 -2 -2 -1 1 -1 0 -1
1532261229338824 0 -2 0 -1 1 2 0 1
1532261229363757 -1 -1 -1 -1 0 -1 -1 -1
1532261229408637 1 -3 0 -2 0 2 -1 -1
1532261229431575 -1 -1 -1 -1 -1 -1 0 -1
1532261229445538 0 -2 -1 -2 0 1 1 -1
1532261229488436 -2 -2 -2 -1 -1 -3 0 -1
1532261229512360 -2 -2 1 0 0 1 2 -3
1532261229550258 -1 -2 -2 -1 0 1 -2 -1
1532261229564220 0 0 -3 -2 -1 -2 1 -1
1532261229573197 0 -1 -1 1 0 -1 -2 -2
1532261229624061 -2 -1 0 -1 -1 0 -1 -1
1532261229641016 -2 -1 -1 -2 -2 -2 -2 -1
1532261229708834 -3 -2 -3 0 -1 -1 -1 -1
1532261229730775 0 -2 -2 -1 2 0 -4 -2
1532261229751719 -1 1 -1 -3 -1 -1 0 0
1532261229780642 0 1 0 -4 -2 -4 -5 -1
1532261229803582 -1 -1 0 0 -2 -1 0 -1
1532261229841479 -3 -1 -1 -1 0 -1 -1 0
1532261229903314 -1 0 1 0 -1 -1 1 -1
1532261229926252 -1 -1 0 -2 0 0 -5 -2
1532261229963154 -2 -1 -2 -2 1 0 1 -1
1532261229984098 -3 -2 0 0 -1 -1 1 -1
1532261229991079 -1 -2 -1 -1 -2 -2 -1 0
1532261230037954 -2 -2 -1 -2 0 -3 -3 0
1532261230140679 -1 0 -1 -2 -1 -1 -2 0
1532261230218471 -2 -1 -1 0 2 -2 -2 -1
1532261230279308 -1 -3 -1 0 2 3 0 -2
1532261230300252 0 0 0 0 -3 -2 -3 0
1532261230351116 -2 0 1 0 0 -3 -5 -2
1532261230396994 -1 1 -1 -1 -1 -2 -4 -1
1532261230494733 -1 -2 1 1 -2 -1 -2 -2
1532261230515676 0 -2 1 -1 -1 -1 -1 0
1532261230541607 -2 0 0 0 -3 -1 -1 0
1532261230546594 0 0 -1 -2 0 -1 0 -1
1532261230577511 -1 -1 -3 0 -1 -1 0 0
1532261230599452 -1 0 1 -2 -2 -1 -2 -1
1532261230614412 -2 -1 -1 -2 1 0 -2 0
1532261230728123 -1 0 -1 -1 0 -1 0 -1
1532261230750050 0 -3 -1 -1 1 2 1 -1
1532261230796925 -1 2 0 -1 -1 2 -1 -1
1532261230908626 0 -1 -2 -2 -3 1 -2 -2
1532261230959490 1 -2 0 0 -2 1 -2 -1
1532261231050247 -1 -1 -2 0 -1 -2 1 -2
1532261231072189 -1 -1 -3 -1 0 0 2 -1
1532261231094129 -2 -3 0 -1 -1 0 0 -1
1532261231108092 -3 -2 -2 -2 -1 0 -2 0
1532261231140008 -1 -2 -3 -1 -3 2 4 0
1532261231160951 0 0 -1 -1 1 -1 -11 -4
1532261231227773 -2 -1 -1 -1 -2 0 -4 -3
1532261231296588 -3 1 -2 -1 -3 -1 0 -1
1532261231349447 1 -3 -2 -2 -2 1 2 -1
1532261231374380 -2 -1 -1 2 -1 -1 -1 0
1532261231388343 -2 -1 -1 -2 -1 0 3 -1
1532261231409286 -2 -2 -1 -1 -1 0 -3 -1
1532261231516012 0 -2 0 1 -1 -4 -3 -2
1532261231634683 0 1 0 -1 0 -2 -3 -2
1532261231650641 0 -1 -1 -1 -1 0 -2 -2
1532261231709484 -1 -1 0 0 -1 -2 0 0
1532261231867063 0 -1 -1 1 1 -1 0 1
1532261231884034 -1 -1 -2 -2 -1 -2 -3 -1
1532261231905958 -1 -1 -1 -4 -3 -2 0 -1
1532261231964801 0 0 0 0 -2 -4 -2 0
1532261231978764 -1 -2 0 -1 -1 -1 -1 0
1532261232024641 1 -1 -1 1 -1 40 1 0
1532261232098444 -1 -4 -5 -11 -30 -55 -9 -2
1532261232139335 -1 2 7 11 13 -9 -1 0
1532261232161276 -3 -1 -10 -19 -21 -25 0 -5

1532261232415596 -2 0 6 8 -8 -8 9 -2
1532261232437537 -2 9 9 14 -4 -5 -6 -3
1532261232458481 -2 -25 -7 8 7 -8 2 0
1532261232541260 -2 5 -3 -6 -24 5 2 2
1532261232571180 -3 8 -2 -7 -11 4 7 0
1532261232582151 2 4 3 5 -37 1 6 2
1532261232624069 -1 2 8 14 10 4 -5 0
1532261232692872 -1 22 -2 -3 11 -8 1 0
1532261232716819 0 -12 -3 4 1 2 1 -2
1532261232759692 -1 10 -2 -2 0 17 17 1
1532261232818535 -4 -1 0 3 -4 -5 5 11
1532261232841474 32 0 -10 -6 -21 -56 -60 -20
1532261232881370 -11 -8 1 13 9 -32 5 -5
1532261232886354 -1 34 -2 -6 -6 5 7 5
1532261232947191 -30 -15 -5 -4 14 -5 4 10
1532261232969133 4 -7 -7 0 -18 12 1 -8
1532261232992071 -1 3 4 5 19 -28 1 -1
1532261233020994 1 -31 -6 2 36 14 6 4
1532261233043933 -4 -7 1 -4 16 11 0 -2
1532261233058892 1 30 6 2 18 -2 4 4
1532261233080834 0 -20 0 0 18 18 -1 3
1532261233103773 1 -2 -11 0 9 1 -4 3
1532261233141672 5 -10 4 1 7 6 1 -19
1532261233163613 -12 9 7 2 12 -7 6 18
1532261233201511 7 80 17 -6 6 -7 1 -9
1532261233223469 2 -9 -8 -2 4 5 -10 -4
1532261233247417 2 -16 -1 -1 -8 2 3 0
1532261233284339 -5 -3 -2 -2 -5 17 -4 -9
1532261233299299 -14 -11 -4 3 71 -41 -13 -69
1532261233321240 9 -7 1 2 10 -22 13 31
1532261233359139 -4 -6 1 0 -27 -9 -13 13
1532261233381081 -6 2 -3 -8 -5 19 10 -12
1532261233433939 3 -91 -12 3 -53 8 -5 -6
1532261233456878 -7 -16 -2 -5 -41 -17 6 -4
1532261233561598 11 35 3 3 -2 -3 -3 28
1532261233598499 -3 -43 -3 1 -6 -36 -4 10
1532261233621438 3 36 6 -3 -50 14 -9 -7
1532261233689257 3 30 7 2 1 9 0 -9
1532261233704217 -7 -19 -2 -2 11 -7 7 -3
1532261233741118 3 1 -3 -3 11 5 3 -3
1532261233810931 0 7 -2 2 -8 -11 -19 -4
1532261233816915 2 24 4 2 17 -2 -9 -2
1532261233855820 0 20 1 -4 -16 19 0 24
1532261233869773 -3 -15 -5 -5 54 46 -16 2
1532261233906681 -2 -9 -2 1 -37 -25 -1 -9
1532261233921635 -10 -20 -4 -9 -40 -2 -2 -9
1532261233967513 3 7 1 -6 18 -27 6 -4
1532261234096183 -3 -11 -4 -1 3 -3 5 4
1532261234163987 -3 -32 -5 -1 -15 -10 1 -5
1532261234183934 4 19 -1 -2 -12 -8 -2 3
1532261234236792 2 37 3 -2 -15 -2 4 -3
1532261234268707 4 45 17 1 -12 -1 9 5
1532261234313587 0 -10 -4 -10 -44 -5 -2 -10
1532261234333534 -17 3 0 4 4 -49 -13 -1
1532261234372435 6 2 -4 -6 -30 13 -3 -4
1532261234402350 2 -2 1 6 19 11 10 -10
1532261234416313 3 -1 -2 1 -8 -1 3 -1
1532261234447230 -8 -2 0 12 46 0 1 1
1532261234469199 2 -3 0 -3 -5 -2 1 -2
1532261234484159 0 -12 -4 -3 -9 -3 -6 -9
1532261234507098 2 2 -3 -2 -18 -5 0 2
1532261234709557 0 4 -1 -1 4 -3 -1 -2
1532261234740474 -4 -3 -8 -19 9 18 -1 -7
1532261234852175 1 2 -4 -1 12 51 0 8
1532261234877109 -2 8 3 3 15 -1 -1 -4
1532261234933956 -13 -7 -3 12 26 53 8 3
1532261234957893 -5 -5 -3 -3 -24 -14 -3 -4
1532261234995790 -6 -2 -4 7 81 28 1 -8
1532261235016735 -2 -3 -1 4 -54 -97 -20 -5
1532261235076575 1 -4 -8 -8 -4 41 6 -1
1532261235175311 1 -2 0 4 50 -1 -13 -2
1532261235213210 -2 3 -1 -4 -17 18 -4 0
1532261235220191 -5 -6 -1 -2 -17 4 -27 -5
1532261235259096 -1 0 1 4 -4 -38 -8 -3
1532261235280031 -1 -1 -3 -2 -12 -16 5 -3
1532261235316933 -1 0 -5 -4 6 22 -1 -2
1532261235362810 -1 -1 -2 -2 -1 5 1 -1
1532261235369791 -1 0 -1 -1 -2 -9 -3 -2
1532261235391732 0 0 -2 2 -1 5 6 -1
1532261235520388 -1 -1 -1 -1 -3 6 1 0
1532261235551306 0 0 -2 -2 -2 -6 -3 -1
1532261235572250 -2 -2 0 -1 -1 0 -4 -1
1532261235633087 -1 -1 0 -2 -2 -4 -2 -1
1532261235790666 -1 -2 -1 -1 -2 -4 -1 1
1532261235813604 -1 -1 -2 0 -1 7 1 -1
1532261235826570 -1 0 -1 -1 -3 -4 1 0
1532261235872456 -2 -1 -2 -2 -1 -9 -2 -1
1532261236066927 -1 0 0 0 -2 -2 2 -1
1532261236091873 -1 1 -2 1 0 -2 -3 0
1532261236149705 0 -2 0 0 1 10 5 18
1532261236179625 -2 -2 -1 -1 0 5 -1 -7
1532261236254425 -1 0 -1 -1 -2 1 -2 -5
1532261236277364 -1 -1 -1 -1 -2 0 -1 -5
1532261236368121 1 -2 -1 1 1 0 -1 0
1532261236390063 -4 -2 -1 -2 -1 3 0 -1
1532261236465860 0 -1 -1 0 -2 -1 -3 1
1532261236494794 -3 -3 -1 -1 1 0 -3 -1
1532261236661340 0 -1 0 -1 -1 -1 0 0
1532261236667322 -1 -2 -2 0 0 -3 -4 -3
1532261236690260 -1 0 -2 0 1 -3 2 1
1532261236712201 0 -1 -1 -1 1 5 3 0
1532261236736143 -2 -2 -1 -1 -1 -3 -1 1
1532261236801961 0 -1 -2 0 -2 -7 0 -2
1532261236875764 0 0 -2 0 -1 -1 -2 -1
1532261236930617 -1 -2 -1 -2 -2 1 0 -1
1532261236940600 -2 0 -2 -3 -1 -1 2 -1
1532261236958543 1 0 1 0 0 5 -1 -1
1532261236997452 1 -2 -1 1 -2 2 0 -1
1532261237012399 -3 -1 -1 0 0 3 5 0
1532261237048302 0 -1 -2 -4 -1 -4 2 0
1532261237064259 -1 -2 -2 -2 1 2 -1 -1
1532261237095177 -2 -2 -2 0 0 -1 -7 1
1532261237215854 -1 -1 -2 -2 0 2 -1 -1
1532261237222836 -1 -2 -1 0 -1 -1 -5 -2
1532261237318580 -1 -2 -1 0 -1 -1 -1 -1
1532261237357475 -2 -1 0 0 -1 -2 -1 -3
1532261237387396 -3 -2 -1 -1 -1 2 -3 1
1532261237498100 0 -1 0 0 1 0 -1 -1
1532261237618777 -1 0 -2 -2 -2 0 1 -2
1532261237642713 -3 -2 -1 -2 0 -1 -2 -1
1532261237734467 -1 -2 -1 -1 -1 -1 -1 -1
1532261237755411 -2 0 1 -1 -1 0 2 -1
1532261237822246 -2 -1 0 -3 -1 1 -3 -3
1532261237828217 -2 -1 -2 -3 -2 -1 -2 -2
1532261237858137 2 -3 -1 1 -1 -1 -2 0
1532261237933935 0 -2 0 -3 -1 1 -1 -2
1532261238010729 -1 -1 0 1 -1 -1 -1 -2
1532261238033668 -1 -2 -2 -1 1 2 -1 -2
1532261238090527 -1 -1 -1 0 -1 -1 -2 -1
1532261238286990 0 0 0 -2 -2 -4 -2 1
1532261238310926 0 0 -1 -1 0 -1 -5 -1
1532261238330872 -2 0 -3 -1 0 0 1 -1
1532261238354838 -1 1 -2 -4 -2 -2 -1 0
1532261238399689 -1 -1 -2 -2 -1 0 2 -1
1532261238543305 -1 -2 0 -1 -3 -3 -5 -1
1532261238566244 -1 -1 0 -1 -1 -2 -1 0
1532261238588184 -3 -2 -2 -1 -1 0 1 -1
1532261238604148 -2 1 -1 -3 0 -7 0 -2
1532261238608132 -1 0 0 -1 -1 -2 -1 0
1532261238639048 -1 0 -1 -2 -1 1 0 -1
1532261238675951 -2 -2 -2 -1 -3 0 0 -1
1532261238684926 0 -1 -2 -1 -4 1 2 -2
1532261238728809 -1 -3 -2 -2 -2 1 0 -3
1532261238761720 1 -1 0 0 0 -1 -2 -1
1532261238821567 -3 0 -1 -2 -1 2 -2 -1
1532261238881400 0 1 -2 -1 -2 -3 -1 0
1532261238887385 -2 -2 -2 0 1 -1 1 0
1532261238917304 -1 -1 -1 1 1 -1 -1 -1
1532261238977144 -1 -1 -2 -1 -4 -5 -3 -3
1532261239029006 -1 0 0 0 -1 0 0 0
1532261239053940 0 0 -1 -1 0 -1 1 -2
1532261239073885 -1 -2 -3 -1 0 -2 -2 -1
1532261239119769 -2 0 -2 1 -1 -1 1 -2
1532261239170627 0 -1 -1 -3 -2 -4 -2 -1
1532261239201544 -1 -1 -1 0 -1 -1 -1 -1
1532261239253406 -1 -2 0 -1 -2 -3 -2 1
1532261239283325 -1 -2 0 -1 -2 -2 0 -2
1532261239375080 -1 0 -1 2 2 1 0 -2
1532261239434920 -1 -1 -2 0 1 -1 5 -2
1532261239447886 -3 -3 1 -1 2 3 -1 1
1532261239561582 -2 -2 -1 -1 -1 -3 -1 0
1532261239676275 0 0 -1 0 -1 0 0 -1
1532261239699230 0 -1 0 -2 -2 -1 -1 -2
1532261239862776 -2 -1 -1 -1 0 1 -5 -1
1532261239908655 -1 2 0 0 -2 0 -1 1
1532261239974478 0 0 1 0 -1 -3 0 -2
1532261240003400 1 -3 -1 -2 0 1 -2 -2
1532261240208851 -2 -1 -3 -1 -2 -1 -1 0
1532261240231805 -2 1 -1 -2 1 -2 -1 -1
1532261240281656 -3 -1 1 -2 -1 0 -3 -2
1532261240394355 -2 -1 0 0 -1 0 -4 3
1532261240604792 0 -1 0 -1 -2 -3 -2 0
1532261240717490 0 -1 -3 -1 -3 1 -2 1
1532261240761373 -1 0 -1 0 -1 -1 -1 1
1532261240844151 -1 0 -2 0 -1 0 3 1
1532261240859112 0 0 0 -1 0 1 0 -2
1532261240905986 -1 -2 -1 -2 0 1 -3 -1
1532261240993752 -2 2 -2 -1 -2 0 -2 0
1532261241040626 -1 -1 -1 -1 -1 -1 3 -1
1532261241086504 1 -1 0 0 -1 -1 2 2
1532261241159313 0 0 -1 0 -1 -1 1 -1
1532261241227128 0 0 -1 1 1 2 -1 -3
1532261241361768 0 1 0 0 -1 0 0 -2
1532261241406648 -3 -1 -1 -1 -4 -1 -5 0
1532261241428589 -1 -1 -1 -1 1 -1 -1 -1
1532261241466488 -2 -2 -1 -3 0 -3 0 -2
1532261241481448 1 0 1 -1 0 0 -3 -1
1532261241504387 -3 -3 -2 0 -1 4 1 -3
1532261241534306 -2 -2 -1 -1 0 -3 0 1
1532261241549266 0 -1 -1 -1 -2 -2 -2 -2
1532261241596141 -1 -1 -2 -1 0 -1 -2 0
1532261241618083 -1 1 -1 -1 -1 0 -1 0
1532261241656979 -3 -1 -1 -3 -1 -2 -2 0
1532261241662962 -1 -1 -1 -1 -2 0 1 1
1532261241684903 -1 -1 0 0 0 2 -2 0

1532261241775670 -1 -3 0 -2 0 -1 -1 0
1532261241804593 -1 0 0 0 0 2 -1 1
1532261241850471 0 0 -1 -1 -1 -2 2 0
1532261241879393 1 3 -1 -2 -2 0 -2 -2
1532261241902332 -1 -3 1 0 1 -1 1 0
1532261241932252 -2 -2 -2 -2 0 -1 -1 -1
1532261241947212 -1 -2 -1 0 -2 0 -3 1
1532261241977131 0 0 0 -2 -1 1 -3 -3
1532261241984113 -1 -1 -2 -1 -2 -2 -3 -2
1532261242014034 -1 -2 -2 -1 0 -1 0 -2
1532261242029991 -1 -2 -1 -2 -2 0 2 0
1532261242089854 0 -3 0 0 1 3 1 -1
1532261242128750 -2 -1 1 -2 0 -1 2 1
1532261242150692 0 -1 -3 -2 -1 -1 0 -1
1532261242172633 -1 -1 1 -2 -1 -1 1 1
1532261242194575 -1 0 -2 -1 -1 0 1 -1
1532261242232473 -1 -1 -1 1 -1 -2 -1 -3
1532261242260398 0 -2 0 -2 -1 0 1 0
1532261242359173 -3 -2 -1 -3 -2 -1 -2 -1
1532261242382127 0 -3 -3 -4 -2 -1 2 -2
1532261242451925 0 -1 -1 1 -1 -1 -2 -2
1532261242472869 -1 -1 1 -1 0 0 -1 0
1532261242488827 -1 0 0 0 -1 -1 -1 0
1532261242523733 -2 -1 -2 0 -3 -1 -4 -2
1532261242546671 0 0 -2 -1 -2 0 -1 0
1532261242624503 -1 -2 0 -1 0 -2 -1 -3
1532261242705303 0 1 -2 0 -2 1 0 1
1532261242729234 0 -1 -1 2 0 -2 -1 -2
1532261242816988 -2 1 -1 -1 -3 0 1 -1
1532261242839928 -1 -2 0 0 -1 -1 -2 -1
1532261242869847 0 0 -1 0 -1 -1 -1 -2
1532261242958610 0 -2 -1 -2 -1 0 -3 -1
1532261243005487 -2 -1 -2 -2 -1 -2 -1 -1
1532261243043383 -2 -2 0 1 -1 1 2 0
1532261243050365 0 -3 -1 -1 0 -2 5 -1
1532261243117186 -3 -1 -4 -2 -2 -2 0 -2
1532261243132146 1 -2 -1 0 -1 0 -2 -1
1532261243214924 -1 -2 -1 1 0 -1 -4 0
1532261243258807 -2 0 -1 -1 -1 -2 0 -2
1532261243283741 -1 1 -1 -2 -1 0 2 0
1532261243317650 0 0 0 0 -2 1 1 0
1532261243357548 -1 0 -1 0 -3 -1 0 -1
1532261243417383 0 -3 0 -1 -2 0 -2 -1
1532261243471245 -2 0 -1 1 -1 -1 2 0
1532261243559005 -2 0 1 -1 -1 0 0 0
1532261243600892 0 -2 1 -1 -2 0 -3 -1
1532261243620839 -1 -1 -1 0 1 -2 -4 -2
1532261243632807 -1 -1 -1 0 -1 1 -1 -1
1532261243671720 -1 -2 -2 -2 0 -2 0 0
1532261243718578 0 -2 -1 -1 -2 -2 0 -1
1532261243839257 0 -3 0 1 -2 0 3 -3
1532261243878151 -2 -2 -2 0 0 -3 -3 0
1532261243891117 -2 2 -1 0 -1 1 -3 -2
1532261243912060 -1 1 -2 0 -1 -1 -1 -1
1532261243956941 -1 -2 -1 0 0 -2 -2 -2
1532261243994838 0 -1 0 -1 0 -1 1 0
1532261244091580 -1 -1 -1 1 1 -2 0 0
1532261244115516 -2 -2 0 -1 0 -1 -2 1
1532261244165382 -1 -1 -2 -3 -2 -3 -2 1
1532261244309995 0 -2 -2 -1 -2 3 0 0
1532261244648092 -2 -1 0 -1 0 -1 -1 0
1532261244671030 0 -2 -2 -1 -1 -3 -2 0
1532261244692972 -1 -1 0 0 0 -1 -3 0
1532261244727878 -2 1 -1 -1 -2 -1 -3 -1
1532261244759793 1 -5 0 -3 -1 1 -6 -2
1532261244819633 -1 -2 0 -2 0 -4 -1 0
1532261244924353 -2 -3 0 0 0 2 -3 -1
1532261244988183 0 -1 -2 -1 0 -2 1 1
1532261244999153 -1 -5 -4 -1 -1 0 0 1
1532261245028076 -1 1 -2 -1 -1 2 4 1
1532261245082929 -2 -1 -2 -2 -1 0 -1 -2
1532261245201611 1 -1 -1 -2 -2 -2 -1 -1
1532261245227543 2 0 -2 -1 -2 -2 -6 -2
1532261245235521 0 -5 0 -1 -1 -2 2 0
1532261245268433 -5 -3 0 -2 -1 1 -4 -1
1532261245315307 0 -1 -2 -1 -2 -3 2 -1
1532261245541702 1 -2 -2 0 0 -4 -3 -1
1532261245563643 2 0 -3 0 -2 2 2 1
1532261245584588 2 1 -1 -1 0 -3 -4 -1
1532261245666368 -10 -2 0 1 1 2 0 0
1532261245719227 1 -3 -2 0 0 -4 -8 -2
1532261245781062 -3 -1 -1 -2 0 -1 -2 -1
1532261245801009 -1 -1 -1 -1 -1 0 -2 0
1532261245830929 0 -1 -1 -2 -1 0 -1 0
1532261245854865 1 -3 0 0 0 -2 -2 -1
1532261245951606 -3 -3 -1 -1 -1 -2 -3 -1
1532261246036383 0 0 0 0 0 -1 -3 -1
1532261246079265 -2 -2 0 0 -2 -1 -1 -1
1532261246094225 -2 0 -3 -3 -1 -1 0 0
1532261246117163 -1 1 1 0 -1 -2 3 -1
1532261246139105 1 -4 0 -1 1 1 0 1
1532261246215899 -1 -2 -1 -1 -1 -3 -3 0
1532261246311644 -2 0 -1 0 1 -1 -1 -1
1532261246335580 -1 -1 0 0 -1 0 -1 -1
1532261246358518 -1 1 0 -1 -2 -2 1 -3
1532261246379472 0 0 1 0 -1 1 3 0
1532261246454262 1 -2 -1 0 -2 1 -1 1
1532261246477201 0 -1 0 -2 1 0 2 -1
1532261246590896 -1 -2 0 -2 -2 1 2 -1
1532261246619820 -1 1 -1 0 -2 -2 0 -2
1532261246693621 0 -1 -1 0 0 -2 1 2
1532261246808315 -2 0 -1 -1 -2 2 -1 -3
1532261246866160 0 -1 0 -2 0 2 -1 0
1532261246927995 -1 -1 1 0 0 -4 -1 -2
1532261246934977 -5 -4 0 -1 2 -2 2 -2
1532261246978866 -1 -2 1 0 -3 0 2 -1
1532261247016758 -3 0 -2 -1 -2 -1 0 -1
1532261247054656 2 1 0 -1 -1 -2 -1 1
1532261247108512 0 0 -1 -2 -2 -1 -2 -3
1532261247146411 -1 0 0 0 0 1 4 -2
1532261247152395 -1 2 0 1 0 1 0 -1
1532261247167356 -3 -1 -3 0 -3 -5 -4 -1
1532261247189297 -1 -2 0 0 0 1 2 -2
1532261247227195 1 0 0 -1 0 -1 2 0
1532261247264096 1 -1 0 -1 1 5 1 -1
1532261247300998 -3 -1 -1 -1 -2 1 -1 0
1532261247315957 1 1 -1 -2 -4 -3 0 -2
1532261247354856 1 0 -1 0 -1 1 -2 -2
1532261247422672 -1 -1 1 0 -1 -2 1 0
1532261247447606 -2 -1 -1 -1 0 -3 2 -3
1532261247469547 -2 -1 -1 -1 -1 -1 0 -1
1532261247482512 -2 -2 0 0 -2 -1 -7 -1
1532261247503456 0 -2 -1 -3 0 -2 2 -2
1532261247527393 -1 0 -1 -1 0 1 1 -1
1532261247549333 -1 0 1 -2 -1 2 3 -1
1532261247579254 0 -1 -1 1 -2 -1 -2 -1
1532261247631116 -1 -1 -4 -1 -2 -3 0 -1
1532261247701926 -2 -2 -1 -1 -1 -1 -5 -2
1532261247747803 -1 -1 -1 -1 1 -1 -1 1
1532261247761765 3 -3 -1 0 -1 1 -1 -1
1532261247781712 -1 -2 -3 -3 0 -1 -1 0
1532261247795675 -1 0 -1 -1 0 -5 -3 -2
1532261247878454 -1 -1 -2 -1 -3 0 0 -2
1532261247955262 -1 -1 1 -1 0 -1 0 -1
1532261248003120 -2 -4 -4 -2 -3 1 -2 1
1532261248037029 0 -2 0 -1 -1 -3 2 3
1532261248088891 -2 0 -1 -1 -1 1 -1 1
1532261248141750 -2 2 -1 0 0 -2 1 0
1532261248187627 -1 -2 -2 0 -4 -3 -3 -1
1532261248209569 0 -1 1 2 0 2 -2 -2
1532261248301323 -1 0 -3 -1 -2 0 -1 1
1532261248321269 0 -2 0 -2 -1 -3 -1 -1
1532261248381109 0 0 -2 -2 -3 -4 -3 -2
1532261248487824 -2 0 0 -1 0 -1 -2 -1
1532261248578582 0 -1 0 -2 -1 -2 -1 -1
1532261248593545 1 -1 0 -1 0 -1 1 0
1532261248621466 -2 0 -1 -3 1 -1 1 -3
1532261248644406 0 -1 -1 0 -1 3 -1 -1
1532261248674325 0 -1 0 -2 1 -1 1 1
1532261248721200 -1 -1 -2 0 -2 -3 -5 -1
1532261248766080 -1 -2 -2 -1 -2 -1 -2 -2
1532261248832902 -2 -2 -2 -1 -3 -2 -1 0
1532261248870812 1 0 -1 -1 0 1 -3 0
1532261248922661 1 0 0 0 1 2 -1 -2
1532261248944603 -2 -2 -2 -1 -1 2 -3 0
1532261249089216 0 -1 -1 -2 0 2 1 0
1532261249206902 0 -1 -1 -1 1 1 -4 -2
1532261249282699 -1 -1 -1 -1 -2 -3 -1 0
1532261249364480 -1 -1 0 -1 -3 -1 -2 -1
1532261249426315 -1 -1 -1 -2 -2 -3 -1 -1
1532261249447258 -1 -1 0 -1 0 0 0 1
1532261249484159 -1 0 -2 -1 -1 -1 3 0
1532261249498123 -2 0 -2 -2 -2 -1 -4 -1
1532261249509093 -1 -2 0 -2 -1 0 -6 -3
1532261249620795 0 1 -1 -1 -1 0 -1 -3
1532261249688629 -1 0 -2 -2 -3 -4 -5 -1
1532261249700581 -1 -2 0 0 -1 -1 2 -1
1532261249724517 -2 -2 0 0 0 2 2 0
1532261249747455 -1 0 0 -2 -1 0 -2 0
1532261249769404 -3 -2 -1 0 0 -2 -2 -4
1532261249807296 0 0 0 0 2 1 -4 0
1532261249898053 -1 -3 -1 1 -1 -2 -1 -1

1532261249921989 -1 -2 -1 -2 -2 -2 -4 -1
1532261249965886 -1 -1 -2 -1 0 -2 -5 1
1532261249977839 -1 -2 -2 -1 0 1 2 -1
1532261250039678 -1 -2 0 -2 0 -2 -3 -1
1532261250085555 -1 0 -2 -1 -2 0 0 -2
1532261250153382 -2 0 -2 0 -2 1 -1 -1
1532261250176321 -1 -1 1 0 0 0 -2 0
1532261250242145 0 0 -1 -2 -1 -2 -2 -1
1532261250293008 0 -1 -1 0 -1 -2 -1 -2
1532261250339884 -2 -3 0 -1 -1 -4 -1 -1
1532261250382769 -2 -2 -1 0 -2 -2 -4 -2
1532261250429643 -2 -1 0 0 1 -2 -1 0
1532261250520400 -1 0 -1 -2 0 -5 -6 -1
1532261250526384 0 -1 -2 -2 -2 1 2 -1
1532261250623126 0 0 0 -1 -1 -5 -7 0
1532261250654043 -1 -1 -1 1 0 1 1 -3
1532261250814614 -1 -1 0 0 -2 -3 0 -2
1532261250857499 0 0 -3 0 -1 -2 -1 0
1532261250896395 0 -1 0 0 -2 0 -2 -1
1532261250962245 -2 1 -1 0 -1 -1 -3 -1
1532261251238506 0 1 -2 0 -3 -2 -4 -1
1532261251329264 0 -1 1 -3 -1 1 0 1
1532261251367163 0 -1 0 -3 1 -2 -5 -1
1532261251397082 -2 0 0 0 0 -1 -4 0
1532261251449941 -1 0 -1 -2 -2 0 -2 -2
1532261251540698 -1 -1 -1 -1 0 -1 1 -2
1532261251608517 0 0 0 0 -1 1 0 -1
1532261251630459 -1 -1 0 -2 -1 0 2 -1
1532261251689301 1 0 -2 0 -3 0 -1 -1
1532261251720218 0 -1 -1 0 -2 -3 -1 -1
1532261251796016 -1 -4 0 -1 1 0 -1 -1
1532261251817957 -1 -1 -1 -3 -3 -4 -7 -2
1532261251839898 -2 1 0 -1 0 1 3 1
1532261251907717 0 0 -1 0 0 0 1 -1
1532261251923674 -1 -1 0 0 -2 -1 -3 -1
1532261251988501 0 -1 -3 -1 -2 -1 -6 -2
1532261252095216 1 1 0 -1 -2 1 -4 0
1532261252123141 -1 -1 -1 1 -1 0 3 0
1532261252170015 -2 0 -2 -1 -1 -5 -1 -3
1532261252183978 0 -1 -1 0 0 0 0 -1
1532261252214896 0 0 -1 -1 -1 -1 -2 -1
1532261252251798 -1 -1 -2 0 -2 -3 0 -1
1532261252319615 -1 -2 -1 0 -1 0 -1 -1
1532261252381465 -2 0 -1 -3 0 3 3 -1
1532261252462234 -1 -2 -3 -1 -1 -2 -2 0
1532261252468218 -1 -2 1 -2 0 1 0 -2
1532261252514096 -1 -3 -1 -1 -2 -3 -1 -1
1532261252528066 1 1 1 0 -1 -1 -2 0
1532261252589893 -2 2 -1 0 0 2 -1 -2
1532261252604883 1 0 -2 -1 -1 1 -2 -2
1532261252658709 -2 -3 -2 -2 -1 -2 3 0
1532261252695609 -1 -2 -1 0 0 -3 -4 -1
1532261252718548 0 0 -2 0 0 2 0 0
1532261252754453 1 0 -3 -1 -2 -4 0 -1
1532261252777391 -2 0 -1 0 -2 -4 -5 -1
1532261252837231 -1 -1 -1 -2 -2 -4 1 -1
1532261252852191 0 -3 -1 0 -2 -3 -2 1
1532261252889093 0 -1 -1 -1 0 -2 0 -2
1532261252913028 1 -3 -1 -2 -2 0 -1 1
1532261252978853 -2 -1 -1 -2 -2 1 -1 0
1532261253031711 -1 0 -1 -2 0 -2 -2 -3
1532261253091551 0 -1 -2 -1 0 -1 1 0
1532261253137429 -1 0 -1 -2 -2 2 0 -1
1532261253182308 1 0 -1 -2 -1 -4 -9 -3
1532261253249130 -1 -3 0 -1 1 1 -1 -1
1532261253316948 -1 -3 -2 -1 -2 -1 0 1
1532261253354852 0 -1 0 0 0 2 1 -1
1532261253399727 0 0 -1 -2 -1 0 -2 -1
1532261253505453 -1 -1 -2 0 0 2 -1 -2
1532261253557305 -2 -1 -1 0 -1 -1 3 1
1532261253594207 0 0 -3 -1 -1 -5 -1 -2
1532261253617145 -1 -2 -1 0 1 0 1 -2
1532261253759765 -1 -1 1 -2 -1 0 0 1
1532261253828581 -2 -1 -1 0 -1 3 4 -1
1532261253947263 -2 -1 -1 -1 -1 1 -3 0
1532261254104842 0 0 0 0 -1 -1 1 -1
1532261254238484 0 -2 0 -2 -1 -3 -2 -4
1532261254362153 0 0 -1 0 0 3 2 -2
1532261254406037 -1 -1 -2 0 -1 -1 1 1
1532261254420996 0 -1 0 0 0 0 -2 -1
1532261254455903 -2 -2 -1 1 0 -3 -1 -1
1532261254478841 1 -1 -2 -1 -1 -1 0 -1
1532261254502777 -2 -1 0 0 -2 -4 -7 -2
1532261254524718 -1 2 0 -2 1 0 0 -2
1532261254546659 -1 -2 -2 -2 0 -3 0 0
1532261254598522 -3 -3 -2 -1 -2 -1 0 -2
1532261254616476 3 -1 -2 1 -1 -1 2 -1
1532261254636420 0 -1 -1 -2 -2 0 -2 -4
1532261254683294 -2 -1 -1 0 0 0 -1 1
1532261254697258 -2 -1 0 -1 -1 -2 -3 -1
1532261254720196 -1 0 0 -2 -1 -3 3 -3
1532261254742137 0 -2 -3 -1 -2 -1 -2 0
1532261254757098 -1 0 -1 -2 -1 -1 -2 -1
1532261254779038 0 0 0 2 -1 1 1 -1
1532261254824916 -2 -1 -1 -3 0 -3 1 -1
1532261254868798 -3 -1 -1 -3 -1 -1 -6 -2
1532261254939609 -1 -1 -1 -1 1 -1 -1 -2
1532261254944595 -5 -2 0 -2 -1 0 0 -2
1532261254976511 0 1 -1 1 -2 0 1 0
1532261254982494 1 0 -1 0 -1 -1 0 0
1532261255018399 0 -2 -1 -2 -4 -1 -2 -1
1532261255049327 -1 -2 -2 -3 -1 0 -1 -2
1532261255056308 -1 -1 1 1 0 -2 -3 -1
1532261255124127 1 -1 1 -1 -1 0 2 -3
1532261255147066 0 0 0 1 1 -3 0 -3
1532261255170005 -1 0 -3 -2 -1 -1 0 0
1532261255191946 -1 -1 0 -1 -1 0 -1 0
1532261255214884 -1 -1 1 0 -2 -1 -3 -1
1532261255237823 -1 -2 -3 -2 -1 1 -3 -1
1532261255251786 1 -1 0 -2 -4 -1 0 0
1532261255281706 -1 -1 -3 -1 -2 -2 -3 0
1532261255303647 -1 -2 -2 -1 -1 -1 3 0
1532261255342551 -2 -1 -1 0 -1 -1 0 -2
1532261255355510 0 -1 -1 -1 0 0 -3 0
1532261255382436 -1 0 -1 -1 -2 -2 -5 -2
1532261255499124 0 -1 -2 -1 -3 0 0 -1
1532261255522076 0 0 -1 -1 0 -1 0 -1
1532261255604853 1 -1 -2 -2 -2 -1 1 -1
1532261255685626 -1 -1 -2 -1 0 0 -1 -1
1532261255793337 0 0 -1 -2 -3 -3 -3 0
1532261255844202 -2 -1 -2 -1 0 0 -1 -1
1532261255882101 -1 -1 -2 -1 -1 0 -1 0
1532261255912020 -1 -2 -1 -1 -1 -4 -5 -1
1532261255933962 -1 -2 -2 -1 -2 -2 1 -2
1532261256070596 -1 0 0 -1 -2 -4 1 -2
1532261256076580 -1 -1 -1 -1 -1 0 2 0
1532261256129439 0 -1 0 0 0 -2 -2 0
1532261256189279 -1 -1 -2 -2 0 -1 -3 -1
1532261256249119 0 -1 1 0 0 -2 2 1
1532261256280036 -1 1 -1 0 -2 1 0 0
1532261256325914 -1 0 0 -2 0 0 2 1
1532261256346858 -1 -1 -1 -4 0 0 -2 -1
1532261256384756 0 0 0 1 -3 -2 1 -1
1532261256397721 1 -2 -1 -1 1 -1 0 0
1532261256459556 -1 -1 -3 -1 0 0 -3 -1
1532261256505434 0 -1 -2 -1 -1 4 -5 -2
1532261256556298 0 -1 -2 -2 -2 0 2 0
1532261256605182 -1 -1 -2 -2 -1 -1 2 1
1532261256627121 -2 -1 -2 -1 -1 -2 0 0
1532261256648052 -2 -2 -1 0 -2 -2 -2 -2
1532261256684953 -1 -1 -1 -2 -1 0 -3 -1
1532261256706905 -1 -2 -2 -2 -1 -1 -2 -1
1532261256743796 -1 -1 0 0 -2 -2 -1 0
1532261256767732 0 0 -2 -1 -1 -1 -1 -2
1532261256918330 -2 -2 -2 1 -1 -1 -2 0
1532261256926308 -2 -4 -1 0 -2 -1 1 0
1532261257007092 -1 -2 -1 -1 0 0 -1 -3
1532261257097849 0 -1 1 -2 -1 -3 -1 -1
1532261257156692 -2 -1 0 -2 0 -1 1 2
1532261257209551 -1 -1 -1 -1 0 -3 0 0
1532261257239478 -1 0 2 1 -1 -1 -1 -1
1532261257292329 -1 0 -1 -1 -3 1 -3 -2
1532261257315268 -1 1 -2 -1 1 0 0 -1
1532261257347183 -1 -1 -3 -1 -1 0 -1 0
1532261257413006 0 -2 0 -2 -1 -3 0 0
1532261257458884 -1 0 -1 -1 -1 -2 -2 -2
1532261257472859 -1 -1 -1 0 -2 -2 0 1
1532261257524707 -3 -2 -1 -1 -1 -2 -3 -3
1532261257570585 0 -2 -1 -1 -1 -1 0 0
1532261257607487 1 2 0 -2 -1 -1 0 -1
1532261257691262 -1 0 -1 0 1 -2 0 -1

1532261257737147 0 0 -1 -2 -1 -1 1 -3
1532261257772049 0 -2 -3 -1 -1 -1 -3 0
1532261257823908 1 0 0 0 -1 -2 -1 -1
1532261257897710 -2 -1 0 0 -1 1 3 -1
1532261257929625 -3 1 -1 -2 -1 -3 -1 -3
1532261257951566 -1 -3 -2 -1 -1 0 -1 0
1532261257967539 1 1 -1 0 -3 -1 0 -1
1532261258013401 -1 0 -2 1 0 0 -1 -1
1532261258028361 -2 -2 -2 -1 0 0 -2 0
1532261258071246 -2 -2 -1 -1 -1 -3 -1 -1
1532261258087204 -1 -2 -1 -2 1 0 0 -2
1532261258109145 -1 -1 0 -1 -1 -2 -1 0
1532261258184942 0 -3 -1 -1 -2 1 -2 -2
1532261258268718 2 1 -1 -1 1 0 2 -2
1532261258274702 -1 0 -1 -1 -1 -1 -1 -1
1532261258303625 -1 -2 2 -1 -2 -2 0 0
1532261258326564 0 -2 -1 0 0 -3 0 -2
1532261258349502 -1 -1 -1 -3 0 0 0 0
1532261258363464 -1 -1 -1 -1 -2 -3 -1 0
1532261258409342 -1 -1 -3 -1 -2 -1 0 0
1532261258454222 -2 -2 -1 0 -1 1 -1 -1
1532261258523038 -1 -2 -1 -2 0 -2 -3 -1
1532261258583875 0 0 -1 -1 -2 -1 0 0
1532261258590857 -1 -1 -1 -1 -2 -3 -2 0
1532261258649699 0 -1 -1 1 0 -3 -1 -2
1532261258702558 -1 -1 -2 -1 -2 -1 0 -1
1532261258757416 -1 -1 -1 1 -1 -1 -2 -1
1532261258779353 -3 -1 -1 -2 0 1 -1 1
1532261258844179 0 -1 0 -2 -1 1 1 -2
1532261258911998 -1 -1 4 4 4 -13 2 1
1532261259033673 -3 -14 -8 -25 -50 16 1 2
1532261259144377 -4 -14 -7 -7 -1 -2 -6 -1
1532261259182278 1 2 -3 -5 2 -3 3 1
1532261259258107 0 -3 -4 -5 -5 -4 0 0
1532261259331910 -4 -1 -6 -4 0 -1 -5 -2
1532261259392747 53 -1 2 -1 -2 -1 -27 -39
1532261259428651 -42 -30 1 3 -4 -8 -26 1
1532261259603184 -2 -7 -5 -26 1 -17 21 -3
1532261259655046 -2 -5 0 -4 23 -16 -5 -6
1532261259751787 -5 22 -36 -36 0 1 1 -20
1532261259774726 -30 -25 -35 -34 -9 -10 -9 -67
1532261259864485 17 -16 -13 0 2 4 10 15
1532261259887424 20 0 0 0 2 14 6 20
1532261259954246 20 -3 -2 18 0 -21 19 11
1532261259971200 0 -13 -18 -52 -14 -66 10 2
1532261260037024 0 -2 -11 -11 -12 1 -7 -4
1532261260113828 3 -79 -27 -5 41 -11 -10 -52
1532261260234496 -65 85 -9 -30 -7 15 -11 -47
1532261260291343 1 -11 11 -10 -57 -8 -3 -3
1532261260427979 1 -4 8 42 -29 -5 4 3
1532261260554669 -25 -6 -4 21 -14 2 0 -8
1532261260667957 -7 -11 -1 -10 -1 -1 -2 4
1532261260803594 0 -2 1 16 27 4 -5 1
1532261260818554 -5 -5 -9 -15 6 -50 -6 -3
1532261260864431 0 -1 -5 -10 -3 7 -8 1
1532261260884378 0 -1 3 -5 -21 14 -5 0
1532261260907316 -4 1 4 3 -34 50 -10 -1
1532261261042953 -3 -5 -9 -10 19 -15 -4 -2
1532261261048938 1 2 -5 -7 -18 -3 -6 -1
1532261261079854 1 -2 -1 0 -27 -24 4 0
1532261261093817 0 1 0 -3 -4 -2 -3 1
1532261261115758 1 2 0 1 4 7 9 1
1532261261161636 1 0 -1 -1 11 4 -4 -1
1532261261221476 -3 -1 -2 -1 -12 -6 -6 -3
1532261261263364 -5 -1 -1 1 -7 8 -2 0
1532261261321209 0 -2 -1 -1 -7 -8 0 -1
1532261261344154 1 -1 -1 -1 -6 1 0 0
1532261261359108 -1 0 0 -1 1 10 -7 1
1532261261379055 -2 -2 1 -1 -2 -2 -1 -1
1532261261393018 -2 -1 -2 -3 -3 3 -4 -3
1532261261528655 0 -1 1 0 0 -2 1 -2
1532261261576527 -2 0 1 -1 -1 -2 -3 0
1532261261603454 -3 0 0 -1 0 -1 0 0
1532261261623401 1 -1 -1 -2 -2 -1 2 -1
1532261261679252 -2 0 -3 0 -1 0 0 -1
1532261261693215 -1 -2 -2 -1 0 -4 -3 0
1532261261831844 0 -1 -1 -1 -3 -2 -2 -3
1532261261873732 -1 0 0 0 0 -4 1 -1
1532261261913625 -3 0 1 -2 -2 -1 0 1
1532261261920612 0 -1 0 -2 -1 -2 -1 0
1532261261995407 0 -2 0 0 -1 -3 -2 -2
1532261262129049 -2 -1 -1 -1 -2 -1 1 -3
1532261262177919 0 1 -1 -2 0 3 -2 -1
1532261262218809 0 -3 0 -2 -3 -1 -3 0
1532261262241747 -1 -1 -2 -1 -2 -1 -3 -2
1532261262303582 0 -2 -2 -1 -1 -1 -1 1
1532261262386368 -1 -2 -2 -2 -3 -2 0 -1
1532261262452185 -1 0 0 -1 2 0 2 -1
1532261262474127 -2 -1 0 0 0 -1 -2 -1
1532261262496068 -2 -1 1 -1 1 1 -1 -1
1532261262706505 -1 -1 2 0 -1 -1 -6 -2
1532261262745401 2 -1 -1 1 -1 0 -1 3
1532261262842154 -1 -2 -2 -1 -1 -2 2 -1
1532261262941875 -2 0 -2 0 1 -1 -3 -3
1532261262984760 -1 -1 -2 -3 -2 -2 -2 0
1532261263023657 -2 -1 0 -2 1 0 -3 -2
1532261263058564 -1 -2 -2 -1 0 -3 1 0
1532261263203177 0 0 -1 -1 -2 -2 1 -2
1532261263300915 1 1 -2 -1 -2 -6 0 -2
1532261263306900 -2 -2 -3 0 0 -4 1 0
1532261263381700 0 2 -3 -2 -2 -1 1 0
1532261263563214 -2 0 0 -2 -3 -1 -1 -1
1532261263584158 -1 -1 -1 -1 -1 -1 0 -2
1532261263599118 -1 0 -2 -3 1 -3 -1 -4
1532261263651976 -1 -1 -1 -2 -1 1 -1 -1
1532261263683892 0 -1 -2 0 3 0 0 -1
1532261263855432 -2 -2 0 -1 -1 -1 -1 1
1532261263890340 -1 -2 0 -1 -1 -2 -1 -1
1532261264027971 -1 -1 -1 0 1 0 -1 0
1532261264117732 0 -2 -1 0 0 1 -2 0
1532261264328168 -1 -1 -1 -1 -1 -4 -6 -1
1532261264349113 0 -1 -1 -3 -1 -2 -3 -2
1532261264411945 -2 -1 0 1 0 1 1 -1
1532261264446851 -2 1 -2 -2 1 0 -1 0
1532261264506692 -3 -1 -1 -1 0 1 -2 -2
1532261264535614 1 -3 -1 -3 1 -2 1 -1
1532261264629363 -1 0 -1 -1 -3 -3 -2 -1
1532261264651304 -1 0 -1 1 1 2 -2 -1
1532261264672248 -1 -1 0 -1 2 -2 0 -2
1532261264709149 -2 0 1 0 -1 1 2 -2
1532261264747049 0 -2 -1 -1 -2 0 -1 -1
1532261264784947 -1 1 0 -1 1 -1 -2 -1
1532261264814867 -1 -1 -2 -2 0 -2 0 0
1532261264859747 -1 -1 0 -1 -1 -1 -1 -1
1532261264966462 -1 1 -1 -2 -1 1 0 -1
1532261264978430 -2 -1 -1 0 1 -3 0 0
1532261265092126 -2 0 0 0 -2 0 0 -1
1532261265204865 -2 -4 -2 -1 0 -3 0 0
1532261265229758 -1 0 -1 -2 -2 -2 -2 0
1532261265244717 -1 -1 -2 -1 -1 -2 -1 -2
1532261265286606 1 0 -1 0 -1 -1 0 1
1532261265391326 0 0 -2 0 0 -2 2 1
1532261265439197 -3 1 -1 0 -2 0 -2 -1
1532261265460149 0 -1 -1 -3 -2 -2 -1 0
1532261265485075 -1 2 -4 -3 1 1 -2 -1
1532261265507016 -1 -1 0 0 -2 1 -1 -2
1532261265549902 0 -1 -1 -2 0 1 -1 0
1532261265594781 -1 0 -1 -1 0 1 0 0
1532261265603758 -2 0 -1 -3 -1 -2 -2 -1
1532261265700499 -1 0 -2 -2 -1 -1 -2 -1
1532261265721443 -1 -1 0 -1 -1 2 1 -1
1532261265760339 0 1 -2 0 -1 -2 -1 0
1532261265797240 -2 -1 0 0 -1 2 1 -3
1532261265803224 -1 -1 -3 -1 -3 1 -1 -2
1532261265873037 -1 -1 0 -2 0 0 -2 0
1532261265909938 -1 0 1 -2 1 0 3 -1
1532261266016653 -2 -1 1 0 0 1 2 0
1532261266061534 0 0 1 -2 -1 1 -2 -1
1532261266067518 -1 -2 0 0 -1 -2 1 -1
1532261266089459 1 -1 -1 -1 -2 -4 -3 0
1532261266119379 -1 -1 -2 0 0 1 1 -3
1532261266149299 -1 1 0 -1 1 2 0 -1
1532261266172237 -1 0 -2 0 -2 1 -1 0
1532261266224098 0 -2 -2 0 1 0 1 0
1532261266298899 -1 0 -2 -2 -1 1 -1 0
1532261266315854 -1 1 -2 0 -2 0 1 -1
1532261266353752 2 -1 0 0 -1 -3 -2 -1
1532261266366718 -2 0 1 0 -2 -1 -2 -2
1532261266510333 0 -1 -3 -2 -1 -2 -1 -1
1532261266593112 0 -2 -2 -1 -1 3 2 0
1532261266632007 0 0 1 -3 -1 1 2 1
1532261266831475 0 1 0 -2 -2 -1 -3 -1
1532261267184530 1 -1 -2 0 -3 0 -2 -1
1532261267205475 -1 -2 -1 -2 1 0 -2 -2
1532261267357069 -2 -3 -1 -1 0 1 -1 0
1532261267402946 0 1 -2 -2 -1 0 -1 -1
1532261267447826 -2 -2 -2 -2 -6 -1 -2 -2
1532261267461789 0 -2 0 0 13 -5 1 -3
1532261267482733 -1 -1 -1 -1 -2 -3 -4 -1
1532261267536613 -2 0 0 0 -6 3 -2 0
1532261267611413 -3 -3 -1 0 0 1 2 1
1532261267638341 2 -1 -2 0 2 1 -4 -1
1532261267659285 -1 -1 -1 0 -3 -4 -3 0
1532261267727116 -1 -2 -3 1 12 -1 -1 -3
1532261267741066 -1 -3 -1 4 -3 0 -1 -3
1532261267754034 -1 -3 -3 -2 1 -1 1 -1
1532261267791930 -3 -1 -2 0 0 2 -4 -3
1532261267884684 -1 -3 -3 -1 0 -1 0 -2
1532261268019322 -1 -1 1 1 -3 -2 -2 -3
1532261268024308 -1 -1 0 0 0 -3 0 -1
1532261268084148 0 -2 0 0 -1 0 -2 -2
1532261268281631 -1 0 0 -1 1 0 0 -1
1532261268295583 0 -2 -1 0 0 0 2 0
1532261268317524 -1 -1 -1 -2 -1 -2 -2 -2
1532261268361406 -1 -2 -3 0 -2 -2 0 -1
1532261268468122 -2 -1 1 -1 -1 0 0 1
1532261268511007 0 -1 -2 -1 -4 -4 -1 -1
1532261268557882 -2 -2 -2 0 -1 -2 -1 0
1532261268571886 0 -2 -2 -2 1 0 -3 0
1532261268624703 0 -2 0 -1 -1 -1 -2 2
1532261268633678 0 0 -1 -2 -1 -1 0 -2
1532261268654623 -1 1 -1 -3 -3 -1 3 0
1532261268683546 -3 -1 -2 -2 -2 -1 0 -1
1532261268768318 -3 -2 -2 -1 -1 0 -1 1
1532261268814197 -1 0 0 -1 -2 -1 -1 -2
1532261268836137 -2 -3 0 -1 -1 -2 1 0
1532261268851098 -1 0 -2 -2 0 1 -4 0
1532261268924900 -3 -1 -2 0 0 1 -1 0
1532261269014660 0 -2 0 1 -1 1 -4 -1
1532261269022639 -1 1 -1 -1 0 -1 -1 0

1532261269114394 -2 -2 -1 -1 -1 0 0 2
1532261269128356 -2 -2 -2 -1 -2 -1 0 -1
1532261269165258 0 -3 -1 0 0 -2 -5 -1
1532261269216122 -2 -1 -3 0 0 -1 -2 -1
1532261269390655 -1 -1 0 -1 1 0 0 -1
1532261269405622 -4 -3 -1 -1 0 -1 0 -1
1532261269427573 0 -1 0 -2 -1 -1 0 -2
1532261269441518 0 -2 -1 -1 -2 -1 -1 -2
1532261269501359 -2 -2 -3 -1 -1 1 2 -1
1532261269516318 1 -3 0 -2 0 -3 -2 -2
1532261269555233 -1 0 -1 0 -1 0 -2 -2
1532261269601094 0 0 -3 -2 -3 -3 1 1
1532261269644975 1 -2 0 -3 -1 3 -1 -2
1532261269667913 0 0 0 0 -1 -3 -1 -1
1532261269704815 1 0 -1 0 -1 1 -1 -1
1532261269718796 -2 0 -1 -1 -3 -1 1 -1
1532261269764687 -2 -3 0 -2 0 -1 -1 1
1532261269901310 0 -1 -1 1 -2 1 -3 -2
1532261269923250 -1 -2 -1 1 0 -1 -3 0
1532261270019244 0 0 2 -2 -2 -1 -1 -1
1532261270058139 -2 -1 -2 0 0 0 1 -1
1532261270116982 -2 -2 -2 -2 0 -2 -2 0
1532261270156876 0 -1 -1 -3 -2 -1 -2 0
1532261270208737 -2 0 -1 1 -1 0 0 -2
1532261270220705 -1 -3 1 -1 -1 -1 -3 0
1532261270237659 1 -1 -3 -1 0 -2 0 -3
1532261270258603 2 -2 -1 -1 -2 -1 0 0
1532261270296502 -1 -1 -2 0 -3 0 2 1
1532261270318443 0 -1 1 0 0 0 -1 0
1532261270342380 -1 0 -3 -2 -1 -1 0 -2
1532261270387259 0 -2 0 0 -2 -1 -2 0
1532261270435132 0 -2 -2 0 -1 -1 -1 0
1532261270500955 0 -1 1 -2 -1 -2 -2 -1
1532261270521913 -1 -1 -1 1 -2 1 1 -1
1532261270566779 -2 -1 -2 -1 0 0 0 -1
1532261270597697 0 -3 -2 -3 -2 0 -3 -1
1532261270620635 -2 -3 -1 0 -1 -1 -1 -2
1532261270649558 -2 -2 1 0 -1 -1 1 -1
1532261270673494 -2 1 -2 -1 -1 -3 1 -1
1532261270690464 1 -1 -1 -1 0 -1 -1 -1
1532261270733350 0 0 -1 -1 0 0 -1 0
1532261270754278 1 0 0 -1 -1 -1 -2 -1
1532261270793174 1 -1 -1 -1 0 2 1 -2
1532261270802150 -2 -1 -1 -1 -1 -1 -1 1
1532261270844038 0 -2 -2 -1 -1 -1 -1 1
1532261270889915 -1 -3 -1 1 -2 -1 0 -1
1532261270933798 0 -2 -1 0 -2 -1 -1 -3
1532261271009595 -2 -1 0 -1 0 -2 0 0
1532261271032534 -1 -2 -1 -2 -1 -3 0 -2
1532261271054476 0 -1 -1 0 -2 2 0 -2
1532261271084395 -2 0 -1 -2 -3 -3 0 -1
1532261271122294 -1 -1 -1 -1 -3 2 -1 -1
1532261271152214 -2 -1 0 1 -1 -5 -1 -1
1532261271212071 -3 -2 1 -1 -1 -1 1 0
1532261271243977 -1 -2 -2 1 -2 -2 -2 -1
1532261271263915 1 -2 1 -1 -2 -1 0 0
1532261271315776 1 -2 -1 -2 0 -2 -2 -1
1532261271348688 -2 -3 -1 -2 -1 -2 -1 0
1532261271361653 0 -2 -2 -2 -1 -2 -1 1
1532261271444433 -1 -1 -1 -1 0 -1 -2 -1
1532261271497291 1 -1 -1 0 0 1 -1 0
1532261271519232 -1 0 -2 1 -1 -1 -1 -1
1532261271567104 0 -1 -1 -1 0 0 2 -3
1532261271625947 0 -2 0 1 0 -2 -2 0
1532261271652875 0 0 0 -1 0 -2 -2 0
1532261271744629 0 -1 0 -1 -2 -3 0 0
1532261271797488 -1 0 0 -1 1 -1 0 -2
1532261271888246 -3 -3 -1 0 -1 -1 0 -1
1532261271947088 -2 -2 0 -1 1 -2 0 0
1532261271961051 -1 0 0 -1 -1 -1 0 0
1532261272020891 -2 0 -2 -1 -2 -3 -3 -3
1532261272074747 -2 -1 -1 -2 0 1 -1 -1
1532261272119627 -1 1 -1 -1 -3 -3 1 0
1532261272171488 0 0 -2 -1 -3 1 -1 -2
1532261272442774 0 -2 0 1 0 2 3 -2
1532261272455741 -2 -1 0 -1 -1 2 3 -2
1532261272509586 1 -2 -2 -1 -2 -1 -1 -1
1532261272547483 0 -4 -2 1 -1 -2 0 0
1532261272570434 -1 -1 -3 -1 -1 -1 -4 1
1532261272659193 0 -3 0 -3 -1 2 2 0
1532261272707056 -2 0 0 -1 -1 -2 -1 -2
1532261272719024 -1 0 -1 -1 -1 -7 -7 -2
1532261272749941 0 -1 0 -1 1 2 0 -2
1532261272787840 0 1 -1 1 -1 -15 -2 -1
1532261272809781 -1 0 -1 -2 -4 -11 -5 -2
1532261272885579 -2 -2 -1 1 1 -2 3 -1
1532261272961376 0 -1 0 0 1 7 3 0
1532261273006256 -3 -1 -1 -1 -2 15 -5 -3
1532261273027200 1 -3 -2 -1 -1 -2 -1 -1
1532261273071083 -2 -1 -1 -1 -4 -8 -2 -1
1532261273282517 6 -1 -2 -2 -3 6 0 -1
1532261273290496 1 -2 0 1 0 -12 0 1
1532261273303461 -2 0 -1 0 -2 3 -1 0
1532261273403194 7 -2 0 -1 -3 -31 -8 -9
1532261273425136 0 1 -1 -2 -5 -26 -6 32
1532261273553792 -3 0 -1 -1 -1 15 -5 -8
1532261273589696 -2 0 1 1 -2 -12 -5 -1
1532261273620613 -2 0 -1 -2 -1 11 3 -2
1532261273846010 -1 -2 -2 -1 -4 -40 -2 0
1532261273868949 -1 -2 -1 -3 -2 -7 -8 -1
1532261274016554 1 -1 -3 -1 0 -3 1 0
1532261274093349 0 0 -2 -1 0 0 0 0
1532261274364624 -1 -1 0 -1 -1 1 0 -1
1532261274385567 0 -1 -1 -1 -1 2 2 -2
1532261274519209 0 -2 -3 0 -1 2 -1 -1
1532261274580047 0 0 0 -2 0 -4 -5 -1
1532261274663823 0 -1 0 0 -1 0 -5 -1
1532261274684767 0 -2 1 0 -2 0 -4 -1
1532261274751589 -2 -4 -2 0 -2 -7 -1 -1
1532261274858303 -2 -1 -2 -3 1 3 0 0
1532261274918143 -2 0 2 -1 0 3 0 -2
1532261274942079 -2 -3 0 0 -1 2 1 -1
1532261274957045 -2 0 -2 1 0 -6 0 -3
1532261274999924 -1 -2 -1 -1 -1 3 0 -1
1532261275013887 0 -1 -1 -1 1 3 -2 -2
1532261275027850 1 -1 -3 -2 -1 2 2 -1
1532261275073728 -1 -2 -2 -3 -2 2 -2 -3
1532261275113621 -2 -2 -2 -1 -3 -2 0 0
1532261275127583 -1 0 1 0 2 0 0 1
1532261275193407 -2 -3 -2 -2 -2 -1 1 -1
1532261275234298 -2 -1 -2 -2 -2 -3 0 -2
1532261275239285 1 -1 -2 -2 0 3 0 0
1532261275256240 -2 -1 -1 -1 -1 1 2 0
1532261275291146 -1 -1 -1 -1 -2 -2 -1 0
1532261275351983 -1 -2 -2 -2 1 1 -2 -1
1532261275428778 1 -1 -2 0 -2 1 1 -2
1532261275450719 1 -3 -1 -2 -1 0 -4 -2
1532261275502581 -2 -2 -3 -2 10 -2 -8 -1
1532261275532500 -3 -2 -3 -1 -1 -2 -2 -2
1532261275576383 -1 -1 -1 -1 0 -1 -2 0
1532261275592341 -1 0 0 0 -2 -4 0 2
1532261275668138 -1 -1 -2 -2 -2 1 3 0
1532261275748922 0 -2 1 -1 -1 0 -2 -2
1532261275772858 -1 -2 -1 0 -1 0 -2 -1
1532261275787818 -1 -2 0 0 -2 0 -3 -2
1532261275816740 -1 -1 -1 -3 -2 -1 -3 0
1532261275898521 0 -1 -3 1 0 -1 -1 2
1532261275937418 0 -1 -1 0 0 -1 -4 -1
1532261275991273 0 1 -2 -1 -2 -5 1 0
1532261276049127 -7 -2 -2 -3 -1 -1 0 -1
1532261276068068 2 0 0 0 -2 1 2 -2
1532261276079039 0 -1 -1 -1 1 1 1 -1
1532261276116938 -2 -1 1 -2 -1 -2 0 -2
1532261276138889 0 1 -2 -1 -1 -1 -3 -1
1532261276160820 -1 -1 -1 0 -1 -3 -1 0
1532261276193732 0 0 -1 -1 -1 -1 0 -2
1532261276312415 0 -1 0 -1 -1 -2 0 0
1532261276329370 -2 -2 -1 1 0 3 2 1
1532261276349316 -2 0 -1 -1 -3 -2 -5 -3
1532261276379236 0 0 0 -1 -2 -1 2 -2
1532261276431098 -1 -3 -2 0 -1 -3 -2 -1
1532261276603636 0 0 1 -1 -2 1 -2 2
1532261276626575 -1 -2 -1 2 -1 -2 -1 -1
1532261276678437 -1 -1 0 -1 -1 1 0 0
1532261276716335 -2 0 0 -2 -1 1 -3 -1
1532261276814073 0 -2 -1 -2 0 0 -5 -2
1532261276838009 0 0 -1 -1 0 4 -3 0
1532261276860948 -1 0 -3 -4 -10 2 2 0
1532261276897850 1 -1 -1 0 1 0 -2 -2
1532261276919791 -1 -2 -3 -2 1 -2 -5 0
1532261276956692 -1 -1 -1 -1 -2 -2 2 -2
1532261277016532 -1 -1 -1 -2 -1 -1 -1 -2
1532261277115268 -2 -2 -1 0 1 2 2 1
1532261277161160 -1 -2 -2 1 -2 -3 -3 -1
1532261277181092 -1 0 -1 -1 -1 0 -1 0
1532261277218991 -1 -2 -2 -2 -3 -1 -1 1
1532261277415465 -1 1 -2 -1 1 0 0 -1
1532261277439406 -1 -1 0 -2 -2 0 -2 1
1532261277654825 1 -3 -1 0 -3 -3 -2 0
1532261277695716 -1 0 -2 -1 2 1 -1 -2
1532261277730622 -2 0 -1 -1 0 0 -1 -2
1532261277758548 0 -1 -1 -1 -2 -1 -2 1
1532261277827364 -2 -2 0 -1 -1 -2 -1 -1
1532261277856288 -1 0 -2 -1 -2 1 -2 -2
1532261277880223 0 -1 -1 0 -1 0 -1 -1
1532261277969996 -2 -1 -1 -1 0 -2 -1 -1
1532261277991924 -1 0 1 0 -1 -2 -1 -2
1532261278037801 1 0 1 1 0 3 4 2
1532261278095646 -2 -1 -3 -2 -1 -1 -1 -1
1532261278157481 -1 0 -2 1 -3 2 -2 -2
1532261278180420 -1 -2 0 -1 -1 1 -2 -2

1532261278249236 -2 0 0 0 -2 3 -2 0
1532261278271177 2 -1 -1 -2 2 1 0 0
1532261278286137 -1 -3 -2 -1 -1 -3 -1 1
1532261278322040 -1 -2 0 0 -1 1 -1 -1
1532261278382878 0 0 -2 -1 0 -2 -1 -2
1532261278458675 -2 -2 -1 -1 -1 -2 0 -1
1532261278480617 0 0 -2 -1 -1 -2 3 0
1532261278503558 -2 -4 -2 -1 -2 0 -1 -1
1532261278526494 -2 0 -1 -1 0 -1 -1 0
1532261278547438 0 -3 -1 0 -2 -2 -3 -2
1532261278622257 -1 1 0 0 0 2 1 0
1532261278644179 2 -1 -3 -1 -1 -5 -2 -2
1532261278781812 -1 -1 0 -2 1 0 -2 0
1532261278810734 1 -1 -2 -1 -2 -1 -1 -2
1532261278838660 -1 -2 -2 0 -1 1 -1 -2
1532261278883539 -1 -1 -1 -1 -1 0 0 -1
1532261278898500 -1 0 -1 0 1 -3 1 0
1532261278967316 -2 -2 0 0 -1 -3 -3 -1
1532261279057076 -2 0 0 0 -2 -1 -1 1
1532261279102953 0 0 0 -2 -2 -3 3 0
1532261279116929 -2 -1 -1 -1 -2 1 0 -3
1532261279137859 0 -1 -1 0 -1 1 0 -1
1532261279197699 0 -1 -1 0 -2 0 -1 -2
1532261279267513 -2 1 -1 -1 0 -2 4 0
1532261279311395 0 -3 0 0 -1 -1 0 -2
1532261279357272 -1 -1 -1 0 -2 1 0 1
1532261279395171 0 0 0 -1 -1 -1 -2 -3
1532261279447033 0 0 1 0 -1 1 -3 0
1532261279575688 0 -2 -1 0 0 0 2 1
1532261279635534 -2 -1 -1 1 -2 -2 -1 -1
1532261279659465 -1 1 -1 -1 -1 0 0 -1
1532261279678414 -2 -1 0 0 -1 0 2 1
1532261279761193 1 0 -1 -1 0 0 -2 0
1532261279913785 1 -1 -1 -3 -1 -5 -8 -1
1532261279936723 1 -2 -2 -1 0 2 -2 -2
1532261280009529 -1 -1 -2 0 -3 -1 -1 -1
1532261280099288 0 -2 0 -1 0 -5 -4 1
1532261280191043 1 0 -2 -1 -2 -1 1 -1
1532261280286787 0 0 -2 0 0 1 2 1
1532261280309726 1 -1 -1 -1 0 -1 -3 -1
1532261280446361 -2 1 0 -1 0 2 0 0
1532261280473288 0 -2 -1 -2 -1 -1 -1 0
1532261280549085 -2 0 -1 1 0 -3 -4 -1
1532261280745560 -1 -2 -2 -3 -1 0 1 0
1532261280827342 -1 -1 -2 0 -2 0 -3 1
1532261280887181 0 0 -1 -2 -1 -4 -2 -2
1532261280960984 0 0 -4 0 1 0 -1 0
1532261281022819 1 -2 -1 -1 0 0 1 0
1532261281047752 0 -2 -2 -1 -2 0 0 -2
1532261281066702 13 0 0 -1 -1 -3 -1 4
1532261281080663 -5 -1 -2 0 0 2 0 -2
1532261281111595 2 -1 -1 0 0 -1 0 -2
1532261281133523 0 -1 -1 0 0 -4 0 0
1532261281166435 2 -2 -1 -2 2 -5 -4 -2
1532261281239241 1 0 -1 -1 -3 -9 1 0
1532261281257192 -1 -1 0 -2 0 -2 2 -2
1532261281337976 0 -2 -1 -1 0 -1 -5 -2
1532261281344957 -1 -1 -1 -1 1 -1 -2 0
1532261281366899 1 -1 0 -3 -2 -1 -2 -2
1532261281389838 -1 -2 -1 1 2 -3 1 -2
1532261281434717 0 1 0 -1 1 -1 -5 -2
1532261281464637 -2 0 -2 -2 -2 -2 -1 0
1532261281510515 -43 -4 -3 -3 0 2 0 -5
1532261281533453 -4 -4 -4 -2 -3 0 0 -2
1532261281577336 -3 -1 0 -1 -1 -2 -1 -1
1532261281615234 7 2 -1 -1 -1 2 1 1
1532261281666098 7 0 0 -1 0 1 1 -1
1532261281711976 3 -2 1 -1 -2 2 -3 1
1532261281735912 -2 -1 -1 -1 -1 -4 2 -2
1532261281764836 0 0 1 -1 2 2 0 -1
1532261281833650 -1 0 -3 -1 -2 -4 -2 0
1532261281856590 -1 0 -2 0 -2 -1 -3 -1
1532261281894488 2 0 0 -1 -2 -1 0 15
1532261281905459 -6 -2 -2 -1 0 0 -2 5
1532261281935379 2 -1 -1 -2 -2 3 -2 -4
1532261281980258 -2 -1 -2 0 1 -2 0 -2
1532261281997213 -2 -2 -1 -1 0 -2 -2 1
1532261282021150 -7 -2 -2 -1 -2 1 4 3
1532261282042109 -1 0 -1 -1 -1 0 0 -3
1532261282063037 0 -2 0 1 -1 0 3 1
1532261282111906 0 0 2 -1 -1 -2 -11 0
1532261282155789 -1 -1 -2 0 1 -1 5 2
1532261282169752 -2 0 -2 -1 -1 1 2 -1
1532261282326333 1 -1 -1 0 -1 -3 0 -3
1532261282356253 -2 -2 -1 -1 -1 -2 -2 -1
1532261282387170 1 -1 -3 -1 -2 -3 -3 0
1532261282411106 -2 -2 0 -1 0 1 0 -1
1532261282432050 -1 -1 0 1 -1 0 -1 1
1532261282468952 -4 -1 -1 1 -2 -2 -1 1
1532261282491890 0 -1 0 -3 -1 -1 -1 -1
1532261282521810 -2 -1 0 0 0 0 -1 -2
1532261282596610 -1 -1 -2 -1 -2 -1 -1 -1
1532261282649476 -2 -1 -1 0 1 -1 0 -3
1532261282671410 1 -2 -2 -3 0 0 0 0
1532261282687367 1 -1 -1 -1 -2 -2 1 -5
1532261282724269 -2 -2 -3 -2 -2 -2 -1 -1
1532261282777128 -1 0 -1 1 -1 0 -1 0
1532261282903788 -2 -1 -1 -2 -1 -1 2 -1
1532261282921741 -1 0 -2 1 -1 3 -1 -1
1532261282943682 -2 -1 -1 -2 0 -2 0 0
1532261282973603 -1 -1 -1 0 -2 0 -2 1
1532261283008509 -3 1 -1 -1 0 0 -4 -2
1532261283033442 -3 -2 -1 -2 -1 -5 0 0
1532261283055384 -3 0 -2 0 1 -1 -1 -2
1532261283122206 0 2 -1 -1 -1 3 -3 -1
1532261283137165 0 -2 -2 0 -2 -7 -5 -3
1532261283197005 -9 -5 -2 -1 -2 -2 1 1
1532261283221939 5 4 -1 -1 -1 -2 0 -1
1532261283265821 -2 -5 -3 -1 0 0 1 -2
1532261283280781 4 -1 0 0 0 2 0 -2
1532261283302721 -4 -3 0 -1 -1 -3 -4 -1
1532261283355582 1 -1 0 -2 0 0 -1 0
1532261283363559 -2 -1 -2 1 0 -1 0 -1
1532261283451324 -1 -1 -1 -2 1 -2 -1 -1
1532261283478253 0 -1 -1 -1 -2 -1 0 -1
1532261283499197 0 0 0 0 -2 -1 -2 0
1532261283522152 0 0 -3 -1 -1 3 -1 -1
1532261283543080 0 0 -2 -1 -2 -1 1 -1
1532261283558039 -2 6 1 0 -2 -3 1 -1
1532261283579981 0 -1 0 -2 0 -1 -4 -3
1532261283632840 -1 -6 -2 -1 -1 -3 1 0
1532261283660765 1 1 -3 -2 0 -1 0 -1
1532261283707639 -2 -3 -1 -2 0 -1 -3 -1
1532261283776460 0 -1 -2 0 0 -1 0 1
1532261283798396 -2 -2 -1 0 -1 -1 -2 -1
1532261283820338 -2 0 -2 -2 0 1 -1 0
1532261283835298 -3 -2 -2 -1 -1 -1 1 -1
1532261283856242 -2 -1 -2 1 -2 -2 -1 -3
1532261283901122 -2 -1 -1 -1 0 1 -2 0
1532261283932039 1 -1 0 -1 -2 -2 -1 -2
1532261283961959 -3 -1 -2 0 -7 -1 -7 -2
1532261284008838 -1 -2 0 1 2 -4 5 2
1532261284053714 0 -2 0 1 3 -3 -1 -3
1532261284075655 -1 -1 0 0 2 -4 -6 0
1532261284099591 0 2 -1 0 0 0 -2 -2
1532261284111559 -3 -2 -1 -2 0 0 1 -1
1532261284164418 -2 -2 -2 0 -1 -1 0 -1
1532261284216279 -1 -2 0 -1 0 0 -1 1
1532261284287090 0 0 -1 0 -2 1 0 0
1532261284337953 0 0 -2 -2 -1 -1 0 -1
1532261284375853 -1 -1 -1 -1 -1 -2 2 -1
1532261284539415 1 -2 -2 -3 -17 -3 -2 -1
1532261284608231 0 -1 -2 -2 -3 -2 -4 -1
1532261284631183 -2 -2 -2 -2 -1 0 0 1
1532261284673058 -1 2 0 0 -1 2 -3 -3
1532261284908429 -2 -1 -2 -1 -1 -1 -1 -1
1532261285070993 -1 -2 1 0 0 0 0 0
1532261285184702 -1 -2 -1 -1 2 2 2 -1
1532261285224583 -1 0 -1 0 -2 -3 -1 -2
1532261285259489 -1 -1 -1 0 0 2 -6 -3
1532261285298386 -1 -3 0 0 0 -2 -1 -2
1532261285387148 -1 -2 -3 0 0 3 0 -4
1532261285462945 -4 -2 1 1 0 0 0 -1
1532261285485884 -1 -2 -1 1 0 -2 1 -1
1532261285544727 -1 -1 0 0 -1 1 -2 -1
1532261285574647 0 0 1 -2 -1 -1 -1 -1
1532261285718263 -1 -1 0 -1 1 -2 -2 0
1532261285742199 -1 -2 0 0 -2 -2 -3 0
1532261285911745 -2 -1 -2 -1 -2 -1 -1 0
1532261286056368 -1 0 -2 -1 -1 -1 2 0
1532261286069324 0 -3 -2 -1 0 -2 -5 -1
1532261286107223 -4 0 0 -1 -1 -1 -1 -1
1532261286160084 1 0 -2 -1 1 -2 -5 -2
1532261286203963 -1 -1 -3 -2 -2 -2 -2 -2
1532261286233884 1 -2 -2 0 -1 0 -1 0
1532261286295719 0 0 1 -1 -1 2 -1 0
1532261286316662 0 -2 -1 -2 -2 1 3 -2
1532261286384481 -1 0 -3 -1 -1 3 -2 -1
1532261286429361 -1 -1 -1 -1 0 0 -5 -1
1532261286496183 -1 -1 -1 -2 -1 -3 -5 0
1532261286745516 1 -2 -2 -1 -2 0 1 -2
1532261286789399 -3 -1 -1 -2 -2 -1 0 -2
1532261286799385 0 -2 -2 -3 -1 0 -1 -2

1532261286888134 -1 0 3 -2 -1 -1 1 -1
1532261286983879 0 -1 -1 0 -1 -1 -1 -1
1532261287166391 0 1 -1 0 0 1 4 0
1532261287201296 0 -2 -2 -1 0 0 0 0
1532261287254217 -1 -1 -3 0 0 -1 -1 -1
1532261287332009 -1 -1 -2 1 -1 -2 -1 0
1532261287443721 -1 -3 0 -1 1 -2 -2 -1
1532261287486595 -2 -2 -3 -2 -1 -2 -2 -2
1532261287524494 0 1 -3 -2 -2 -3 -1 1
1532261287614270 -1 -1 0 -1 0 2 2 1
1532261287684066 -1 -1 -3 -2 -2 1 1 0
1532261287706009 -1 -1 0 0 0 -3 -5 0
1532261287711992 -4 -2 0 -1 -2 -2 -4 -1
1532261287740915 0 -2 -2 0 0 -1 -1 -1
1532261287749891 -1 -1 0 -1 -1 1 -2 -1
1532261287800755 1 -1 0 -2 0 -2 -1 -2
1532261287921432 -2 -1 -1 -1 1 4 0 -3
1532261287938387 1 -1 -1 -1 -1 -2 -1 -1
1532261287961325 0 -1 0 -2 -1 -1 -2 -1
1532261287998227 -1 -1 -1 -2 0 -1 -2 -1
1532261288027149 1 -2 -1 -1 -2 -1 1 -1
1532261288049091 -3 -1 0 -1 -2 1 -1 1
1532261288064050 1 0 0 0 -2 -2 -3 0
1532261288071032 -2 -1 1 -2 -6 -6 -2 -1
1532261288146829 -1 -1 -2 -2 1 0 1 0
1532261288169768 -1 1 -1 0 -1 1 -2 0
1532261288222631 -1 -1 -1 -3 -2 0 -1 -1
1532261288238584 -1 -2 -1 0 -1 -2 -1 0
1532261288268504 -1 1 -1 -1 -4 -1 1 0
1532261288274487 -1 0 0 -2 -2 0 -1 -1
1532261288310392 -1 -3 0 -1 1 0 0 -1
1532261288371229 0 -2 -1 -1 -1 -1 -1 -2
1532261288454008 -2 -1 -1 -1 -1 0 -1 0
1532261288477944 -2 -1 -2 -3 -5 -2 -2 -2
1532261288492904 1 1 0 -2 -3 -2 -3 -2
1532261288536787 -1 -1 -4 -2 -4 -3 -1 -2
1532261288552743 -1 -2 0 -1 -1 1 0 -1
1532261288589646 -2 -2 0 -2 -2 2 0 -2
1532261288612584 -1 -2 -1 0 -1 1 0 -1
1532261288657464 1 0 0 2 0 -2 0 0
1532261288710323 -1 -1 -3 0 -1 -2 0 -1
1532261288769165 0 -1 0 -2 -1 -3 0 -1
1532261288793101 -2 0 -1 -1 0 -2 -1 -3
1532261288815043 -1 0 -2 -2 0 -4 -3 -2
1532261288851944 0 -1 -1 0 -1 1 -1 -1
1532261288866904 -1 0 -3 -2 -1 2 0 -1
1532261288889842 -2 -1 -2 0 -2 -1 -5 -1
1532261288911784 -2 -1 1 -3 -1 0 2 -1
1532261289002541 -2 1 -1 -2 0 -8 1 0
1532261289071356 0 0 -2 -1 -2 0 -3 0
1532261289152141 0 7 1 1 -1 -1 0 -4
1532261289212979 1 1 -2 -2 -1 1 -1 -2
1532261289256873 -2 2 1 -1 1 2 -1 -2
1532261289324680 -2 -3 0 -2 -2 -3 0 0
1532261289370557 -1 -2 -2 0 0 -1 0 0
1532261289414440 0 1 -1 -1 0 1 -1 -2
1532261289452338 2 -1 -1 0 0 -4 -1 2
1532261289490237 0 -2 -1 0 -1 -6 1 1
1532261289580994 1 1 -2 0 -1 0 -2 1
1532261289624877 -2 0 -1 -1 -2 -8 -2 -2
1532261289647816 -1 -1 0 1 -1 0 -2 0
1532261289661783 1 -2 0 -1 -2 -2 -5 -2
1532261289691698 1 0 1 -1 -1 -3 -1 -2
1532261289705677 -1 0 -1 0 0 1 1 -1
1532261289744557 0 -3 -2 -3 -1 0 -2 -2
1532261289775474 0 0 -1 -2 0 -1 -2 -2
1532261289812375 -1 0 0 -2 -2 -2 0 0
1532261289932055 1 -1 0 -1 -1 1 -1 -2
1532261289961975 -2 -1 -1 0 1 1 2 -1
1532261289982923 0 -1 -1 0 -1 -3 -2 0
1532261290021815 -1 0 1 -2 -1 -1 -2 -1
1532261290180391 -1 -1 -1 1 -3 0 -1 0
1532261290218289 -1 -1 -1 -2 0 -2 -4 -1
1532261290292093 0 0 -1 -1 0 -3 1 -2
1532261290390828 -1 -2 -1 -1 -1 1 -1 -2
1532261290516493 -2 0 -2 0 0 -1 -2 -1
1532261290773804 0 -1 0 -1 -1 3 -3 -2
1532261290793751 1 -1 0 -2 -3 -4 -1 -2
1532261290988231 -1 -2 0 -1 -3 -7 -6 1
1532261291133847 -1 1 -2 -1 0 0 -2 0
1532261291291420 -2 -1 -2 -2 -2 -1 0 0
1532261291314359 -1 -2 -1 -2 0 -1 -3 -1
1532261291356247 -2 -1 0 -1 -2 -1 -1 -2
1532261291402124 -1 -1 -1 1 0 0 -3 0
1532261291453986 -1 -2 -2 -3 -2 0 -3 -1
1532261291523800 1 0 0 0 -1 -1 0 0
1532261291547735 -1 -1 -1 -1 -1 -5 -1 -2
1532261291570674 -1 -2 0 -1 -2 -3 -2 -2
1532261291604586 0 -1 0 -1 -1 2 0 0
1532261291633505 -1 1 -3 -1 -2 -4 1 -1
1532261291680380 -1 -1 1 0 -1 0 -7 -1
1532261291694343 0 -2 0 -1 -2 -1 0 0
1532261291716284 -1 1 -1 -1 -2 -3 -2 1
1532261291756185 -1 -1 -1 -1 -2 -1 1 1
1532261291801058 -1 -2 0 -2 -2 1 -1 -1
1532261291822999 -2 -1 0 -1 -1 1 -1 -1
1532261291851921 -1 -1 -1 -1 -1 -1 -3 -2
1532261291866881 0 0 2 -1 -2 1 0 -2
1532261291904780 -1 -1 -2 -2 0 -1 -2 0
1532261291926721 -2 -1 -1 -3 -1 2 -2 -1
1532261291956642 -1 -3 -1 -1 -2 -1 -1 0
1532261291987558 -1 0 0 -1 -1 -2 -2 0
1532261292002519 0 0 -1 0 0 -4 -5 -1
1532261292032439 -2 -1 -1 -1 0 0 2 1
1532261292078316 -3 -4 -1 0 -1 1 -1 1
1532261292100257 -1 -1 -3 0 -1 3 -2 -3
1532261292107239 -1 0 -4 -2 -2 -5 -3 -2
1532261292123196 0 -1 -3 -1 -1 -1 -4 0
1532261292174060 -1 0 0 0 2 1 0 -1
1532261292196001 -1 -2 -1 0 -1 -2 0 0
1532261292232917 0 -2 -1 0 -2 -2 -1 -2
1532261292256871 0 0 0 0 -1 -3 1 -2
1532261292309713 -1 -1 -1 -1 0 -1 0 0
1532261292332651 0 0 0 -2 -2 -1 1 -1
1532261292400470 0 -3 -2 -1 -1 1 -3 0
1532261292423408 -2 -1 -1 0 0 0 -1 0
1532261292459312 1 -1 0 -1 0 -2 -2 0
1532261292473275 -1 -1 -2 -1 0 0 -2 -2
1532261292519152 -1 -1 0 -2 0 0 1 1
1532261292542091 -1 1 -1 -1 -1 0 -1 0
1532261292609910 0 0 -1 -1 0 -1 -4 -2
1532261292653793 -2 -2 -2 -3 -2 -2 -2 -4
1532261292678726 1 1 0 -1 -2 0 -2 -1
1532261292701664 -1 0 -1 0 -1 -1 1 -1
1532261292767488 0 0 -2 0 -1 0 1 -2
1532261292796411 -1 -1 -1 0 0 -2 -1 -2
1532261292863233 -2 1 -1 -1 -1 0 -1 -2
1532261293059707 0 -1 0 -3 1 -6 -3 -1
1532261293218282 -1 -1 -2 1 0 -1 1 0
1532261293233242 0 1 -1 -2 -1 0 -3 -1
1532261293291088 -2 -1 -2 0 0 3 2 0
1532261293321008 -2 -2 0 -1 -1 0 -2 -1
1532261293547402 0 0 0 -2 1 0 -2 -2
1532261293599264 -1 -1 -1 1 -2 -1 0 -2
1532261293721952 -1 -1 -3 1 -1 -4 -3 -1
1532261293733904 -1 -2 0 -3 -3 -1 -1 -1
1532261293788762 -2 0 -1 -2 -1 -1 -1 1
1532261293838624 0 -1 0 0 -1 0 2 -2
1532261293907439 -1 -1 -2 -1 0 0 -5 1
1532261294066037 -2 -2 0 0 -1 -2 1 0
1532261294088976 0 -1 0 1 -1 1 -4 -2
1532261294103936 1 0 -2 -1 1 -2 -2 -1
1532261294137845 -1 -1 -2 0 -1 -3 -1 -2
1532261294318362 -1 -1 -1 -1 -2 2 -2 -2
1532261294381194 -1 -2 -2 -1 -1 -3 0 1
1532261294409119 -2 -3 -3 -1 -1 -1 -1 0
1532261294438042 -2 -1 0 0 0 5 -3 -1
1532261294460981 -2 -1 -2 -3 -2 0 -2 -1
1532261294484917 -1 -1 -4 0 0 -1 0 -1
1532261294619568 -1 -1 0 0 1 -2 1 1
1532261294643492 -1 0 0 -1 0 1 1 0
1532261294672416 -1 -1 -2 -1 0 -3 2 -3
1532261294725274 0 -2 -2 0 1 0 3 0
1532261294875871 -1 -2 -1 -2 -2 -4 -5 -3
1532261294934714 0 -2 -3 -2 -1 0 -1 -2
1532261294965631 0 0 0 0 0 0 2 -4
1532261294987580 -1 -1 -1 -1 0 -4 -2 0
1532261295009514 -1 -1 -1 0 -1 0 -2 -1
1532261295038454 1 -1 -1 -2 0 -5 -4 -1
1532261295153142 -2 -1 -1 0 -2 1 -1 -1
1532261295178063 -1 -1 0 -3 0 -1 -3 0
1532261295203994 -1 1 -2 0 -2 -3 -3 -2
1532261295240895 1 -1 -1 -2 1 -1 0 -1
1532261295271812 -1 -1 0 0 -1 -2 1 -1
1532261295309711 0 -2 -1 -3 -1 -1 -1 -2
1532261295384527 -1 -2 -2 -1 0 -3 0 0
1532261295452330 0 1 -1 0 -2 -2 -1 1
1532261295489240 -2 0 -1 -1 -3 -3 0 -1

1532261295549070 -1 -2 -1 0 0 -2 0 -1
1532261295571013 0 0 0 -2 0 1 -2 -1
1532261295616890 -2 -2 -1 -2 -1 -1 0 0
1532261295638832 -2 -2 1 -1 1 -2 1 -1
1532261295663776 -1 -1 -2 -1 0 -4 -1 0
1532261295684719 -2 -1 -1 0 -3 0 2 0
1532261295752538 -1 0 -1 -3 -3 0 0 0
1532261295812378 -1 -2 -3 0 -1 -1 -2 0
1532261295872231 -2 -1 -1 -3 0 -1 0 -1
1532261295918096 -3 1 -1 -1 -1 -1 -2 -1
1532261295961978 0 -1 -1 1 -2 -1 0 -1
1532261295987909 -1 -2 0 -1 -1 -2 1 -1
1532261296045754 0 -1 0 -1 -2 -1 -1 0
1532261296052736 -1 -1 -2 -1 -1 0 -1 -1
1532261296103602 -2 0 -1 -1 -2 -1 -1 -1
1532261296143493 -1 -1 -1 -1 -3 5 -4 -1
1532261296164437 -1 0 -1 -1 -1 -4 1 2
1532261296287109 1 -2 0 -3 -2 -3 0 -1
1532261296308053 -1 -1 0 0 0 -1 0 -1
1532261296323013 -1 1 -3 -1 0 -1 -1 0
1532261296342959 -2 -1 0 -2 0 -2 0 1
1532261296374874 -1 0 -1 0 -2 -1 -1 0
1532261296428730 0 -1 -3 -3 -4 1 0 2
1532261296472613 -2 -2 -2 0 -2 -4 -4 0
1532261296494554 -3 0 -2 -1 -1 -1 1 -1
1532261296525471 -2 -2 0 -1 -2 -3 -4 0
1532261296562373 -2 0 -2 0 0 -1 -1 -1
1532261296584331 -1 -1 0 -1 -1 0 -1 -2
1532261296620217 -1 -1 -1 -1 -2 -3 0 -2
1532261296674073 -1 -1 -1 -2 -1 2 -2 -2
1532261296697027 -1 0 -1 0 -2 -2 -1 -1
1532261296719959 0 -2 1 0 0 -1 -1 1
1532261296749871 0 -1 0 -2 1 1 -1 0
1532261296795748 -2 0 -1 -2 -5 1 3 0
1532261296819684 0 -1 -2 1 13 7 -2 -2
1532261296840637 1 1 -1 0 -4 -4 -2 -3
1532261296861572 -1 1 -3 1 -2 -4 0 1
1532261296905456 -2 0 -3 0 -1 0 -3 -1
1532261297026132 0 -1 0 -1 0 -1 2 1
1532261297118884 0 0 -1 0 1 -7 -4 -1
1532261297157781 -1 -1 -3 -1 0 -1 0 -2
1532261297176730 -3 -2 -1 -1 -3 0 -1 -1
1532261297238565 0 -3 0 -2 -1 5 -2 -1
1532261297244548 -1 -3 1 -1 1 -1 -5 1
1532261297433044 0 -3 0 -1 -2 -3 0 0
1532261297440026 -1 -1 -2 -1 -2 0 -1 1
1532261297492884 -1 0 0 -1 -1 4 -1 -3
1532261297520809 -1 0 -2 -1 -3 -4 1 0
1532261297673402 0 1 -1 -3 -1 -3 -2 -1
1532261297680382 -1 -2 -2 0 -1 -1 -1 -1
1532261297695343 -1 -1 0 -2 0 -2 -2 -2
1532261297709305 0 -1 -1 -2 0 -3 -1 -1
1532261297754186 0 0 -1 -1 -3 -2 0 1
1532261297791087 -1 -1 -1 -2 -1 -1 -1 -1
1532261297814026 -2 0 -1 -1 -1 -1 -1 -2
1532261297888826 -1 0 -1 -1 -1 -1 -1 -2
1532261297975593 -2 -1 1 -1 0 -3 -1 0
1532261297981582 0 0 2 -1 0 -2 1 -1
1532261298009520 1 -1 0 1 -1 -1 0 0
1532261298031443 -1 -1 -1 -1 -1 -1 -1 0
1532261298114223 -1 -1 -1 0 -2 -5 -7 0
1532261298159103 -2 -2 -1 -1 -1 -2 1 0
1532261298182041 -2 -1 -1 -2 0 -1 -2 -2
1532261298528116 -6 -4 -2 -1 -2 -1 -1 -2
1532261298544084 1 1 0 -1 0 -1 0 -3
1532261298593939 0 -1 -1 -2 -2 -1 1 0
1532261298669737 -1 -2 -1 -2 0 1 0 -1
1532261298721598 1 0 -2 0 0 -1 -1 -3
1532261298827316 4 -1 -2 -2 -5 -11 -2 0
1532261298849261 -1 -1 0 -1 5 3 1 0
1532261298872196 -3 -1 0 -1 -2 -5 0 -2
1532261298980905 0 -1 -2 -1 0 5 1 -1
1532261299099590 1 0 -1 0 0 -1 2 0
1532261299127512 0 -1 -1 0 0 -2 -1 -1
1532261299174388 -1 1 -1 0 0 5 1 -1
1532261299209294 -1 1 -1 -1 -3 -2 -2 -1
1532261299314014 -2 -1 -2 0 -1 -4 2 -1
1532261299361886 -2 -2 -2 -2 1 -1 -1 -3
1532261299376861 -1 -1 -1 -1 0 -2 0 -1
1532261299419732 1 -1 1 0 1 0 -2 -1
1532261299433694 -2 0 -2 -2 -3 1 -2 -1
1532261299503508 -1 -1 0 1 -1 -1 -2 -1
1532261299569332 -1 -2 0 0 0 -2 -3 -1
1532261299654104 -1 -1 -2 1 -1 -2 -1 -1
1532261299676046 -1 0 0 -2 1 4 0 -2
1532261299705973 0 -1 -1 -1 -1 -1 1 0
1532261299719929 -2 -1 0 0 1 -1 0 -3
1532261299779769 -2 0 -1 0 -1 -1 -3 -1
1532261299854568 -1 0 -1 0 -2 -1 0 0
1532261299898451 -1 1 -2 -1 -3 1 0 -2
1532261299931363 -1 -1 -2 1 -1 -3 0 0
1532261299959288 -1 -2 -3 1 -2 -1 -2 -1
1532261300170723 -2 -1 -1 -2 -1 1 -8 -3
1532261300194670 -1 -2 -1 -1 -2 0 -4 -2
1532261300282425 -1 -2 -1 -1 -2 2 -4 0
1532261300468926 -2 -2 -1 -1 -2 -4 -3 0
1532261300544723 0 -1 -1 -1 -2 -2 -2 0
1532261300620521 -1 1 -1 -2 -2 1 0 0
1532261300641465 -2 1 -1 -1 -1 0 1 -1
1532261300763139 -3 -2 -2 -1 1 0 2 -1
1532261300777102 -1 -1 -1 -2 -3 -1 -2 -3
1532261300800040 1 0 0 0 -1 -1 -1 0
1532261300820984 -1 -1 -1 -2 0 1 0 0
1532261300889801 0 0 -1 -2 0 1 -5 1
1532261300978563 0 -3 -2 -1 -2 1 1 -1
1532261301075304 -1 -2 -4 -2 0 -3 -1 -1
1532261301099240 0 -3 0 -1 -1 0 -1 0
1532261301145118 -2 -2 0 -1 -2 -2 -2 -1
1532261301174040 -1 0 0 1 -1 -2 -1 -1
1532261301212937 0 -1 0 1 0 0 2 0
1532261301281753 -2 -1 -1 1 0 0 0 0
1532261301346579 -1 0 1 0 -3 -2 -1 -1
1532261301361539 0 -1 0 -1 -1 1 1 0
1532261301384478 -2 -2 -1 -2 -1 0 0 0
1532261301398440 2 0 -1 -1 -2 1 -1 -4
1532261301444318 -3 0 1 1 -2 -1 -2 -1
1532261301491193 -2 -2 -1 -2 -1 1 2 1
1532261301535075 0 -2 -2 -1 0 -1 1 -2
1532261301557016 0 0 -1 -2 -2 -2 -1 2
1532261301580952 -1 -2 -1 -1 -2 -1 1 0
1532261301594915 -1 -1 0 -1 -1 -1 1 0
1532261301603891 -1 0 -1 -1 1 -2 -1 -2
1532261301625833 -1 -1 -2 -1 1 1 1 -1
1532261301648771 -3 -1 0 -1 0 1 0 0
1532261301663731 -2 1 -2 1 -1 -3 -4 -3
1532261301715593 -1 -1 -1 0 -1 -3 -2 -1
1532261301768451 -2 -1 -2 -1 -1 -1 -2 -1
1532261301791393 0 0 -4 -1 -3 -3 -1 -1
1532261301814328 -2 -1 -1 -2 -2 3 4 -1
1532261301835272 -1 -1 0 -1 -2 -1 0 -2
1532261301895112 0 -3 -2 -2 0 0 1 1
1532261301925032 0 -2 -1 -1 0 0 1 -2
1532261301969911 -2 -1 -1 -1 1 -1 2 -1
1532261302113527 0 0 0 -1 0 2 1 0
1532261302172370 -1 -2 -2 0 -1 2 0 -2
1532261302232210 -1 -2 -2 -3 -1 -1 -4 -1
1532261302261133 -1 -1 -1 0 -2 -1 -2 -1
1532261302300030 -2 0 -2 0 -1 -3 0 -1
1532261302368845 -1 -2 -1 -2 -2 -1 -1 -1
1532261302413726 -1 0 0 -1 -2 2 1 1
1532261302441651 -2 -1 -1 -1 -1 1 -2 -1
1532261302509470 1 -1 -1 0 0 1 -1 -1
1532261302548365 -2 -3 -1 -2 1 0 -1 -1
1532261302591250 0 0 -2 1 -2 -3 0 -2
1532261302615187 -1 -1 -1 0 -1 0 2 0
1532261302646117 -2 -1 -2 -2 -1 -3 -1 1
1532261302668045 -4 1 -1 -2 0 -1 -2 0
1532261302691981 0 0 -1 0 0 -1 0 -1
1532261302712925 -2 0 -2 -1 -3 0 -6 -3
1532261302726888 -2 0 0 -1 0 0 1 -1
1532261302740851 -1 -2 -2 -2 -2 1 1 0
1532261302771768 -2 -2 0 -3 -3 0 -1 -1
1532261302786728 0 -2 0 0 0 0 -2 1
1532261302831608 0 -1 1 -1 -1 -1 -2 -1
1532261302870504 1 -1 0 1 -1 -1 -1 1
1532261302922366 2 0 -3 -1 0 0 0 -1
1532261302984200 -1 -1 -1 -3 0 0 0 -2
1532261302991181 -1 0 0 -3 -1 -3 0 -1
1532261303012125 -1 -1 0 -3 -2 -1 -3 -1
1532261303086925 -2 -1 -2 -1 -1 0 0 -1
1532261303130807 -1 -2 0 -2 -2 -1 1 0
1532261303200621 -1 -2 1 0 0 -1 1 -2
1532261303388120 0 -2 -2 -2 -2 1 2 0
1532261303453943 -2 -1 -2 -1 -1 1 0 0
1532261303477880 -2 0 1 -1 -1 -1 0 -1
1532261303536722 0 0 -2 -1 1 -1 -2 0
1532261303642455 -2 -2 0 -1 -2 -3 0 -2
1532261303689331 0 -1 -3 -2 0 -2 2 0
1532261303754141 0 1 -1 0 -2 0 0 2
1532261303851880 0 1 1 -1 -2 -2 3 -2
1532261303895763 0 -1 0 -1 1 5 0 -1
1532261303988529 0 -1 0 -1 -2 -3 -4 0
1532261304107197 -2 -1 -1 -1 -2 0 0 -1
1532261304152076 -2 -1 -1 0 0 -2 0 1
1532261304211917 0 -1 -1 0 -1 2 -1 0
1532261304233858 -1 -2 -1 -1 -1 2 -2 -2

1532261304264775 0 -1 -1 0 -2 -3 1 -1
1532261304288712 -3 -2 -2 0 0 -2 -2 0
1532261304332594 -1 -2 0 -1 -2 -4 -1 0
1532261304355538 -1 -2 -2 0 -1 -1 -1 -1
1532261304392441 -2 1 -1 -1 -1 -3 -1 -2
1532261304415373 -1 -1 0 -2 -1 -4 -2 -2
1532261304476210 0 -2 -1 1 0 1 0 0
1532261304519095 0 -2 -2 -1 2 3 1 -1
1532261304549016 -1 -1 -1 1 -2 -3 -1 -2
1532261304588909 -1 -1 -2 -1 -1 2 0 0
1532261304610904 -3 -2 -1 0 -2 -1 -1 -1
1532261304633843 0 -2 -2 -2 0 -2 0 1
1532261304691689 -2 -2 -2 -2 -1 0 0 -1
1532261304714627 -1 0 -1 -1 -1 -3 1 0
1532261304752526 -2 0 -2 -1 -1 -1 -3 0
1532261304797419 -1 -1 -2 0 -3 -4 -1 -2
1532261304888163 -2 -1 -1 -2 -2 -5 2 0
1532261304924067 -2 0 -1 -2 0 1 1 -3
1532261304968947 1 0 0 -1 -1 -2 -3 -2
1532261304999864 -2 -1 -2 -1 -1 0 -2 -1
1532261305021805 0 -3 1 1 -2 0 -2 -1
1532261305074688 -2 -2 0 -1 -1 -1 -2 -1
1532261305210368 -1 0 -1 0 -2 -3 -3 -2
1532261305231311 -2 0 0 -2 0 0 -2 -1
1532261305284201 -2 0 -1 -1 -2 0 -2 -1
1532261305306143 0 -1 -2 -1 -1 0 -1 -1
1532261305352020 -1 0 -1 0 -1 0 -3 -3
1532261305420019 -2 0 -2 -2 -1 -2 -1 -1
1532261305493821 1 -2 -1 -1 -2 0 0 -1
1532261305516760 -3 -1 -1 -1 -3 -2 -2 0
1532261305553661 -1 -2 -4 -2 -1 -1 -3 -2
1532261305698274 -2 -1 -1 -1 -1 0 0 0
1532261305787037 2 1 1 -2 0 -1 -1 -1
1532261305801998 -1 -1 -1 -2 0 0 -2 -1
1532261305853858 -1 -1 -1 -1 -1 0 -1 -1
1532261305884775 -2 -2 -2 -1 -1 -1 1 0
1532261305906717 -1 -2 -2 -1 0 -1 0 0
1532261305953591 -1 -1 0 -1 -2 -2 1 0
1532261305981517 -2 -2 -1 0 1 1 1 -2
1532261306019415 0 -2 0 -1 -2 -2 -2 1
1532261306057315 -2 -1 -1 -2 -1 -1 -1 -1
1532261306117064 -1 -1 -2 1 1 0 -1 0
1532261306140003 -2 -1 -1 0 -1 0 -2 -1
1532261306208819 0 -1 -2 1 -2 -3 -1 0
1532261306275640 -2 -1 0 -1 -1 0 0 -2
1532261306298579 -2 -2 -2 0 0 1 0 -2
1532261306333485 -1 -1 -2 -1 1 -1 1 1
1532261306371384 -2 -1 1 1 -4 -1 -2 -3
1532261306395320 0 -2 0 -2 -1 1 -2 0
1532261306439203 0 0 -2 1 -2 -2 1 -2
1532261306484090 0 -1 -1 -2 0 -1 -3 -2
1532261306510013 0 -1 0 0 1 -1 0 0
1532261306530957 -3 -1 -2 -1 -1 0 1 0
1532261306552899 -1 -2 -1 -2 0 2 -1 -1
1532261306574840 -3 0 -1 -1 0 -2 -2 0
1532261306596782 -2 -1 -3 -2 -3 -1 1 -1
1532261306640664 0 -1 -2 -1 -2 0 1 -3
1532261306807218 -1 -1 -2 -1 -1 0 -1 1
1532261306830157 -1 0 0 -1 -1 0 -2 -2
1532261307068520 0 1 -1 0 1 -2 -1 -1
1532261307146324 -1 -1 -1 -1 -2 0 -1 -2
1532261307166258 -1 0 -1 0 -1 -1 -2 0
1532261307197176 -1 -1 -1 -1 0 -2 0 -1
1532261307242055 -2 0 0 0 0 -1 0 0
1532261307258013 -1 -3 -2 -1 0 -2 -1 0
1532261307295912 0 -1 -1 -2 1 -1 -1 0
1532261307363745 0 -1 -2 0 0 -1 -1 -2
1532261307369714 -2 -1 0 0 0 -2 -1 1
1532261307407613 -2 0 0 -3 -2 -1 0 0
1532261307475432 0 0 -1 -1 -1 -1 -1 -3
1532261307603108 -1 0 -2 -1 -1 0 -3 1
1532261307663927 1 -2 -2 -1 1 -1 0 0
1532261307721773 -2 0 0 -1 -1 0 -1 1
1532261307804552 -2 -1 0 -1 -2 -1 -1 -1
1532261307879352 -3 -2 -2 -1 -1 -1 -2 0
1532261307918247 1 -1 0 -1 -1 -1 1 -1
1532261307942183 -2 -2 -1 -3 -2 -1 0 -2
1532261308000031 -1 -2 -2 -1 0 0 0 -2
1532261308060865 -1 -1 0 -2 -2 -1 0 -3
1532261308173565 0 -1 -1 -1 -1 -2 -2 -2
1532261308219442 0 -1 0 -2 -1 0 0 0
1532261308241383 -2 -1 -1 0 -1 1 -1 1
1532261308276290 0 0 -1 0 0 -2 -4 -1
1532261308285266 0 -1 -2 -2 -1 -3 -1 -1
1532261308323165 0 -1 -2 0 -1 -3 -5 -1
1532261308494706 -1 -2 0 1 -1 1 1 -1
1532261308519639 -1 -1 0 0 -1 -1 0 -1
1532261308534600 -1 -1 -2 0 -1 -1 -1 -1
1532261308575490 -3 -3 -2 -1 -2 0 -2 -2
1532261308622365 0 -1 -3 -1 -1 2 2 0
1532261308660263 -1 -1 -1 1 -1 -1 -2 -1
1532261308772963 -2 -2 -2 -2 -2 1 -1 0
1532261308811858 -1 0 1 -2 -1 0 0 1
1532261308945501 -1 -1 -1 -3 1 1 -1 0
1532261309029281 -2 -2 -1 0 -1 -1 -4 0
1532261309059197 -2 -1 -1 0 0 0 -1 -2
1532261309079143 0 0 -2 1 -1 -1 -3 -1
1532261309198823 1 -1 0 -2 -1 -2 -2 -2
1532261309366375 0 -3 -2 -1 -1 0 2 0
1532261309378343 -2 -2 0 -3 -1 -1 0 -1
1532261309447159 0 0 -1 -1 -1 -1 -1 1
1532261309492039 -3 -2 -2 -2 -2 -1 -1 0
1532261309588780 -1 1 -1 1 -1 -2 -1 -1
1532261309614716 -1 0 -1 -1 1 -1 -1 -1
1532261309643634 -1 0 -1 -2 -1 -1 0 -1
1532261309664588 -1 -2 0 -2 0 -1 0 -2
1532261309724417 -1 -1 -1 0 -1 -2 -2 0
1532261309746359 -2 0 -2 -1 -2 -2 -2 -1
1532261309868034 0 0 -1 0 1 -1 -2 -1
1532261309888978 0 -1 -2 -1 -3 -1 -1 -1
1532261309921889 -2 -1 -1 1 -2 0 -2 -2
1532261309943830 -3 -2 -1 -1 -2 -1 -1 -1
1532261309964775 0 -1 1 0 0 -2 -1 -2
1532261309986716 -1 -2 -1 -2 -1 1 0 -2
1532261310047566 -3 -1 -1 0 -3 0 -1 0
1532261310145292 -1 0 1 -3 -1 -1 -1 1
1532261310161249 2 -1 -3 -1 -3 0 -1 -1
1532261310183190 -2 -2 0 0 -1 0 -3 0
1532261310197153 0 -1 -3 -2 0 -2 1 -2
1532261310214108 -1 -1 -2 -1 0 -1 -3 1
1532261310241036 -1 -1 -1 -1 0 -3 -2 0
1532261310264972 0 -1 -2 0 0 0 -2 -1
1532261310309852 0 -1 -2 -2 0 -1 -1 -2
1532261310331793 -2 -2 0 0 0 -1 0 -2
1532261310422551 0 -2 -1 0 0 -1 0 0
1532261310446486 -2 -2 -1 -3 -3 0 -1 -3
1532261310463441 -1 0 -1 -1 -1 0 -2 0
1532261310478402 2 -1 -1 0 1 0 0 -1
1532261310495356 1 0 0 0 1 0 2 -1
1532261310527271 0 -2 0 -3 -3 -1 -1 2
1532261310565169 -2 -2 -1 -2 -1 0 -2 0
1532261310587117 -1 2 -1 -2 0 -1 -2 -3
1532261310655943 0 -1 -3 -1 0 -2 -1 0
1532261310671893 0 -1 -1 -1 -2 -1 -5 -1
1532261310701804 1 -1 0 1 -2 -2 -1 -1
1532261310751671 -2 -1 -1 -2 -2 -1 -1 -1
1532261310766631 -1 0 -2 -2 -1 -2 -6 0
1532261310789569 -1 -2 0 -1 -1 0 1 0
1532261310810525 0 -2 0 -2 -1 1 1 -1
1532261310864370 -3 0 -1 -1 -2 0 0 -1
1532261310911244 0 -1 2 -2 -3 -2 -1 -3
1532261310954129 -1 -1 0 0 0 2 -1 2
1532261310971084 -3 -1 -1 1 0 0 3 -1
1532261310999009 0 -1 -2 -1 -4 0 -2 -2
1532261311017959 -1 -1 0 -1 -1 0 0 0
1532261311031921 0 0 -1 -1 0 -1 0 0
1532261311051868 -2 0 -2 -2 0 -2 -1 -3
1532261311089767 0 1 0 1 0 1 -1 -1
1532261311103729 -2 0 -2 -1 -2 -2 -1 -1
1532261311156587 -1 -3 -3 -2 -1 -1 0 -1
1532261311248342 -8 -2 -1 -1 -2 -1 -2 2
1532261311253329 -1 -2 -1 -2 0 -1 -2 -2
1532261311298216 4 0 -1 0 0 -3 -3 -3
1532261311337105 -4 1 0 0 0 -2 -1 -1
1532261311343089 1 -1 0 -1 -3 -1 -3 0
1532261311373009 -1 -1 0 -1 0 0 2 0
1532261311479724 -2 -1 0 0 0 0 2 2
1532261311586438 -2 1 0 -2 -1 -1 -1 -1
1532261311652262 -1 -1 -2 1 -2 -1 0 0
1532261311658246 -2 0 -2 0 -1 1 -1 0
1532261311803869 0 -3 -1 -1 -1 1 -4 -1
1532261311823804 1 -2 1 0 -1 -1 -1 -3
1532261311862700 -2 0 0 -1 -2 -2 0 -2
1532261311905585 0 -1 0 -2 -1 -2 -1 -1
1532261311922542 -1 -2 -1 0 -1 -1 -1 -1
1532261311982379 -2 -2 -2 0 -2 -1 -3 0
1532261312109041 -1 -1 0 -1 0 -1 -1 -1
1532261312125996 -2 -1 -1 -2 -2 -2 -2 0
1532261312154918 0 0 -2 0 -1 0 0 0
1532261312191820 1 -2 -1 -1 -1 -1 -2 -2
1532261312205782 -1 -1 0 0 -1 0 1 0
1532261312228721 -1 0 -1 -1 1 0 1 -1
1532261312402257 0 1 0 -1 -2 -2 -1 -2
1532261312440156 -1 -2 -2 -1 -1 0 0 -2
1532261312551857 0 0 -3 0 1 -1 0 -1
1532261312680513 1 -1 -2 0 0 0 -2 -1
1532261312731376 -1 -1 0 -1 1 0 1 2
1532261312777254 -1 -3 0 -1 0 0 -3 -1
1532261312846070 -1 -2 0 -1 -1 0 -2 0
1532261312913889 -1 -1 2 0 -1 -1 0 0
1532261312935830 0 -1 -3 -1 -1 -3 -1 -2
1532261312973729 0 0 -3 -2 -1 1 -2 -3
1532261312979713 -1 -1 -3 -1 0 -1 0 -2
1532261313009632 0 -1 -1 -1 0 -2 -2 0
1532261313068475 -3 -2 -3 -1 -2 -3 -1 -1
1532261313099392 -2 -2 1 0 -2 0 0 -1
1532261313122331 1 -1 -4 -2 0 -1 -2 -2
1532261313168209 0 1 0 -1 1 -1 -1 0
1532261313198137 -1 -1 -1 -2 0 -2 -2 0
1532261313213089 -1 -1 0 0 -2 0 0 -1
1532261313247995 0 -2 0 0 -1 0 -2 -2
1532261313331771 -1 0 0 -2 -2 -2 -1 -3
1532261313353712 0 -1 -2 1 0 0 0 0
1532261313451451 -1 -2 -2 -1 0 0 3 0
1532261313475387 0 -2 -2 0 -2 0 0 0
1532261313513291 -1 -2 -1 -2 -3 -1 -1 -4
1532261313557179 0 -1 0 -2 -4 -1 -1 -1
1532261313594070 0 -1 -1 -2 -1 -2 0 0
1532261313653910 -1 -1 1 0 -2 0 1 -1
1532261313685826 -1 -1 -1 -1 -2 1 0 0
1532261313699787 -1 -1 -1 0 0 -1 -3 -1

1532261313766608 -3 -2 -3 1 -1 -1 -1 -1
1532261313797526 -2 -2 -1 -1 -2 -1 -3 0
1532261313833429 0 -1 -1 -1 -1 0 0 0
1532261313871328 -2 -1 0 -3 -1 0 1 -1
1532261313917205 0 -1 0 -1 -2 -1 0 0
1532261313978051 -2 0 0 -2 -2 1 -1 2
1532261313998987 0 -1 0 -1 -1 -1 -1 -1
1532261314028907 0 -1 -1 0 -2 -1 0 -2
1532261314075782 0 -2 -2 0 -1 -2 -1 1
1532261314096726 -2 0 -2 -1 0 0 -1 0
1532261314157562 -1 -1 -2 -2 -3 0 -2 -2
1532261314232363 -1 -1 -1 -1 -1 0 -1 0
1532261314299184 0 -1 -2 -1 -2 2 0 -1
1532261314322137 -1 -1 0 -1 -2 -3 -1 0
1532261314344064 0 -2 -2 -1 0 -1 -2 -2
1532261314382960 -2 -1 -1 -1 -2 -1 -2 -1
1532261314396923 1 -2 -1 -3 0 1 -1 -1
1532261314479702 -1 0 0 -1 0 -1 0 0
1532261314516603 0 0 -2 -1 0 -2 -1 -2
1532261314555499 -2 -1 1 -1 -1 1 0 -1
1532261314601394 -1 0 -1 -1 -1 0 0 -1
1532261314622321 0 -1 0 -1 -2 -2 0 -1
1532261314673184 -3 -1 -1 -2 -1 -1 -1 0
1532261314720059 0 0 -1 -1 -2 0 -2 -1
1532261314742013 -1 0 -1 -1 -1 1 -1 -2
1532261314787878 0 0 -2 -1 -2 -1 -2 -2
1532261314817797 -1 -1 -1 -1 -2 -1 0 -1
1532261314855697 -1 -1 -1 -2 0 1 0 -2
1532261314879632 -3 -1 -2 -1 -1 -1 0 -1
1532261314883638 0 -1 0 0 -3 -1 -1 0
1532261314909553 -1 -2 0 -2 1 -2 0 0
1532261314922517 -1 0 0 -1 -3 -2 -1 -1
1532261314959418 -1 -2 1 -1 0 2 0 -3
1532261314973382 -2 0 -3 -2 -1 -6 -2 1
1532261314996806 -2 -1 -2 -1 -1 0 -2 0
1532261315019744 1 -1 0 -1 1 -1 1 -2
1532261315041686 -2 1 0 -3 -8 -22 -8 -1
1532261315087574 0 -1 -4 -6 3 -13 1 -1
1532261315112497 -8 -15 -12 -9 -3 32 2 -2
1532261315138435 0 4 -2 -2 -40 -12 -1 -1
1532261315158374 0 0 9 11 49 14 -1 -1
1532261315179319 7 2 3 8 18 -3 -3 -2
1532261315199264 4 5 2 4 -5 -3 2 -1
1532261315228187 2 13 0 -3 -8 -12 -1 -17
1532261315251126 -1 7 -6 0 -4 -2 -2 -14
1532261315388758 0 2 -2 -2 -6 -8 -4 -3
1532261315403718 -2 0 2 0 0 0 2 16
1532261315461563 2 -14 -2 0 -2 0 -6 -54
1532261315490486 -6 -2 -4 0 10 30 -1 -23
1532261315522406 0 -8 1 -3 -5 0 -2 1
1532261315567280 -1 4 1 2 2 -3 3 4
1532261315589244 6 15 -1 -1 -4 -8 -1 -9
1532261315664022 0 -11 2 1 1 6 -4 16
1532261315686961 17 -13 -1 -1 -2 -5 4 29
1532261315709900 -6 -16 -1 -1 1 8 -5 -3
1532261315746800 -5 -12 -1 -1 -2 1 -3 9
1532261315821601 -5 -2 0 2 2 2 -2 9
1532261315890416 -7 -10 -2 0 2 2 -8 2
1532261315918342 -6 -2 -1 0 1 0 -6 8
1532261315965253 5 -3 -3 -2 0 7 -14 39
1532261315987194 -7 -2 -1 -3 -1 -2 5 12
1532261316016116 -9 -4 0 -2 0 -2 6 -17
1532261316047034 6 -5 -4 -3 -2 2 11 11
1532261316075956 -5 -2 0 4 -1 -13 -3 -1
1532261316105882 -4 -1 -1 1 -1 -4 5 20
1532261316182671 -7 -5 0 -3 -2 -5 -11 -17
1532261316255494 -3 -1 1 2 5 7 6 33
1532261316264469 -4 0 0 0 3 25 -1 -4
1532261316288395 -8 2 0 1 2 -4 -1 -17
1532261316324292 -8 -3 0 0 -2 1 2 -13
1532261316346233 -10 -3 -2 1 -2 -1 9 21
1532261316362191 -5 -2 -4 -5 -11 -43 -16 -18
1532261316543705 2 0 0 0 -1 -4 -3 11
1532261316588591 2 1 -1 -1 -2 4 -2 -13
1532261316605561 -1 2 -2 -2 1 0 -6 -27
1532261316632474 -13 -5 -3 -3 0 -1 -17 -9
1532261316647435 4 3 0 1 0 0 17 14
1532261316669376 -49 -21 -5 -3 -2 -3 -24 -32
1532261316691317 30 9 6 -1 -5 0 23 12
1532261316723250 15 14 2 0 -11 -2 -20 5
1532261316766117 25 12 13 10 -11 -4 -14 -9
1532261316791050 5 -11 -6 -10 11 5 17 29
1532261316813989 58 2 -2 -9 -8 -9 -27 -25
1532261316826963 -53 -6 -9 -2 -15 -9 -12 -40
1532261316858869 45 26 -8 -10 2 4 5 15
1532261316880811 -80 -5 -21 -42 -30 -4 -55 -57
1532261316901754 2 -1 -10 -36 1 -7 -32 -8
1532261316924693 119 -1 18 22 -9 -21 12 32
1532261316954613 -12 26 20 -16 -20 -1 -6 44
1532261317006474 -13 -7 -16 -25 -20 -20 -5 36
1532261317022436 21 -32 -14 38 -1 -4 -12 -27
1532261317069306 -19 -1 20 -7 27 -13 7 0
1532261317096245 56 6 -11 -11 5 -9 16 72
1532261317135130 6 -5 -1 -2 0 -4 -4 -3
1532261317156074 1 7 -4 -10 -9 -2 1 -13
1532261317188992 -2 44 -2 -4 -4 0 -6 -7
1532261317218906 -9 -8 -3 -2 -1 4 -1 -9
1532261317261792 0 3 -2 -3 0 -4 -6 -4
1532261317306672 1 -1 0 -2 -2 -7 -1 1
1532261317344571 -1 -1 0 -13 1 5 12 1
1532261317389457 0 -4 3 -9 -7 26 -1 -1
1532261317440314 1 3 6 17 20 4 -4 -2
1532261317487188 -2 3 2 11 39 33 1 -2
1532261317509130 -3 -6 -5 -11 -15 -21 -8 -2
1532261317735541 -1 3 -5 -1 22 3 0 -1
1532261317778420 -3 -8 5 -6 -18 -32 0 2
1532261317968911 0 0 -5 6 38 -15 -12 -2
1532261317993844 0 -4 -4 -3 16 -17 -9 -1
1532261318230212 2 -1 1 7 2 -12 -2 0
1532261318246169 1 -3 0 0 16 -6 -6 0
1532261318268110 1 -2 -1 0 1 12 0 1
1532261318417710 -2 0 -4 -6 -2 -34 -3 0
1532261318506473 0 -5 -1 -4 -6 43 14 0
1532261318530409 -4 -5 4 2 2 -7 10 0
1532261318591246 1 -1 1 2 -3 -3 -1 -2
1532261318801697 -1 -2 0 5 4 7 -2 -1
1532261319016110 -2 -3 -2 -1 -2 3 -1 0
1532261319077945 0 -3 -2 1 0 -7 -2 0
1532261319100884 -1 -1 -2 -3 0 3 1 -1
1532261319138782 -2 -1 0 -2 -1 -3 0 0
1532261319356201 0 -1 0 0 -1 9 -1 0
1532261319387118 -1 -1 -2 -2 -1 2 -3 -1
1532261319446959 1 -1 -1 -1 -1 -2 1 -1
1532261319468900 -3 -2 0 1 0 -2 -2 -1
1532261319633460 -2 -1 -2 -1 -5 -4 0 0
1532261319653407 -3 -3 0 -3 1 -1 0 -3
1532261319664376 0 -1 -1 -1 -1 -2 0 0
1532261319850878 0 0 1 0 -1 -2 1 -1
1532261319870847 -3 0 -2 -2 -1 -1 -1 -3
1532261319934677 -2 -1 -1 -1 -1 -5 1 0
1532261319978569 0 1 -2 -2 -1 -1 -2 -1
1532261320046378 0 -2 0 -1 -3 0 -2 1
1532261320151115 -2 0 0 0 -1 -3 1 0
1532261320187999 0 -1 -1 0 1 4 0 -1
1532261320194980 1 -3 -2 -2 -1 1 -2 -3
1532261320253823 -2 -1 -2 -2 -2 -2 3 -2
1532261320301695 0 0 -2 -2 -1 -13 -3 1
1532261320405418 2 -1 0 2 -1 7 -1 -1
1532261320474234 -4 -1 -1 0 1 -5 -2 -1
1532261320495178 -2 1 -1 1 1 7 -17 -2
1532261320743513 0 -2 -2 -3 -2 -7 -6 8
1532261320936996 -6 -1 0 -3 -2 -3 3 -5
1532261320962927 -1 -4 -3 -1 1 2 -5 -6
1532261321022767 -1 -1 -2 -1 -1 -3 -6 1
1532261321036729 -2 -2 0 -1 0 0 1 0
1532261321080612 -1 -1 -1 -1 -2 -1 -2 -2
1532261321200292 -3 -1 -1 -1 -1 0 0 -3
1532261321216249 1 -1 0 0 0 -1 2 -2
1532261321261129 3 -1 1 -1 -1 2 1 16
1532261321284068 -1 1 -1 -2 -1 -5 -3 -7
1532261321334932 -2 -2 -1 -1 0 -1 -1 -1
1532261321453614 -1 0 -1 -1 -2 1 -3 -9
1532261321577284 0 0 -2 -3 0 1 1 -1
1532261321619186 -1 -1 -2 -1 -2 -1 -2 -3
1532261321815647 -1 -1 -1 0 -1 1 0 1
1532261321841577 -2 1 -1 -2 -1 0 -2 -1
1532261321942309 -2 -1 0 -2 -1 2 -4 -3
1532261322130803 0 -2 0 -1 -1 -2 -4 1
1532261322152745 -2 1 -1 -1 -1 -1 0 -1
1532261322177693 0 -1 -1 0 -2 -3 -10 -3
1532261322349219 0 0 0 -2 0 0 0 -1
1532261322371161 -1 -2 -2 1 0 0 -3 0
1532261322394114 -1 -2 -1 -2 -2 -3 2 -1
1532261322406069 0 -1 0 -2 -2 -1 2 1
1532261322430003 -2 0 -2 -3 0 -1 -3 -4
1532261322458926 -1 0 -2 -1 -1 -2 1 0
1532261322520772 -1 0 -3 -2 -1 1 0 -1
1532261322646424 -1 -2 -4 -1 -1 -3 -1 -1
1532261322686318 -3 -1 0 -1 0 -1 -1 0
1532261322708260 -1 -2 -2 -2 -1 0 0 0
1532261322768099 0 -1 1 -2 -1 0 -2 0
1532261322908723 -2 -1 -1 -2 -2 -1 -2 -2
1532261322965572 -2 -2 -1 -1 -2 -1 -1 0
1532261323031396 1 0 0 -2 0 0 2 1
1532261323241833 0 -2 -1 -1 -1 -5 -13 -3
1532261323307657 0 -2 -1 0 0 0 -1 -1
1532261323400409 -1 -2 -1 0 -2 0 0 -2
1532261323414388 -2 -1 -1 -2 -2 0 0 -3
1532261323481193 -1 -1 -1 -1 -1 2 0 -3
1532261323518094 0 0 -1 -1 1 -1 -1 -2
1532261323542030 0 -1 -2 0 -1 0 -6 -2
1532261323623811 1 0 -2 -2 0 -5 -3 -1
1532261323712574 -1 -3 -3 0 -2 1 -8 0
1532261323757453 1 -1 -2 0 -1 -1 -2 -1
1532261323796350 0 0 -1 -1 -2 -2 -2 -1
1532261323841229 -1 0 0 -3 -1 -1 -1 -1
1532261323856190 1 -2 0 -1 -2 -2 0 -1
1532261323943955 -3 0 0 0 -1 2 -3 -2
1532261324013768 -1 -2 0 -1 -2 -1 -2 -1
1532261324073609 -1 -1 0 -1 1 -1 1 0
1532261324094566 -1 -3 -2 -1 -2 -3 0 0
1532261324155389 0 -1 -1 0 -1 1 1 -1
1532261324162371 -1 -1 0 -2 -3 0 0 -2
1532261324222212 -3 -1 -1 -2 -2 -3 -2 0
1532261324292025 -1 -3 -1 0 0 0 -4 1
1532261324334909 -3 -3 -2 -1 0 0 -2 0
1532261324351872 -2 -2 -1 0 0 4 1 1
1532261324373805 -2 -1 -1 -1 -1 -4 1 -1
1532261324409710 -3 -2 1 -2 0 0 -1 -1
1532261324591224 -2 -2 0 -1 -2 0 0 -1
1532261324628126 0 -1 -1 0 -3 -5 5 1
1532261324799667 -3 0 -2 -1 -2 -1 -1 0
1532261324847539 -1 -1 -1 -2 -1 1 -2 -1
1532261324913363 1 -1 -1 -1 -1 0 -1 0
1532261324934307 -1 -2 -1 0 0 0 -1 -2
1532261324972206 -5 -1 -3 1 -1 -3 -2 0
1532261324993150 -2 0 0 -1 0 -1 -1 -1
1532261325056979 0 -1 0 -3 0 0 0 0
1532261325145742 -2 -1 -1 0 -1 0 3 -1
1532261325169677 -2 -2 1 -1 0 1 1 -1
1532261325183640 -1 -2 -2 -3 -2 1 1 0
1532261325256445 -1 -2 -1 -1 0 -1 -2 -2
1532261325296353 -1 -3 -2 0 -2 -2 -1 -1

1532261325339225 0 -2 -2 -2 0 -2 -1 -2
1532261325400061 -2 0 -1 0 0 -2 0 0
1532261325423000 -3 -1 -2 -1 -2 -4 -2 -1
1532261325445939 -1 0 -3 -1 -1 0 3 -1
1532261325480845 -2 0 -2 -1 -1 1 -2 -1
1532261325566619 -1 -2 -2 -1 0 1 -2 -2
1532261325609501 -3 -1 -3 -1 -1 -3 -2 -3
1532261325655417 0 2 0 -1 0 -1 -1 -2
1532261325698286 2 -1 -1 -2 -1 2 -1 1
1532261325724217 0 -2 0 -1 -1 -3 -3 -1
1532261325745160 1 -2 -2 0 -2 -1 -2 0
1532261325767102 1 0 -1 0 1 -1 -2 -1
1532261325819961 1 0 0 -1 -2 -2 0 2
1532261325933657 -1 -2 -3 0 -2 -3 -3 -1
1532261326068297 -1 -1 -1 0 -1 1 -2 -2
1532261326073284 -1 -1 -1 -2 0 2 -3 -1
1532261326166035 -1 0 -2 -1 -3 -4 -9 -1
1532261326210916 0 1 0 -1 -1 -1 -2 1
1532261326232857 -1 -2 -2 0 0 -3 6 -2
1532261326276739 -2 -3 -1 -1 1 -1 0 -1
1532261326314638 -3 -1 -1 0 -1 -1 0 -1
1532261326560980 0 -1 -1 -2 -3 -1 0 -1
1532261326572961 -1 0 -2 -3 2 -1 2 -1
1532261326593891 -2 -1 0 0 1 -1 2 0
1532261326680659 0 -1 -2 -2 0 -2 1 1
1532261326811309 1 0 -2 0 -3 2 -1 -1
1532261326849208 0 0 0 1 -2 -2 -2 2
1532261327028729 -1 -1 0 -1 0 -3 -1 -1
1532261327110514 -1 -2 -1 -2 -2 -1 -3 -1
1532261327125470 -1 -1 -1 1 -1 2 2 -1
1532261327176334 -2 0 -2 -1 -1 0 2 0
1532261327319950 -2 -2 -2 -1 0 0 -1 0
1532261327403725 -2 -3 -1 -1 -2 -1 -3 0
1532261327431651 -1 -3 0 -1 -3 0 1 2
1532261327539364 0 -1 -2 -1 -1 -1 -2 0
1532261327667022 0 -1 1 -1 0 -2 -4 -3
1532261327685972 -1 -2 -1 -2 -2 -1 -3 -1
1532261327769747 -1 0 1 -1 1 -3 0 -1
1532261327852525 -1 -2 -2 -1 -2 -1 -2 -1
1532261327919347 -1 0 0 0 -3 0 -2 -1
1532261328151726 0 0 0 -1 -1 -1 -1 -1
1532261328264424 -1 0 0 1 1 29 8 -1
1532261328392082 0 -2 0 0 -1 2 -2 -1
1532261328515752 0 -1 -1 -1 0 2 -1 -2
1532261328537693 -1 0 0 -1 -1 -9 2 2
1532261328729182 -1 -1 -2 -1 -1 -3 1 -1
1532261328812957 -1 -1 -1 0 1 -11 3 1
1532261329068275 -1 0 -1 -1 -1 1 0 -2
1532261329091213 -1 -1 -2 -1 -1 -2 1 1
1532261329203911 -1 -1 -2 -1 0 0 0 -1
1532261329291677 0 0 -1 -1 0 -2 -5 0
1532261329311624 0 -1 -1 0 0 -2 -1 0
1532261329350520 -1 -2 -2 -1 -2 1 -2 -2
1532261329397395 -1 -1 -3 0 -3 2 -1 1
1532261329561955 -1 0 1 -2 1 2 -1 1
1532261329627778 -1 0 -2 -1 -1 -2 1 -2
1532261329682631 -1 -1 -2 0 0 -3 -1 0
1532261329727525 0 1 2 -1 -1 -3 -3 -2
1532261329886088 -1 -1 -2 -1 0 2 1 0
1532261329902044 -3 -3 -3 0 1 0 1 -1
1532261329922019 -1 0 -1 0 -1 -1 -2 -2
1532261330118466 1 1 -1 -2 -2 -2 -3 1
1532261330162349 -2 -1 -2 -1 -2 2 -2 -1
1532261330181299 -1 -2 0 1 2 1 3 0
1532261330223186 0 0 0 -2 0 -2 -2 -3
1532261330246125 -1 -2 -3 -1 -3 1 3 -1
1532261330269064 0 -1 -2 -2 -3 -1 -2 -2
1532261330395725 -1 -1 -3 -1 0 2 -2 0
1532261330457559 -1 0 -1 -2 0 -2 -1 0
1532261330567266 -2 -1 0 0 -1 -2 -2 1
1532261330673991 0 1 -1 0 -1 1 3 0
1532261330735815 0 -2 -2 -2 0 0 -2 0
1532261330743794 -1 0 0 0 0 -2 -1 0
1532261330754765 -2 -1 0 -1 0 1 -3 -2
1532261330783687 2 2 0 -1 -1 -1 -1 -2
1532261331012077 0 -2 -1 -1 -2 0 0 -2
1532261331031025 -1 0 -1 -1 0 -1 0 -2
1532261331331223 -1 0 -1 -1 0 0 -1 1
1532261331399041 -2 -1 0 -1 -1 -1 0 -1
1532261331529692 1 -2 -1 -2 -2 -2 -1 0
1532261331565596 -1 -2 -2 -1 2 -1 0 0
1532261331843852 1 -1 0 -1 -1 -1 1 -1
1532261331924636 -2 -4 -2 -1 -1 -2 0 1
1532261331994450 -2 0 0 -1 0 0 -1 0
1532261332083212 -1 -1 -2 -1 -1 0 -2 -2
1532261332103159 -1 -2 -2 -1 -1 -2 -1 -1
1532261332124103 -2 0 -2 -3 -1 0 -2 0
1532261332129090 1 -1 -1 0 -1 -1 -3 2
1532261332187932 -2 -1 0 0 -1 0 0 0
1532261332336535 -1 -2 -1 -1 -2 0 -1 0
1532261332423303 -2 -2 -1 -2 0 -1 -2 -2
1532261332487133 -1 -2 0 -1 1 -1 1 -1
1532261332676626 0 -3 0 0 -1 -1 -2 -1
1532261332698567 -1 1 -2 -3 1 -3 -1 -1
1532261332846172 0 -3 -1 0 1 1 -1 -1
1532261332893047 -2 -2 0 -2 -1 -2 -2 -1
1532261332916002 -2 -1 0 -1 0 0 -2 -1
1532261332975825 -1 0 -2 0 0 -1 -3 -1
1532261333012726 -3 0 -2 0 0 -1 -3 -2
1532261333058618 -2 -2 -1 -1 -1 -1 0 -1
1532261333231143 -1 0 -1 -1 -1 -3 -1 -2
1532261333237127 0 0 -1 -1 -3 0 0 -1
1532261333304945 -1 -2 -2 -3 -1 -1 -1 -2
1532261333449559 1 -1 0 -1 -2 0 0 -1
1532261333470503 -2 -2 -1 -1 -3 -2 -1 -3
