1532259499196235 4 -9 -21 27 28 7 1 4
1532259499239121 2 3 3 -1 0 1 -3 -1
1532259499261062 2 -39 15 -14 -2 -4 -1 -1
1532259499285996 0 15 -33 0 4 2 2 1
1532259499367777 -2 2 2 -2 -2 -3 -2 -1
1532259499417643 8 -1 0 -4 -1 0 0 0
1532259499449557 -3 -5 -9 -7 -5 -3 -1 -1
1532259499478480 -2 -3 -10 -2 -1 0 0 -3
1532259499537324 -2 -1 7 -2 -5 -3 -2 -2
1532259499576220 -2 2 5 1 0 0 -1 0
1532259499589184 -1 -4 -49 -4 -4 -1 -2 1
1532259499614118 -1 -1 11 2 1 0 -1 0
1532259499630075 -2 -5 0 -5 -2 -1 0 -1
1532259499648027 -1 2 8 0 -2 1 2 1
1532259499695899 4 5 13 2 0 -1 -2 0
1532259499725821 3 3 8 4 2 1 2 2
1532259499777679 0 -1 1 0 -4 -4 -1 -1
1532259499929275 -11 -5 -7 -11 -3 6 -4 -11
1532259499990112 -23 -7 -3 -3 -3 -4 0 2
1532259500047958 -16 -3 7 -1 -3 0 1 5
1532259500348155 26 -14 -4 -1 -1 1 -2 -35
1532259500428939 -12 1 0 1 4 2 4 -51
1532259500496757 32 -18 -3 -14 -12 7 7 25
1532259500550613 85 -1 -6 -6 -11 -49 -54 -2
1532259500557595 16 9 -2 4 7 12 -17 52
1532259500602475 -26 -3 8 1 -4 12 -66 9
1532259500640373 -41 -27 -6 -5 -1 3 43 -35
1532259500677275 68 12 -6 4 5 18 -4 14
1532259500702208 -37 -7 4 11 9 9 14 1
1532259500723151 5 10 -2 2 4 3 -17 -11
1532259500760053 -25 -1 3 -10 -2 9 42 -7
1532259500782992 -5 -3 0 -3 1 -1 40 4
1532259500804933 -1 -5 -5 -6 -4 5 -62 -1
1532259500858789 -2 -24 0 -3 -2 -4 19 -4
1532259500902679 -18 -19 -9 -2 -6 -4 9 -5
1532259500962519 -3 -62 -13 4 -2 -3 5 -1
1532259501015378 0 -4 10 2 0 -3 3 0
1532259501044300 -1 -25 -13 -4 2 -10 -1 -2
1532259501165975 3 25 25 9 6 6 3 3
1532259501178940 13 -3 -5 6 3 -1 2 6
1532259501202876 -5 3 -16 -7 -1 3 2 -4
1532259501284658 -7 -2 2 -13 -9 0 -3 4
1532259501309591 6 4 -15 -19 -9 -3 1 -1
1532259501465248 6 -6 3 -4 2 2 3 -8
1532259501494171 -13 1 10 -6 -4 -2 1 5
1532259501585931 -1 25 -3 1 -1 5 7 0
1532259501652747 -4 5 -2 0 0 0 -9 -7
1532259501855206 1 -17 -7 9 10 -5 7 2
1532259501989852 4 -17 37 -5 -75 -3 -3 -3
1532259502087601 -5 -3 -6 -2 17 3 0 -6
1532259502110529 2 0 3 4 20 1 0 3
1532259502164385 -4 6 3 7 9 0 -5 8
1532259502186326 9 -21 -5 -3 9 2 5 2
1532259502203292 4 21 -7 -4 -1 -3 3 -3
1532259502282070 1 10 1 10 3 4 2 1
1532259502342907 0 1 -1 -2 2 0 -1 -1
1532259502455635 -7 -6 -17 -7 1 5 9 1
1532259502492542 -8 -7 42 37 3 6 -2 -2
1532259502544398 -3 -10 4 -24 -14 -3 1 2
1532259502567337 9 6 -8 26 36 11 2 0
1532259502621208 3 29 -2 11 30 11 4 1
1532259502642137 -5 -37 -1 -7 9 0 1 -1
1532259502687017 2 27 -18 -9 -7 1 -1 -3
1532259502704969 -8 -40 -5 -7 -2 -2 0 1
1532259502747854 -6 0 6 3 4 0 -1 -3
1532259502778771 12 -3 -1 2 -1 -1 -2 1
1532259502852574 -4 2 -4 -1 1 -1 0 0
1532259502861550 3 -2 -1 0 0 0 -1 -3
1532259502876510 -1 5 -9 -1 0 -1 0 -7
1532259502906430 0 -29 -10 4 0 4 1 2
1532259502928371 5 -26 -6 5 21 3 7 24
1532259502996190 -1 13 8 10 20 4 3 7
1532259503025112 -5 11 -32 -18 -8 13 2 4
1532259503122851 -2 -6 35 25 3 -25 -10 7
1532259503184686 1 -7 -20 -8 -4 12 0 -3
1532259503221588 3 42 -36 -9 -2 4 1 -7
1532259503277438 2 52 -23 11 -4 -5 -3 -4
1532259503342265 -3 -4 24 1 -5 14 3 -2
1532259503369192 -9 -11 -20 7 1 8 0 2
1532259503409086 0 3 -9 5 7 10 3 0
1532259503429032 1 0 7 11 6 1 1 -2
1532259503483886 0 4 5 -17 -5 6 -1 -1
1532259503491864 -3 -2 1 4 0 13 0 -3
1532259503528766 7 30 -1 -8 -1 4 -1 3
1532259503563672 -5 -11 6 3 -2 -3 -2 0
1532259503595587 1 16 10 -3 1 -17 2 -1
1532259503640467 5 6 5 6 1 -7 -5 -2
1532259503661411 -3 12 12 8 6 7 4 2
1532259503714270 10 -6 -2 -11 -3 5 -1 1
1532259503790067 6 13 5 11 0 4 0 -1
1532259503964600 -24 16 -1 -3 1 -4 0 -1
1532259504030424 3 -16 -6 -7 -1 -2 -1 0
1532259504082286 -11 16 17 1 -1 19 -2 -12
1532259504127165 10 -6 -2 1 -1 3 -1 1
1532259504164067 -18 3 0 -1 0 1 3 3
1532259504219918 0 13 -6 3 3 -1 -1 -1
1532259504293720 -5 4 4 -1 -1 4 2 -4
1532259504381485 29 17 -5 -4 -4 -3 -2 3
1532259504527096 -28 6 10 3 1 2 -2 -3
1532259504563997 -1 -37 -5 -1 0 0 -1 -1
1532259504623837 10 -4 -8 -3 -2 -3 -4 -3
1532259504690659 -3 -26 -13 -1 1 -1 0 -1
1532259504781416 0 -7 -9 -2 -9 0 -1 0
1532259504864195 0 21 8 0 1 0 -2 -2
1532259504878158 -1 5 38 -2 -3 -3 -3 -3
1532259504915059 -5 -15 -19 -1 -10 -7 -2 -2
1532259504998835 4 16 -5 -2 -3 -3 0 2
1532259505059672 -3 19 9 -2 -1 -2 0 -1
1532259505126493 2 -14 -4 -4 -5 -3 0 -1
1532259505140456 6 21 22 -3 -2 -4 -1 0
1532259505276093 9 -20 -24 -1 -1 -2 -2 7
1532259505334936 4 -6 -7 -1 -2 -5 6 -4

1532259505372852 -1 -29 -80 12 8 -1 6 12
1532259505417732 2 13 -53 -33 -7 -3 -7 -3
1532259505506495 0 2 24 9 2 -3 -4 3
1532259505583289 5 19 -17 -4 -6 -3 1 -1
1532259505635151 -6 -29 6 -8 -6 -4 -2 -2
1532259505822650 -3 4 -8 -3 -1 2 0 2
1532259505828633 0 5 21 -1 0 0 1 1
1532259505882489 0 -37 -22 -4 -3 0 -2 1
1532259505957289 2 -10 15 1 4 -3 3 -13
1532259506101903 4 53 -65 9 -3 -4 -3 12
1532259506146782 1 -12 -11 43 12 -9 3 -1
1532259506169720 -1 -11 9 1 -3 -2 -4 0
1532259506250506 -1 -7 -9 -3 -1 -1 1 0
1532259506356229 3 -1 -5 5 5 4 3 0
1532259506678361 -3 -13 -5 -1 -3 -2 -2 0
1532259506730222 -2 -11 -9 -11 2 -2 0 -1
1532259506812004 -1 -1 -3 0 5 0 0 1
1532259506857881 -11 0 6 -1 -4 -2 -1 -1
1532259506918719 1 4 3 3 -1 3 4 -2
1532259506932681 15 -1 5 -3 0 2 -1 7
1532259506970579 11 -4 -10 -1 -4 -3 -6 5
1532259507016457 2 16 5 8 1 -2 -8 23
1532259507039396 10 -30 -22 -8 -3 -1 9 19
1532259507084275 -23 -46 -39 -14 -5 -3 -12 -45
1532259507105219 2 -2 10 -2 0 5 -3 -33
1532259507144116 -60 -11 1 -6 -6 -3 -1 -34
1532259507160086 37 16 17 5 2 2 -13 30
1532259507246841 -11 -28 -24 -4 6 -6 -24 -13
1532259507262798 -10 -13 2 -5 -1 6 27 -5
1532259507338596 37 -1 0 0 2 0 65 71
1532259507367518 51 12 2 7 5 -20 50 94
1532259507420388 -12 -1 -10 -2 -3 -21 23 -15
1532259507518115 -17 7 12 4 0 2 -15 0
1532259507577955 10 -9 -10 -10 -1 8 -11 13
1532259507637795 7 2 -14 3 -2 -1 21 -4
1532259507682675 -8 6 -4 -1 2 5 9 -7
1532259507719576 2 7 3 -8 -4 -6 1 0
1532259507749497 2 -2 -8 -3 -5 -6 1 -3
1532259507816317 4 33 9 14 -5 -14 0 1
1532259507833273 -5 -60 -7 -6 -9 2 2 -1
1532259507900094 -10 -72 -29 -13 -15 -7 0 -5
1532259507906078 -13 -17 11 13 10 6 1 7
1532259507937002 -8 -7 -27 -6 13 3 -15 -1
1532259507999827 -11 -25 -15 -1 4 2 21 -6
1532259508027752 6 -7 7 0 8 2 -5 -11
1532259508042713 -6 3 -4 -7 -8 -9 -19 -7
1532259508095571 -8 -6 9 0 3 5 1 5
1532259508163390 12 -2 -2 3 0 2 -3 1
1532259508254147 15 -5 -5 -2 -2 2 15 8
1532259508298030 -9 0 0 0 1 -1 -2 -2
1532259508537390 0 -2 22 26 1 10 -6 -2
1532259508650089 -6 -3 -14 -29 -17 4 4 1
1532259508683000 2 4 -3 -4 25 0 4 2
1532259508831603 12 0 -1 15 16 -2 0 3
1532259508853544 9 13 1 13 5 -1 -6 -17
1532259508885459 7 -3 7 10 5 2 0 2
1532259508927346 -1 6 -2 0 1 1 1 6
1532259509054024 10 12 5 -2 11 4 0 7
1532259509176680 11 -10 1 -8 -25 9 -2 5
1532259509214579 3 -2 11 -50 2 9 8 1
1532259509229540 -5 -13 18 -4 -3 11 3 0
1532259509249486 -2 -19 -27 -12 -28 -10 -2 -6
1532259509295375 7 -7 -2 13 -5 0 4 0
1532259509350216 40 26 -3 -2 -3 -6 -2 14
1532259509355203 6 -15 1 -3 1 -5 -1 6
1532259509451944 -9 0 1 1 1 -1 1 -5
1532259509590576 4 -7 -1 3 5 0 5 2
1532259509761118 -1 -26 -6 6 -11 -4 -3 2
1532259509783059 7 22 22 0 -1 0 -2 -3
1532259509834920 0 0 1 14 18 8 2 -1
1532259509924679 1 -5 10 -2 11 1 3 -1
1532259509972553 -10 -56 -18 -4 -9 -2 3 3
1532259510000477 -2 24 9 6 3 -2 -5 -1
1532259510059320 -15 -7 1 7 -4 -2 -4 -3
1532259510096221 -10 -19 19 10 9 -5 -4 -3
1532259510179000 5 -3 16 -4 -4 2 10 -1
1532259510246818 -1 9 -1 4 -4 -3 -1 2
1532259510315635 -1 17 13 12 3 32 6 1
1532259510374477 4 -12 4 -2 -3 -10 5 7
1532259510473214 0 0 12 7 1 -9 -1 -2
1532259510691642 11 16 3 5 -1 -4 -1 1
1532259510707598 -2 17 5 5 -1 -6 0 -3
1532259510727533 -5 6 -3 -4 -4 -7 -4 3
1532259510811308 -8 11 -2 -5 -3 4 -1 -6
1532259510824274 9 44 -8 1 0 3 0 0
1532259510864168 -14 11 -7 -2 3 0 6 1
1532259510878130 2 -14 -1 2 -1 -15 -1 -4
1532259510936973 4 -6 7 0 0 0 -2 -1
1532259510946958 11 27 11 -1 -4 -4 1 7
1532259510958914 -11 -13 -11 3 0 0 3 3
1532259510997811 -16 14 4 -5 -2 -3 2 5
1532259511088568 -38 24 18 0 1 4 -1 -6
1532259511110509 -1 10 2 -3 -2 2 6 14
1532259511164365 -6 -2 1 0 1 4 -2 0
1532259511224204 5 -6 -7 -6 -5 0 2 2
1532259511299005 0 3 4 0 1 -1 -1 6
1532259511349868 -3 -29 -6 0 -1 -2 -2 5
1532259511388765 3 -3 2 -1 -2 -3 0 2
1532259511432648 1 -8 -2 -1 -6 -1 0 -4
1532259511530386 -3 -15 -15 3 0 -1 -1 -2
1532259511607196 0 0 10 4 -1 0 0 -1
1532259511651063 -2 -14 -4 -2 -2 1 -2 -2
1532259511724866 2 28 -3 5 2 -3 -1 0
1532259511784705 -3 0 -6 -4 0 -1 0 -2
1532259511815623 1 10 -1 -7 -3 0 0 0
1532259511837578 -6 -63 -15 -5 -1 2 -1 -2
1532259511874466 2 54 17 -1 -2 -3 -1 0
1532259511913365 -6 15 2 -8 -5 -3 -3 -2
1532259511972205 0 54 15 -1 -3 -3 -1 1
1532259511994146 -3 26 3 -9 -4 0 1 -1
1532259512071938 1 -76 -38 -5 0 0 1 -2
1532259512138759 4 16 1 0 0 -1 2 3
1532259512175661 -2 -23 -8 -8 -4 -1 0 -3
1532259512227523 7 -56 -21 -9 -2 -1 -1 1
1532259512282376 -24 -26 20 -2 -2 -2 -1 -2
1532259512294343 -7 -7 -23 0 -2 -5 1 -13
1532259512341217 15 86 6 1 -5 -13 8 18
1532259512414023 -8 45 86 52 10 -10 1 -17

1532259512476854 -3 -12 8 2 -6 -12 1 9
1532259512511762 -5 -14 -21 -8 -2 -5 2 4
1532259512542679 -4 -4 -10 -3 -1 -5 -1 -2
1532259512557639 7 4 -3 -7 2 0 2 -2
1532259512594540 0 0 -10 -6 -3 -1 -1 -3
1532259512648935 -3 -12 -1 -1 -2 0 -1 1
1532259512672870 10 -33 -12 -7 -3 1 -1 1
1532259512722757 -7 1 8 0 1 -1 -2 -1
1532259512760891 -7 6 -5 0 -1 2 0 0
1532259512820732 -2 -2 1 0 1 1 0 0
1532259512962364 2 -3 -21 -18 -5 -2 -3 -2
1532259512988285 -1 -3 4 0 -1 2 0 -1
1532259513045132 3 -3 8 5 1 -4 -2 -1
1532259513074055 2 -7 2 -1 -2 -2 5 6
1532259513108962 0 3 2 0 0 -1 -2 -5
1532259513256567 -7 19 -25 8 -2 1 -3 -4
1532259513285490 -3 -6 -17 -2 1 2 -2 -1
1532259513314412 1 -1 -3 1 0 -28 -7 -3
1532259513458029 -4 -17 -90 -21 -6 -21 -2 -13
1532259513471991 -1 -15 19 -8 -7 -9 -4 -5
1532259513509890 4 -3 17 4 0 8 1 -3
1532259513576711 -1 7 -10 -5 0 2 0 4
1532259513629570 -1 -4 -4 0 0 -2 -1 0
1532259513660487 -4 14 17 7 8 1 -1 0
1532259513735286 2 -3 3 13 -10 -3 -3 0
1532259513780167 1 10 -7 -6 -3 -4 0 -1
1532259513855976 -5 -8 5 2 1 -1 -3 0
1532259513915804 0 2 1 1 8 2 -1 -2
1532259514035484 0 14 1 -3 -5 -1 -1 0
1532259514074380 -1 -14 -4 0 -2 -1 -1 -1
1532259514118263 1 -3 4 1 -1 0 0 1
1532259514132225 -3 -4 -1 3 3 2 -1 -2
1532259514159154 5 2 4 5 2 -1 0 2
1532259514202039 0 -1 -7 -4 -2 -2 -2 0
1532259514215004 2 -15 -13 -3 0 13 3 1
1532259514251906 6 13 13 6 2 15 3 2
1532259514283820 -8 1 2 1 1 0 0 -3
1532259514298780 12 9 8 0 -3 -10 -2 3
1532259514336695 -5 2 -6 -3 4 3 -3 -4
1532259514394524 -4 -7 -9 -3 1 0 3 3
1532259514409483 -10 -4 -6 -3 -3 0 -3 -14
1532259514509218 -5 10 -15 7 -2 -3 6 24
1532259514532156 1 2 0 -7 1 1 2 13
1532259514552102 -5 -7 -9 -16 -2 2 -1 14
1532259514611943 -73 2 -2 -5 -5 -2 -2 -4
1532259514628898 16 -3 -9 -6 -3 2 4 20
1532259514665799 -31 2 0 -3 -1 -4 -30 -5
1532259514687740 -23 0 1 4 4 4 2 -21
1532259514747580 -12 -12 -9 -5 -5 8 14 -5
1532259514814401 65 4 -32 -1 4 9 -7 -3
1532259514920119 -30 0 -7 6 0 2 -2 -10
1532259514964999 -3 -11 6 0 0 -5 -8 -23
1532259514993922 1 13 11 6 3 2 -8 -9
1532259515039799 -4 -3 -4 -5 0 3 -15 -14
1532259515055756 11 -1 1 11 3 0 -23 6
1532259515062737 -9 -8 11 0 5 20 65 3
1532259515115596 5 -1 10 4 3 -2 8 1
1532259515122578 2 2 -18 -1 -3 -5 -6 -9
1532259515160476 -1 -5 -13 -7 -4 -3 -4 1
1532259515182417 -5 5 3 6 2 -3 0 -8
1532259515220349 -1 2 -8 -3 -4 -5 -5 1
1532259515243265 3 11 -6 -5 4 1 0 2
1532259515267191 -12 -85 -24 -2 1 -1 -3 -2
1532259515294119 2 47 26 1 12 2 1 0
1532259515319052 4 5 11 -1 -2 2 0 0
1532259515361937 3 43 56 2 1 -1 -1 0
1532259515391857 -2 -2 13 0 -3 -9 -3 0
1532259515452695 2 -7 16 -9 -3 -3 2 -8
1532259515482614 -41 -10 -1 1 -5 -6 -2 -3
1532259515535489 -17 -5 2 -5 -10 -3 -2 -7
1532259515543452 21 25 6 -4 -8 0 2 5
1532259515581350 -2 -3 -4 -3 -16 -10 -25 5
1532259515609276 -14 -4 -4 -1 -5 -3 10 -8
1532259515648172 -25 -41 1 -8 -4 -2 -5 -9
1532259515670113 13 7 -3 0 -5 -1 7 1
1532259515700033 -25 -13 -1 0 1 0 3 4
1532259515722971 -29 11 1 1 -2 -3 4 6
1532259515782820 3 11 -2 -2 -3 -4 -4 -10
1532259515962339 9 -2 -10 -5 -15 -16 -18 3
1532259516015198 5 9 -21 -8 11 -10 -1 3
1532259516090996 13 9 -4 -28 11 7 5 3
1532259516105955 12 16 -14 0 -1 15 23 0
1532259516201700 0 18 7 44 -8 1 1 -5
1532259516262537 4 23 -5 -2 -7 1 3 2
1532259516276499 5 1 -1 -1 -1 -1 -3 0
1532259516285476 -2 -10 -2 1 -4 3 5 -12
1532259516309417 11 0 -1 2 1 1 3 3
1532259516370249 0 -3 -7 0 0 3 1 -5
1532259516427097 -4 7 -2 1 -2 -1 7 0
1532259516449038 3 -2 -6 -3 3 0 -4 2
1532259516615593 -16 9 0 5 35 -4 0 -2
1532259516682414 -12 -2 -12 -39 15 9 0 -6
1532259516721310 4 6 4 36 28 4 20 3
1532259516774168 -4 18 1 33 -6 1 -2 1
1532259516797108 -2 19 -5 -26 -8 0 -5 -3
1532259516818052 1 -2 2 9 -3 1 -5 0
1532259516865923 -2 -10 -1 1 -4 -1 3 -3
1532259516909810 -4 -11 -2 -4 0 1 5 4
1532259516951694 10 10 -3 1 1 -1 -3 15
1532259517074365 3 -15 -6 -2 -3 -1 0 -7
1532259517216984 -3 1 2 8 5 1 -1 -1
1532259517364590 0 -5 -26 5 -1 -4 3 9
1532259517411464 -9 -45 -8 -7 -6 2 0 4
1532259517439390 -22 -9 -20 -8 -2 -6 -6 -6
1532259517487262 -1 14 -16 -1 0 -1 3 4
1532259517547102 2 7 4 2 3 1 -6 -5
1532259517554084 -1 43 11 11 0 -1 -7 -13
1532259517604962 10 -3 8 -6 -1 6 2 2
1532259517664787 8 -21 -11 2 -3 -6 1 -3
1532259517697699 10 15 -4 5 -1 -2 -1 -5
1532259517732606 -2 10 6 3 -2 -2 2 2
1532259517809400 1 -20 6 5 1 -3 1 1
1532259517830345 2 -14 5 32 9 3 3 0
1532259517860264 9 1 -32 -13 0 -12 -5 -2
1532259517935064 -11 -12 -24 -14 -5 24 -5 -5
1532259517958003 10 74 -1 -5 -3 8 1 1
1532259517987923 11 12 1 -5 -3 -3 -1 -1
1532259518001886 1 -29 -6 -11 -3 5 4 0
1532259518017860 -1 -16 2 -3 -3 -5 7 8
1532259518070715 8 5 11 -13 -7 -7 3 3
1532259518109597 -15 5 -12 -2 3 22 1 -6
1532259518183417 5 -8 14 -7 -1 12 5 -13
1532259518245235 3 -8 -16 6 2 -2 -4 0
1532259518369902 -4 25 -29 -4 0 -3 1 1
1532259518438718 -1 28 -31 -1 -3 8 -1 2
1532259518453677 -28 30 -8 3 4 6 -1 -4
1532259518481603 -15 2 12 -3 1 -6 -6 -3
1532259518512520 7 -25 38 4 -1 -4 -3 -4
1532259518589314 -12 21 6 6 2 -1 3 -3
1532259518610259 -7 37 -4 -8 -1 13 7 -6
1532259518715975 -14 23 8 -3 0 -13 0 -4
1532259518827678 3 20 12 3 -3 -2 -2 -1
1532259518925416 -37 25 8 2 1 5 0 4
1532259518985256 1 -5 9 -1 -1 -4 -2 0
1532259519009192 -1 42 12 0 1 7 10 9
1532259519135853 -16 6 7 1 -2 3 1 -33
1532259519218632 7 1 -4 -2 -1 -2 8 9
1532259519287448 -4 -12 2 0 0 0 -3 -7
1532259519422088 2 4 3 -3 -10 1 1 2
1532259519509853 3 16 -1 0 -3 -1 -1 -1
1532259519569693 3 -22 -7 7 -4 -4 0 2
1532259519599614 3 6 9 -1 -1 -2 1 0
1532259519719293 2 4 0 -2 -3 -1 2 -29
1532259519787121 -13 2 1 -5 -7 -4 -3 -10
1532259519832989 2 -5 0 -2 -1 0 -2 2
1532259519846952 -4 -7 -4 -2 -5 -4 -5 -3
1532259519900808 1 -8 0 0 3 -1 1 -2
1532259519952669 2 -2 1 5 6 1 -1 1
1532259519982589 -5 1 -1 -1 -1 -1 -2 4
1532259520012509 -9 -1 2 2 0 -1 3 5
1532259520035447 5 -8 2 4 8 -30 -3 6
1532259520088307 -16 -8 -2 -3 6 13 -2 17
1532259520178066 -8 3 -20 -32 -11 -24 -4 -3

1532259520200007 -6 5 52 1 -1 -4 -3 -4
1532259520214968 14 14 -2 0 -1 -2 3 6
1532259520252866 4 -1 14 -7 -4 -8 -4 -6
1532259520266829 -11 -1 7 -1 0 8 1 3
1532259520326669 6 -23 0 -3 -1 5 -1 -1
1532259520380532 6 6 -1 -3 0 -4 -2 -3
1532259520433384 -6 -23 -1 -3 -2 2 -1 0
1532259520493224 8 13 0 -1 -4 -3 -3 0
1532259520598941 -4 -13 -4 -1 1 -1 -1 -2
1532259520644824 -3 5 -2 -3 -2 1 0 1
1532259520995419 7 -3 -3 0 -1 -6 -1 -1
1532259521069222 -1 14 0 0 -1 0 -2 -3
1532259521616758 -10 4 -1 1 -1 -3 3 -1
1532259521812563 -2 -19 -4 1 -3 -7 0 -2
1532259521857444 2 -10 -1 -1 -8 13 3 0
1532259521955421 0 -2 -39 3 3 -5 -1 -1
1532259521991324 -3 -11 11 -7 -2 -7 -2 -2
1532259522045181 -5 2 -19 2 1 -7 0 -1
1532259522098040 -1 -8 -10 -1 1 -4 -3 -2
1532259522134940 -5 1 8 13 1 2 -2 1
1532259522187799 1 0 -11 4 0 -1 0 0
1532259522217720 -1 23 7 -19 -7 -3 -2 0
1532259522231682 2 -18 -16 -9 -2 -2 0 -2
1532259522268583 -1 -3 0 1 -3 -2 0 -1
1532259522314461 -1 3 4 3 5 1 -1 1
1532259522330418 -1 11 -6 -22 -9 -6 -3 -2
1532259522360351 1 -3 -13 -4 -4 -4 -1 0
1532259522449101 -2 -3 4 6 4 3 0 0
1532259522480018 -2 -2 -2 -3 -3 -2 0 0
1532259522516919 -4 -6 -1 -3 0 2 -3 -2
1532259522547836 -7 -8 -4 2 12 4 -1 -1
1532259522553824 -12 -1 -9 0 -4 0 -1 -3
1532259522578754 0 3 4 3 -3 1 0 3
1532259522607677 9 3 9 -4 -2 -1 0 0
1532259522630615 2 1 6 10 6 3 2 -2
1532259522667516 -6 -9 -12 -2 1 0 -1 -10
1532259522674498 3 5 -12 -6 -7 -3 -5 1
1532259522728353 10 12 9 3 0 1 2 12
1532259522780215 -6 0 1 1 -2 0 0 -9
1532259522802156 0 -5 6 3 4 4 2 4
1532259522899895 8 3 1 -4 -1 -2 -3 -1
1532259522922833 -5 -1 10 29 17 8 -1 -11
1532259523036530 32 16 13 5 -1 -3 -1 4
1532259523043511 -7 -3 2 -3 -3 2 -3 -4
1532259523064454 -15 -17 -9 -9 -7 -10 -3 3
1532259523089388 -9 3 5 2 2 -3 -6 -15
1532259523117314 -13 2 -7 -2 2 3 1 17
1532259523140252 5 -2 5 -1 1 4 2 -8
1532259523185132 8 7 -3 2 0 2 -10 -25
1532259523251954 43 18 3 2 0 3 8 43
1532259523282871 -13 0 0 3 0 -4 -50 24
1532259523319773 30 14 7 5 6 4 27 2
1532259523357671 48 6 -7 -4 -2 -7 -19 -6
1532259523401559 -18 -32 -9 -9 -6 -37 20 27
1532259523416514 16 17 4 6 2 20 -13 2
1532259523485330 -1 7 9 6 6 24 1 27
1532259523508269 -24 -19 -10 -13 -13 -3 -33 -36
1532259523530210 -1 2 4 0 0 6 14 -27
1532259523597031 1 17 12 10 5 1 -4 -10
1532259523649889 -4 -3 -10 -6 -1 -2 20 -5
1532259523695767 8 -3 -3 -3 3 77 47 10
1532259523709730 -5 -40 0 3 3 -5 -4 -2
1532259523770567 2 16 -1 13 -3 -3 -2 -1
1532259523792513 -11 71 2 -26 -32 -26 -6 -10
1532259523845366 2 26 -8 -5 12 9 15 2
1532259523861325 6 29 17 3 7 -3 2 3
1532259523883265 -4 -26 -2 -6 6 -1 2 -3
1532259523922161 -7 -55 -15 -3 -1 3 0 -1
1532259523994967 22 12 10 -1 1 7 5 6
1532259524062785 37 -38 -1 -1 3 7 4 4
1532259524146561 -16 -22 -1 -13 32 15 26 0
1532259524189446 -7 25 -1 -5 1 -6 -18 2
1532259524242305 -15 -41 -27 -10 -11 -5 -12 -8
1532259524333063 -20 1 16 4 7 3 -3 -14
1532259524528539 1 34 2 0 6 11 10 2
1532259524544498 -3 -8 9 2 6 29 20 9
1532259524685121 4 24 18 -7 6 8 86 12
1532259524738978 -10 -7 -2 -2 51 19 26 5
1532259524767901 19 -77 -8 11 6 1 0 -2
1532259524804804 -10 4 11 1 0 -4 -7 -15
1532259524819761 -16 9 -5 3 -3 -5 -8 0
1532259524827750 39 -1 0 5 -5 -6 -17 5
1532259524881596 -15 3 1 2 1 3 11 7
1532259524895559 2 -4 -7 0 2 2 7 -2
1532259524955399 -6 64 13 -2 2 -6 -5 -5
1532259525022220 32 46 24 2 1 -4 5 -3
1532259525104999 15 -77 -15 3 -4 5 -18 10
1532259525172817 25 -61 -43 -6 -6 -40 -13 7
1532259525216700 45 24 21 25 9 -5 -1 22
1532259525247617 1 23 0 -5 -8 -16 -5 -22
1532259525299478 19 -27 15 17 27 6 2 2
1532259525314438 0 45 0 -3 -11 -3 -6 0
1532259525326407 17 127 19 39 38 7 -3 -6
1532259525345356 -11 -47 -2 6 0 2 2 9
1532259525368295 9 -66 4 -3 -9 -4 -1 2
1532259525398215 15 12 3 -2 -4 0 -1 5
1532259525411180 0 2 -7 -7 -12 -6 -2 -2
1532259525467030 4 -10 -9 -11 -6 -1 1 -21
1532259525473014 -5 23 1 -5 -4 -1 -3 -30
1532259525486977 -20 5 3 -7 -2 1 -2 -19
1532259525526871 -23 -4 13 3 1 1 2 -3
1532259525584716 4 27 0 2 9 0 -2 -23
1532259525743292 -4 8 8 31 34 8 1 0
1532259525772214 -13 -28 -3 -28 -35 -6 -1 -1
1532259525848012 -4 10 14 -12 -3 15 1 0
1532259525884913 0 24 -16 -11 8 -2 -1 0
1532259525982651 1 18 -5 14 -8 -1 1 2
1532259526042491 -6 -16 -3 -3 0 -2 -3 -3
1532259526065430 -13 -23 -2 -4 -9 -7 -4 -2
1532259526217025 0 -14 6 4 3 -4 -1 0
1532259526231985 -3 2 15 2 2 5 2 -1
1532259526282849 -3 -6 -3 -15 -3 2 1 -2
1532259526342689 3 -14 -13 -8 -1 -1 0 4
1532259526395547 -3 -9 1 -8 -1 -3 -3 -4
1532259526447409 -1 -8 -16 -5 -2 0 0 2
1532259526546145 7 15 8 -7 -2 -2 0 3
1532259526643896 4 6 -14 -4 0 3 1 -1
1532259526686769 0 7 -85 -2 -1 0 2 -4
1532259526747606 -4 -5 21 -8 -1 1 3 -1
1532259526839361 17 -28 -17 -1 -3 7 2 4
1532259526867285 17 -9 -20 -1 0 -3 1 19
1532259526964027 -32 -27 -8 -1 -1 10 15 -8
1532259526986966 -1 5 -38 0 3 -5 -10 -29
1532259527009905 6 1 16 2 2 -3 -5 7
1532259527048800 12 18 10 3 2 -1 -2 8
1532259527116619 11 -12 4 -1 -1 -6 -3 12
1532259527332043 -19 6 0 1 0 -1 -3 -33
1532259527342017 -14 -45 -3 -1 1 0 3 8
1532259527476656 7 -3 -2 -2 -1 -3 -2 -2
1532259527580379 2 22 3 -1 0 1 1 4
1532259527744938 3 56 -1 7 11 5 0 3
1532259527782838 -12 -6 32 5 1 0 1 1
1532259527880576 -3 -9 -8 1 -1 2 4 1
1532259527895537 3 -6 -18 0 2 0 -2 1
1532259527933435 0 -31 -1 4 2 0 -1 -2
1532259527993275 -2 -13 4 -4 -1 0 -1 -1
1532259528006240 -6 29 -1 0 1 -3 0 2
1532259528030176 -7 -45 -1 1 -2 -2 -1 0
1532259528053115 24 53 3 5 1 9 -4 -13
1532259528059099 -3 17 0 0 -2 4 -7 7
1532259528083036 -5 -17 4 1 -1 -6 -2 -6
1532259528099990 1 -14 0 -3 -2 -3 -3 -9
1532259528134896 0 -14 -3 -4 -1 -5 0 0
1532259528158832 -4 -60 0 15 3 -1 3 3
1532259528217675 0 -5 -2 2 3 -6 -1 2
1532259528262554 -25 22 6 -1 0 -1 0 0
1532259528300454 8 11 -2 -2 1 3 -1 2
1532259528329376 5 8 -27 -2 -1 0 -2 -13
1532259528353312 -1 -4 19 4 2 -1 -4 -4
1532259528376251 11 -24 16 3 0 -4 1 24
1532259528413152 17 17 -2 6 4 -11 1 36
1532259528435093 -4 0 34 0 1 42 4 12
1532259528458032 -3 -8 10 3 -2 -40 -8 -44
1532259528487952 -16 13 -4 -3 0 -22 -14 -24
1532259528510904 8 -10 88 25 -1 10 1 10
1532259528540811 -2 12 -81 -6 -1 0 7 0

1532259528585691 2 9 -14 7 5 24 -4 -11
1532259528615611 -16 -18 -18 -4 -2 -2 0 8
1532259528666474 3 10 -4 -2 -2 2 1 1
1532259528691413 0 -7 -5 1 1 3 6 4
1532259528735291 5 -7 -3 0 -1 -2 -3 -5
1532259528780171 -1 5 -1 1 0 -2 -1 13
1532259528809093 -1 -3 -1 0 0 -2 0 5
1532259528840011 1 6 1 0 0 -1 0 22
1532259528868933 -1 0 -3 -1 1 6 -2 -9
1532259528892870 -1 0 -1 -2 -1 1 2 -7
1532259528915808 7 6 0 0 -1 -1 -1 13
1532259528928773 -22 8 3 3 3 0 3 -7
1532259528952724 3 -4 -2 0 -1 -2 -2 0
1532259528958693 -4 2 1 -1 2 2 0 -6
1532259529012549 -3 2 -5 -1 0 -7 -6 -9
1532259529035488 10 2 -15 -5 -5 -6 5 16
1532259529073386 -3 -7 -9 0 1 0 -1 6
1532259529117269 4 -2 5 2 0 5 6 -6
1532259529163146 17 59 -3 1 2 -34 3 38
1532259529185097 9 -47 -2 -2 -3 -18 -8 81
1532259529237947 -1 -16 34 -7 -5 7 1 -10
1532259529260885 -9 9 67 4 1 10 0 -12
1532259529275845 1 10 -57 -5 -4 10 1 -14
1532259529311749 -3 -2 12 7 2 2 -1 -9
1532259529342667 -1 -6 -21 -1 -1 0 -1 -3
1532259529440405 1 -36 -67 -10 9 4 1 6
1532259529478304 -2 -12 -2 0 2 1 -1 -1
1532259529491269 0 12 35 0 8 2 2 1
1532259529575045 -5 -9 16 -6 9 -1 -1 -1
1532259529613941 -2 -6 -16 -8 -16 -5 -3 -1
1532259529673781 2 -7 -6 -2 -2 -3 2 0
1532259529695722 -3 -8 -3 6 4 3 2 -2
1532259529717664 -4 -7 -3 -2 -6 -3 -2 -2
1532259529731626 4 -14 -9 1 3 2 0 1
1532259529748581 1 12 10 0 -11 0 -1 0
1532259529799445 3 1 1 -2 -1 -2 0 2
1532259529823380 -1 -2 1 3 2 -1 0 -1
1532259529838341 -4 -2 -4 2 -5 -2 8 0
1532259529920137 3 2 -3 -1 1 1 -3 -2
1532259529949045 6 24 22 -2 0 2 -1 0
1532259530008884 -2 -1 6 3 0 0 3 -2
1532259530070727 -3 -16 -5 -2 3 -4 -4 -1
1532259530138554 15 3 -22 -1 -3 -7 -3 -6
1532259530199375 21 1 6 0 0 -4 0 -1
1532259530251237 6 -3 -5 -1 0 -4 -5 -36
1532259530378895 16 12 8 5 1 4 15 -7
1532259530409812 -1 -12 10 6 2 4 -1 -2
1532259530460688 -4 12 8 10 5 -10 -49 5
1532259530512538 -1 -21 -9 -5 -6 8 5 -13
1532259530534480 103 5 1 -4 -7 9 95 67
1532259530627231 45 12 8 8 6 7 72 50
1532259530671114 17 -3 2 3 1 3 17 11
1532259530760873 0 -3 -7 1 1 -4 11 1
1532259530790794 9 2 -1 -2 -7 4 10 -9
1532259530865594 0 3 -1 -7 -9 -2 7 -18
1532259530933413 -3 -20 -11 -15 -30 -15 -6 2
1532259530946378 2 57 34 4 21 12 6 -1
1532259531001232 11 17 28 -1 11 3 2 4
1532259531023173 -6 -6 -1 28 15 3 12 -14
1532259531084010 -5 -12 -12 -10 -14 -3 3 0
1532259531151829 3 -9 -5 -8 -19 -2 -1 4
1532259531224634 2 -14 57 -5 -5 1 -5 7
1532259531286469 9 19 -1 1 -9 -13 -6 1
1532259531360271 20 4 -12 -6 -2 4 9 6
1532259531405151 6 -1 2 1 1 -5 -13 4
1532259531571706 13 -1 0 1 -3 5 -7 3
1532259531697370 -3 -10 7 -5 -2 1 3 -5
1532259531742250 12 20 11 1 12 3 2 3
1532259531767183 -4 10 -4 3 35 6 25 2
1532259531835001 3 -11 1 -9 7 1 -4 1
1532259531849963 1 -15 -9 -12 -30 -7 -7 -2
1532259531863925 0 -21 -6 -7 -6 -2 -1 -3
1532259531908805 6 -48 10 -3 6 -1 -2 2
1532259531959668 0 -6 22 0 6 3 4 -2
1532259532005546 0 2 1 0 -2 1 -3 4
1532259532043444 1 5 -5 -1 -2 0 -2 -2
1532259532118245 8 -2 -1 0 -2 0 -1 1
1532259532164122 7 -12 1 0 -5 -1 -3 -1
1532259532321700 0 -2 -9 -4 -3 -4 -2 -1
1532259532335663 -3 -9 3 3 -10 -4 -1 -2
1532259532358601 -2 -1 -17 -28 -16 -3 -2 -4
1532259532411469 -4 -11 -16 2 -4 -1 -2 0
1532259532426420 -6 -6 -1 7 5 -4 -6 -2
1532259532499226 6 -5 -2 6 0 1 0 0
1532259532540117 0 -19 -1 -1 -1 0 4 0
1532259532591977 4 7 -2 -1 1 -1 -7 0
1532259532604955 -3 -5 0 0 -1 -1 -3 -9
1532259532671764 -1 0 0 0 3 0 -8 0
1532259532859263 2 7 -14 -1 -1 0 0 -1
1532259532952032 1 18 -22 0 0 2 -2 0
1532259533025817 -5 24 11 7 0 0 0 0
1532259533047759 -1 13 50 -4 -4 5 6 -2
1532259533086654 -5 -15 -17 -4 0 -3 -2 5
1532259533092639 1 -9 -15 0 -5 -10 -3 1
1532259533129539 2 4 14 -2 -4 -1 5 4
1532259533147492 2 11 -40 0 -4 -2 -5 0
1532259533175418 -3 -29 26 2 3 -18 -12 -3
1532259533234260 -2 1 28 -9 -6 1 -4 -3
1532259533406799 -6 -8 2 5 3 1 -4 -1
1532259533506532 -4 19 22 -2 -1 12 1 3
1532259533550414 -5 2 8 5 -2 -8 -3 -4
1532259533649151 -5 1 -8 -2 2 -1 0 0
1532259533708990 17 2 -1 -3 -1 -2 -2 1
1532259533821689 -11 3 -9 8 0 -9 0 -4
1532259533866569 -34 6 1 3 2 4 3 -6
1532259533992232 -5 2 3 1 1 2 2 -3
1532259534009187 6 3 -5 -2 -2 -1 0 3
1532259534062047 14 -14 -12 -4 -2 -4 -3 0
1532259534120889 6 -6 0 2 -2 -8 -2 -7
1532259534279465 5 6 5 1 0 0 -2 -8
1532259534331326 4 -5 1 0 -2 -3 -6 -18
1532259534443038 -3 7 -1 0 -1 0 -2 5
1532259534493892 -1 1 0 -1 1 1 -4 -11
1532259534898809 4 20 -8 0 1 0 -3 0
1532259534952665 2 -2 4 0 -2 -4 -1 1
1532259534997545 -16 -69 9 6 4 3 -2 -3
1532259535012505 11 -23 -22 -4 -1 -2 4 16
1532259535050403 -4 17 2 -1 -6 -3 -2 -5
1532259535081321 3 -7 -6 -3 0 0 -1 -6
1532259535103262 -4 -11 8 11 4 -3 1 -6
1532259535172078 -11 14 15 4 3 2 -2 1
1532259535201001 -9 -5 -6 -5 -2 -2 -1 -8
1532259535252861 6 -35 -29 -4 2 -1 1 -3
1532259535289764 -13 42 -1 10 10 10 1 106
1532259535297741 -1 -43 7 5 2 -23 -12 11
1532259535350601 8 8 7 -2 0 -17 -5 -34
1532259535372542 9 30 -67 -31 -6 -12 -11 -29

1532259535440360 -4 9 1 -5 -2 13 5 8
1532259535455332 2 18 57 -4 -2 2 3 -7
1532259535476265 11 33 15 -2 -3 2 0 28
1532259535515160 1 14 38 -1 0 -5 3 14
1532259535536104 -7 11 26 -1 -1 -1 -1 -21
1532259535562035 3 -16 0 -5 -3 -2 1 -4
1532259535584974 -7 -7 -1 4 1 1 0 -15
1532259535612899 -14 7 12 3 0 3 -1 9
1532259535635840 3 5 5 2 -3 -1 -3 -30
1532259535648803 1 -2 2 -1 -2 -3 9 19
1532259535702659 -2 5 -1 1 0 -1 -4 -9
1532259535718622 4 13 1 2 0 -2 2 14
1532259535769481 5 -1 -1 0 -2 -1 -4 8
1532259535792419 -4 -8 0 -1 2 -2 1 -7
1532259535829321 0 19 -2 -2 -1 -1 -3 -11
1532259535853289 -3 0 1 -1 -2 -2 3 1
1532259535901160 -1 0 0 0 0 0 -1 -17
1532259535928089 0 6 -2 -3 -2 -1 -4 -7
1532259535951027 -2 4 -1 0 0 0 0 -9
1532259535975019 6 -3 -5 -1 -5 -3 1 -10
1532259536001947 0 -1 -1 0 -2 -1 0 0
1532259536010923 -5 1 -1 0 2 -1 -1 -16
1532259536049083 -3 2 -1 0 -2 -1 -5 -23
1532259536062050 -9 3 1 -1 -1 -1 -1 9
1532259536071027 -1 -2 0 -2 -1 0 -1 -4
1532259536107927 2 -2 0 -1 0 2 -2 10
1532259536121890 3 -1 1 0 -1 1 -2 15
1532259536143832 3 -1 -1 -1 0 -3 3 8
1532259536175746 11 -8 -3 0 -1 0 -6 19
1532259536203679 -7 -4 1 3 1 2 -4 -13
1532259536241570 6 -7 -7 -4 -2 1 2 -13
1532259536264508 -8 6 5 0 1 1 -3 -38
1532259536279469 -5 -6 -1 -2 -2 -1 -9 -31
1532259536324349 -35 -56 8 3 0 11 3 33
1532259536361836 6 18 1 -2 -2 16 2 -6
1532259536424668 -3 1 108 18 6 20 2 -19
1532259536475531 -2 -13 -10 1 1 0 -1 -6
1532259536513431 1 8 -10 -2 0 3 -1 3
1532259536558316 1 -11 -1 0 -1 0 -2 3
1532259536601199 0 -15 0 0 -3 0 -3 1
1532259536654066 1 -1 -1 -1 0 0 0 8
1532259536678006 -2 20 14 0 2 1 0 -14
1532259536744812 -8 42 1 -1 -1 -1 -2 -56
1532259536805649 2 0 2 0 0 -2 -1 27
1532259536835570 2 27 33 3 2 0 -1 -3
1532259536871487 -2 -20 -9 4 2 2 0 -5
1532259536940299 2 7 -19 -18 -7 0 0 -2
1532259536978188 -2 -6 -17 -6 0 1 1 -2
1532259537016086 -2 12 -4 -5 -6 -1 1 -1
1532259537104849 4 19 -2 -1 0 -1 0 -1
1532259537114840 -1 -8 -4 -3 -1 -4 -2 -1
1532259537179649 -1 -1 -20 2 0 0 0 -3
1532259537292347 -4 6 14 -2 -12 -2 -1 0
1532259537345206 5 2 -3 4 5 2 3 2
1532259537386097 11 16 27 11 3 0 -5 2
1532259537458901 -1 1 3 -3 -7 -15 -7 -3
1532259537480844 9 9 7 -7 -6 -7 -7 3
1532259537517745 0 -6 -5 -2 -5 -33 -20 1
1532259537540684 -18 -6 -14 -5 -1 1 -1 -5
1532259537555644 10 -25 -6 10 12 10 6 3
1532259537585564 -14 -4 -2 -3 -8 3 1 -5
1532259537623462 -20 -6 -7 1 -1 3 4 -11
1532259537674326 61 -11 -28 -14 -10 -6 4 10
1532259537737158 -11 20 3 5 1 -2 -11 -6
1532259537760097 3 -12 -13 3 1 -1 -3 -16
1532259537818939 8 10 3 3 1 5 -6 0
1532259537839891 -30 -7 1 3 -3 -18 -11 -8
1532259537862822 53 22 10 10 4 7 0 -6
1532259537945601 17 1 -3 4 1 9 12 11
1532259537961558 74 -8 13 2 5 37 42 27
1532259538065280 -9 2 -5 -5 -9 -20 64 25
1532259538082235 -6 -11 -6 -5 -2 -9 -61 9
1532259538094215 38 24 21 8 6 3 -22 29
1532259538149057 51 11 23 1 -3 -2 2 25
1532259538191942 28 -11 -16 6 6 -1 36 27
1532259538209894 -43 -8 -11 -2 -4 -10 -8 -1
1532259538290678 -24 -15 -7 -3 -1 -1 57 4
1532259538321595 4 -3 -13 -4 -1 11 1 -38
1532259538373457 -7 -10 -4 -5 -1 -1 -2 -2
1532259538418337 1 6 3 6 3 2 10 6
1532259538463217 0 -89 -2 7 1 -2 -1 2
1532259538476181 2 77 -3 9 7 8 3 0
1532259538494134 0 39 -9 6 6 1 1 0
1532259538544001 -2 18 -7 -3 -3 5 -2 -1
1532259538576913 1 0 75 60 14 6 1 1
1532259538597870 -13 -52 -8 2 1 -5 -1 -2
1532259538620795 5 -29 -25 -6 -1 -4 -1 1
1532259538671660 -6 4 -18 -16 -5 0 2 -2
1532259538702576 -5 7 1 4 2 -1 -1 -7
1532259538724518 -1 -37 -3 -1 3 1 -2 1
1532259538770396 4 38 20 -3 -1 0 3 12
1532259538823256 5 -4 -1 0 2 0 1 3
1532259538928971 -19 -1 -6 -1 0 3 2 7
1532259538949915 -2 4 -2 3 0 -1 -7 3
1532259539085552 10 6 18 -8 -8 -4 -7 3
1532259539174315 9 -14 23 14 -22 -7 -3 -4
1532259539199256 -5 4 23 24 20 2 3 2
1532259539267067 0 -30 -51 -7 -6 -3 -1 -6
1532259539288011 7 16 -8 -1 -2 -2 -4 0
1532259539324912 7 16 6 0 -2 -5 1 -2
1532259539340870 -33 -2 -10 2 -1 4 23 -13
1532259539361813 -12 11 0 0 -4 -4 -9 -3
1532259539422651 -2 -12 8 5 3 6 -7 13
1532259539461546 -1 -9 -49 -3 1 -1 0 -11
1532259539507424 2 -12 5 -5 -2 2 5 0
1532259539664005 -9 -78 27 27 -10 1 3 -4
1532259539701904 -9 6 -18 -40 -14 -4 -1 0
1532259539806623 6 -9 11 9 -2 1 -1 -8
1532259539820586 -13 -21 15 -1 6 0 1 -5
1532259539924310 -1 0 1 -1 1 2 7 4
1532259540030027 5 2 0 1 -3 0 -2 0
1532259540069920 2 1 18 4 -6 -8 -6 3
1532259540105824 0 -16 -6 28 14 7 3 7
1532259540217525 16 -12 -9 -2 0 -2 -1 0
1532259540224506 -7 1 8 14 6 1 -3 -1
1532259540286342 3 -1 -12 -10 10 -3 0 2
1532259540434958 -1 -11 12 1 -4 -3 0 0
1532259540466859 -1 8 22 0 -4 -9 -3 9
1532259540517722 0 10 32 -2 -2 -1 -6 -10
1532259540593520 -1 14 9 -1 -3 -5 -8 -43
1532259540682283 -2 1 -8 0 -7 -13 -8 -1
1532259540713200 -3 1 -6 0 3 -9 -2 -6
1532259540774038 0 3 -7 -2 1 -5 -3 1
1532259540861803 -5 2 27 8 4 -2 -3 -5
1532259540923636 12 -5 -85 -5 -2 -5 11 33
1532259540930619 4 8 -14 0 0 -3 0 -6
1532259540997445 -4 -3 -7 0 -1 2 8 9
1532259541066256 3 -22 7 -6 -3 -4 -1 -2
1532259541073244 -1 -36 -19 -12 -5 1 1 4
1532259541192917 -2 15 12 -1 -5 -2 -2 -3
1532259541223834 -3 -13 3 -7 1 -2 0 0
1532259541258741 1 2 5 0 1 0 -2 -1
1532259541395376 3 5 10 0 0 0 3 3
1532259541470192 -14 -3 3 -6 -3 -2 -4 -3
1532259541621770 17 2 -2 4 -2 0 -4 9
1532259541927951 10 36 4 11 6 4 -2 -4
1532259542031674 7 9 -7 -2 -2 2 -2 -7
1532259542340848 -2 -11 -2 1 0 -2 1 -2
1532259542394709 0 -24 -5 -1 -3 0 -1 1
1532259542452549 -8 -3 -1 -2 -13 -2 3 19
1532259542512389 4 0 0 -1 -5 3 -1 2
1532259542558266 -5 32 -3 -3 4 -2 0 12
1532259542580207 -1 -26 -18 -1 -2 -1 1 7
1532259542669967 5 -5 0 6 3 0 2 -35
1532259542706869 6 0 -9 -4 0 -1 1 20
1532259542790645 -1 -1 -3 -3 -4 2 0 -11
1532259542826549 1 -6 -4 -3 0 -2 -1 -3
1532259542865445 -1 -17 -11 -1 1 -1 1 7
1532259542895375 -2 -2 5 3 1 -1 -1 -2
1532259542912319 2 1 1 -1 1 0 1 31
1532259542934260 0 -46 -9 -4 -1 -3 14 -11
1532259542957208 3 2 2 -6 -5 -2 -2 -15
1532259543000085 -10 14 2 -1 -1 -3 -7 0
1532259543030005 1 9 6 2 -3 -4 -2 3
1532259543043966 -5 6 3 2 3 3 -3 -3
1532259543069898 6 -10 2 1 -1 -1 1 0
1532259543120761 -8 -17 -12 1 2 2 3 18
1532259543135737 -5 -17 -3 1 0 -1 2 -6
1532259543195562 6 -14 -1 -1 1 3 5 -13
1532259543216506 14 11 0 -1 -1 2 -3 34
1532259543263380 6 -9 -8 -2 -1 -2 -2 5
1532259543329204 -2 31 5 2 1 8 7 -1
1532259543360122 15 -8 -6 -8 -17 3 -6 21
1532259543412980 0 7 -2 5 3 1 2 -8
1532259543457861 -8 -6 -17 10 -2 -11 7 7

1532259543562580 -1 5 -11 -3 -1 1 -5 -10
1532259543600929 2 -8 -14 -1 1 1 -3 -7
1532259543688697 -6 2 -4 -1 -2 1 -3 -8
1532259543795411 1 -12 -2 -2 0 -1 -1 7
1532259543818350 8 12 -1 1 1 1 3 2
1532259543869213 -2 -17 0 1 -1 0 3 -1
1532259543915091 -2 4 0 1 1 -1 -4 -7
1532259543958974 -3 -3 -2 -1 -1 0 -2 -6
1532259543988894 -2 2 -2 0 0 -1 -3 -7
1532259544011832 -2 -6 -4 -4 -2 -1 -2 -59
1532259544026792 -4 -1 -3 1 1 -3 1 -1
1532259544071836 -2 8 1 0 0 3 1 3
1532259544095771 -5 10 1 3 0 -2 1 5
1532259544132672 3 9 1 1 0 2 6 -6
1532259544155611 -1 -13 0 0 -2 -5 -5 -5
1532259544178558 0 4 -1 -1 0 0 -2 2
1532259544199494 0 3 -1 -1 1 1 3 7
1532259544245371 -5 -10 0 1 -2 -2 -2 1
1532259544297233 1 -24 -3 -1 -3 1 1 -2
1532259544305212 -1 -1 0 -1 0 1 -1 -5
1532259544358070 1 -12 0 -2 -2 -1 4 -6
1532259544395969 1 2 -1 0 0 0 3 6
1532259544431873 -21 -11 1 1 -1 -1 -4 -9
1532259544477750 -10 6 0 1 0 1 -3 -14
1532259544537590 0 8 2 0 -2 -1 2 4
1532259544598109 2 -13 1 -1 -2 -1 2 10
1532259544635011 3 -5 0 -1 2 -1 -5 -7
1532259544717790 0 10 -3 -2 -3 -1 2 0
1532259544755689 1 -7 -4 -2 1 0 -4 -2
1532259544799571 -6 6 -2 1 0 0 -2 -14
1532259544837904 16 -4 1 -1 1 -2 7 32
1532259544851866 3 -26 -3 -2 -3 -1 1 4
1532259544866826 5 17 0 -1 -1 -1 -4 4
1532259544935642 1 -5 -2 -2 -2 1 1 8
1532259544957583 8 5 -4 0 -2 0 0 6
1532259544971546 -1 1 -1 0 -1 2 -3 -16
1532259544980522 7 9 1 -1 2 0 -1 -3
1532259545055180 -3 0 -1 1 -2 0 -1 -46
1532259545078122 3 -1 -1 0 0 -2 0 15
1532259545115020 -3 6 0 -1 0 -1 0 8
1532259545160904 2 -4 -3 -2 -1 -2 1 11
1532259545220736 17 0 -5 -4 -2 -3 -1 9
1532259545234699 4 -1 0 -1 -1 -2 1 -6
1532259545265617 -10 -6 3 2 1 0 0 3
1532259545304513 -5 9 2 0 -1 1 1 4
1532259545340175 1 3 -2 -2 0 1 2 -4
1532259545355135 -2 -5 -1 -2 1 1 -3 1
1532259545407994 -5 -3 1 0 -2 -1 0 -5
1532259545430933 4 -2 -2 1 0 0 -1 9
1532259545482793 2 2 1 -1 0 -2 1 1
1532259545496756 -1 -5 -1 0 0 0 -1 1
1532259545556596 0 8 -1 -1 1 -1 -1 0
1532259545579534 2 3 0 -1 0 0 -4 -6
1532259545594495 -3 14 -1 -2 -1 -2 1 5
1532259545634388 9 -3 -2 0 2 -1 3 -4
1532259545654335 1 21 -1 0 1 0 5 13
1532259545677274 -2 -3 0 -1 0 1 -2 0
1532259545700213 -5 7 -1 -1 -1 0 -1 3
1532259545774014 -7 -4 0 -1 0 -3 1 0
1532259545819901 0 3 -2 1 0 1 -1 -8
1532259545841833 -1 -1 -1 -1 0 -1 2 8
1532259545879732 4 -11 -2 0 0 0 4 -3
1532259545954533 8 5 0 -2 0 1 5 -6
1532259546023348 -4 -1 1 1 1 -1 -1 2
1532259546045290 4 9 -1 -2 -1 -1 1 0
1532259546059252 -11 1 0 2 -1 0 -2 -2
1532259546083188 4 -4 -3 -4 0 -2 -4 13
1532259546097151 1 4 2 -2 0 -1 0 5
1532259546128068 1 -1 -1 -2 -2 1 -3 -8
1532259546143028 -4 -3 -1 0 0 -2 1 -4
1532259546187908 1 5 -1 2 1 -1 -1 4
1532259546216830 0 3 0 -1 1 -2 2 2
1532259546247454 -2 0 -1 0 -2 -1 5 8
1532259546299315 -4 -6 -1 -1 0 -1 -4 0
1532259546360153 1 6 -1 0 -1 -3 -2 5
1532259546390072 0 7 -1 0 -2 0 4 5
1532259546419999 -3 -2 0 -1 0 0 -1 -3
1532259546465876 0 -12 -1 -1 -1 -1 3 -2
1532259546487818 -6 3 1 1 1 1 -2 -3
1532259546502777 -7 4 -1 -2 -2 -1 2 -5
1532259546525716 -19 12 2 1 2 0 0 3
1532259546562617 5 -4 -1 -1 0 0 -4 -2
1532259546636420 -23 7 2 2 2 0 -1 0
1532259546660394 7 -20 -2 -1 0 0 2 1
1532259546780074 3 -4 -2 -2 -1 0 0 -7
1532259546899754 -1 6 0 -1 0 0 3 -4
1532259546945631 -5 5 -1 0 -1 0 2 -4
1532259546967573 2 8 -1 -1 1 -1 0 4
1532259547043370 -2 0 -1 0 0 0 0 -6
1532259547133247 -5 0 0 0 0 1 1 39
1532259547147209 -4 3 36 1 -1 -4 -7 -11
1532259547185107 33 77 -3 0 3 10 2 -13
1532259547223006 -8 -29 -10 -3 -4 -3 -3 -23
1532259547244949 1 -25 -7 2 2 6 -1 -7
1532259547305785 -5 -17 -10 -8 -3 7 0 -11
1532259547342686 -1 0 -11 2 -2 2 -4 0
1532259547365626 -4 3 -19 -2 2 1 -3 -15
1532259547410505 1 -2 -8 0 -2 3 1 -6
1532259547425465 2 9 -27 -2 -2 0 -3 -7
1532259547499268 4 25 5 1 0 -1 -1 -2
1532259547605985 -4 -14 -6 1 1 2 0 -3
1532259547627924 -3 -39 12 -1 -3 -1 -3 -3
1532259547664836 2 11 4 -13 -11 -4 -1 -2
1532259547687779 0 5 -12 -3 3 1 -2 1
1532259547725663 3 5 3 22 5 2 3 1
1532259547762571 -6 1 -6 -5 -1 -4 0 -1
1532259547808441 9 0 -7 0 12 2 1 3
1532259547845343 -5 -1 1 -9 15 7 2 -5
1532259547859305 -22 -16 -22 -14 -15 -5 -5 -6
1532259547928121 -2 0 2 -2 -12 -3 -4 -2
1532259547987961 0 -11 -2 8 -1 -1 -5 -2
1532259548078719 2 12 14 -6 -5 -5 -1 -2
1532259548206377 5 1 2 1 0 0 -1 0
1532259548301123 -12 2 32 1 -4 -4 -2 -6
1532259548522532 -14 8 28 -4 1 -2 -5 -20
1532259548559433 -59 -8 -9 -5 -4 1 12 18
1532259548684099 -24 -25 -11 -4 -8 -8 27 -24
1532259548836692 -22 -9 -1 -8 -9 -4 51 -60
1532259548939417 13 8 17 0 3 1 5 -12
1532259549216676 2 -3 14 3 -5 2 0 3
1532259549270531 -5 28 23 3 -5 -11 1 -5
1532259549315411 16 30 -41 -6 5 4 1 3
1532259549338350 -4 5 31 1 6 3 1 -3
1532259549428110 24 -18 -15 -14 -9 -6 11 0
1532259549533828 -3 -4 -6 -4 -2 -5 -2 -4
1532259549577710 9 6 9 -2 0 -2 -5 -7
1532259549780169 -3 4 44 -2 0 -2 -10 -1
1532259549870928 11 29 2 22 -7 -1 1 2
1532259549906830 4 26 24 3 8 3 0 3
1532259549945726 -6 -22 0 -5 -8 -3 -3 -1
1532259549966670 -21 -11 -9 -6 1 -4 3 0
1532259550013544 3 38 9 -5 -2 0 3 0
1532259550073385 4 -7 -58 -6 0 3 1 4
1532259550103307 -16 -16 15 1 0 4 2 2
1532259550162147 -11 10 -10 0 7 8 10 -2
1532259550312744 0 12 -3 -2 -51 -3 -5 -1
1532259550357624 -1 8 23 3 -15 -6 -5 -3
1532259550501241 2 -12 9 4 -2 1 -1 1
1532259550523182 0 27 -3 -1 0 -2 3 15
1532259550564073 -6 -18 -2 2 0 0 3 -2
1532259550636884 -9 -9 2 1 -1 0 -2 -2
1532259550701704 15 11 4 -2 -6 -2 0 2
1532259550777505 -3 -24 -10 -18 17 -6 0 -2
1532259550914137 -4 0 7 -6 4 4 4 -4
1532259550997913 -6 7 5 -7 0 0 1 -1
1532259551079694 8 27 -1 0 -4 -2 1 15
1532259551115598 2 5 25 0 -2 -11 -4 0
1532259551129570 -6 11 -11 -36 -10 9 0 6
1532259551190398 -11 0 -8 -21 -6 0 1 0
1532259551242260 -3 -10 -16 -9 -2 -5 -2 1
1532259551349971 -3 -19 -8 -1 0 -2 -3 -1
1532259551416792 -7 -13 -2 -11 -9 -7 -1 -1
1532259551421779 -2 8 -8 -13 -3 -4 -2 -4
1532259551468653 -1 -13 -9 -8 -2 2 2 0
1532259551498574 -3 14 6 -3 -2 -3 -2 1
1532259551596312 -6 6 1 3 1 2 1 -2
1532259551671112 3 -9 -10 -5 -1 0 0 0
1532259551904488 -37 31 19 4 0 -4 0 -9
1532259551962333 1 11 2 9 3 1 0 1
1532259552404154 -19 21 8 2 2 0 3 -6
1532259552669442 -3 -16 8 2 0 -2 1 1
1532259552699362 -1 3 -4 -4 -1 -1 -1 0
1532259552795107 0 18 -5 -3 2 -1 -2 -10
1532259552817048 10 17 5 -4 7 4 0 3
1532259552876888 -2 -34 -21 -3 -37 -4 3 -15
1532259552914786 -11 -2 -1 8 -1 1 0 -5
1532259552960664 1 -12 -8 3 3 -1 -2 9
1532259552997565 9 14 3 3 4 5 -6 7
1532259553058402 -1 -58 -13 -1 0 -1 5 12
1532259553094306 2 32 12 1 -1 -4 -5 -5
1532259553140184 20 63 8 -1 -1 -2 3 -53
1532259553177085 -14 9 5 -1 -1 0 1 9
1532259553236936 -8 5 1 1 -2 -3 0 1
1532259553273826 -2 -1 6 -5 -1 -7 2 -2
1532259553357602 1 45 15 -1 -1 54 20 -30
1532259553387522 -2 -20 3 -3 -1 30 16 19
1532259553425420 -8 -1 -87 8 -1 -29 -11 -8

1532259553500221 -9 -23 16 14 2 -1 0 4
1532259553539117 2 14 -13 0 -2 -2 -5 -67
1532259553605938 -3 -10 4 2 -2 -5 -5 3
1532259553671762 0 7 -3 1 1 -1 -3 -6
1532259553702679 -31 2 0 1 0 -1 -4 -54
1532259553741575 10 -2 -1 -1 0 -2 -2 9
1532259553762519 -3 -28 -3 -2 -3 -2 -9 -46
1532259553830338 -3 -13 -1 2 0 -1 3 17
1532259553860258 -3 0 -2 1 2 -1 -1 -2
1532259553882680 5 8 0 0 -3 -1 -7 -17
1532259553942520 -2 -13 -6 -2 -1 0 1 -2
1532259553956483 -7 5 3 1 0 0 4 -4
1532259554033278 10 4 -2 -2 0 -1 7 2
1532259554063197 -16 6 3 0 3 2 6 10
1532259554085138 15 -7 -5 -3 -1 -3 -4 -1
1532259554108077 6 1 0 2 0 -1 -7 -7
1532259554161933 -2 9 2 -2 -1 -1 5 20
1532259554188861 -17 -1 1 0 -1 -1 -1 -8
1532259554205815 8 -3 -1 -2 -1 2 0 -36
1532259554236751 3 0 -1 -1 0 0 -6 7
1532259554265656 -2 -8 0 1 -1 1 8 7
1532259554302557 8 6 0 -1 -1 -2 -7 44
1532259554363075 3 -15 -3 -2 -2 0 -3 12
1532259554459817 -1 -2 -1 0 0 -1 5 -4
1532259554565534 0 -3 0 -1 -2 0 0 -7
1532259554625403 -19 3 -2 -1 -1 -7 0 -12
1532259554648342 -10 -52 0 4 5 1 -3 -39
1532259554723142 -7 -36 4 1 -6 5 0 5
1532259554745084 4 -14 -81 3 2 9 -2 2
1532259554842822 -3 2 9 0 1 1 -1 -8
1532259554878726 0 7 9 -1 -1 2 0 1
1532259554939570 -2 -5 3 0 1 0 -5 -16
1532259554993419 -4 -4 1 -1 -1 -1 -7 -2
1532259555044283 0 -3 -3 -1 -2 -2 4 6
1532259555068219 -2 -2 -1 -1 0 -1 1 2
1532259555144017 1 -40 -6 0 -1 -1 -1 3
1532259555165957 -1 2 -2 0 -1 -2 1 2
1532259555202858 1 -3 -2 -2 -2 0 2 0
1532259555329520 4 23 -9 -6 -8 -4 -2 -1
1532259555359441 0 5 -17 -3 -2 -2 -1 -1
1532259555421281 -28 -94 -10 -3 0 -2 -5 -12
1532259555465158 -7 14 6 5 3 58 4 -2
1532259555554918 1 0 4 -1 -7 -3 -2 1
1532259555585834 -4 2 6 1 -3 -11 -4 -2
1532259555607782 -1 -2 13 4 1 14 13 2
1532259555681579 0 2 -5 1 1 10 8 3
1532259555774331 12 -1 1 -5 0 -9 -1 14
1532259556184235 -86 -18 -22 -10 -2 1 8 -3
1532259556560230 -8 -9 -15 -4 0 -3 -4 1
1532259556616080 5 -13 11 5 2 0 -7 2
1532259556710827 -1 20 3 9 28 13 3 -2
1532259556740747 -1 -14 1 -2 -13 2 -1 2
1532259556755706 -3 6 19 -3 -2 -11 -2 -1
1532259556800587 4 -27 -23 -5 -11 -3 0 -1
1532259556817557 -1 -18 5 6 9 14 1 0
1532259556868405 -8 -4 -64 4 11 10 -2 -1
1532259556904327 2 17 13 15 18 5 14 -6
1532259556935227 -27 -37 0 -5 -4 -7 -16 -10
1532259556958165 -13 -35 11 4 7 2 10 8
1532259557085824 16 1 3 -4 -4 -2 -51 1
1532259557152645 0 7 1 1 6 -3 25 -3
1532259557363083 3 1 -22 -1 33 6 -4 3
1532259557497722 3 20 -14 22 21 1 12 -2
1532259557512682 -6 20 -8 9 -4 -4 -9 1
1532259557526645 -18 -10 3 15 -1 -9 -11 -6
1532259557550581 -51 3 8 10 6 4 4 -9
1532259557574517 7 -10 -2 2 -8 -2 1 6
1532259557618400 1 1 -7 1 0 -7 1 -2
1532259557693200 19 -11 -3 -2 -3 -4 -6 8
1532259557724117 19 -1 -1 -2 -5 -3 8 13
1532259557798933 5 12 0 -1 -1 -2 -4 2
1532259557889693 8 -15 -2 -8 -5 2 -3 7
1532259557978436 -13 -37 -9 -16 -9 8 9 -6
1532259558052239 -4 -57 -15 1 -13 -13 -8 -4
1532259558129034 -8 12 -4 -3 1 4 4 -2
1532259558156972 12 -4 -8 -3 -6 -8 0 4
1532259558209818 1 -11 -10 -5 -6 -26 -15 -4
1532259558239738 -3 -2 0 6 1 2 1 4
1532259558322517 15 1 4 -5 -4 7 7 3
1532259558422267 7 11 -2 20 17 -12 -13 -2
1532259558449178 6 -1 8 -3 -2 15 12 1
1532259558555893 3 -6 -60 -7 0 6 -3 -9
1532259558624709 -5 -49 -25 -2 3 -9 -9 -3
1532259558646650 -4 7 0 -3 -2 2 1 -2
1532259558690533 6 32 3 -2 0 -1 1 1
1532259558712474 5 9 8 -9 -6 0 0 2
1532259558752367 11 14 8 -19 -1 3 2 -3
1532259558775315 -2 -16 -17 -11 0 5 6 -1
1532259558814203 -1 11 6 4 -2 -6 -4 -4
1532259558827180 -6 6 1 3 4 8 4 1
1532259558877034 -11 -14 -3 -3 3 0 1 -3
1532259558968788 -1 -3 -2 -13 -2 3 9 7
1532259559140330 -6 -1 2 -2 -6 -1 -2 0
1532259559456485 22 -4 1 2 0 -5 -2 4
1532259559762666 5 4 -2 -10 -6 -4 -2 0
1532259560242403 3 -57 2 0 1 1 6 18
1532259560399971 -2 45 -5 -3 -1 3 -3 1
1532259560482750 -3 46 13 1 0 0 3 11
1532259560512670 -4 3 42 -7 -6 -6 -2 -2
1532259560618387 0 -23 9 -1 0 0 -2 1
1532259560677230 -50 33 69 4 -1 -1 5 -75
1532259560700168 10 -13 -29 -5 -2 -1 -3 22
1532259560730088 9 -25 -26 -4 -9 -5 -3 11
1532259560760008 5 -30 -10 1 -1 -5 -3 8
1532259560782947 -4 -4 -10 -2 0 0 2 4
1532259560842787 1 -11 4 0 -3 -1 -2 0
1532259560880686 -10 16 -6 -2 2 1 0 -1
1532259560956483 -12 -12 -2 -1 1 0 -3 -51
1532259561024302 13 -14 -4 -2 -2 0 -3 3
1532259561045245 7 -27 -2 1 0 1 5 4
1532259561105086 -4 -2 -1 -2 -3 -3 -3 -8
1532259561120046 -5 13 -2 -1 0 2 -2 -10
1532259561159939 8 25 42 7 1 0 -1 8
1532259561163928 1 24 -8 -3 -1 3 -2 -1
1532259561216787 -9 7 15 10 4 0 7 -3
1532259561255683 17 -1 14 3 3 15 -11 -54
1532259561287598 -12 -12 -8 -4 -12 -3 -42 -128
1532259561345443 -8 -4 44 20 4 -9 -5 8
1532259561374366 15 48 14 16 6 -4 7 41

1532259561420242 -1 -8 -9 3 1 -5 7 -10
1532259561518979 -6 -15 -4 0 -1 1 -4 -3
1532259561524963 2 17 1 -1 0 -2 -2 -3
1532259561600760 -9 -31 -1 2 -1 0 -3 5
1532259561652621 0 -3 -2 -1 -2 -1 3 6
1532259561735399 -1 1 0 -2 -1 1 0 3
1532259561803219 -10 7 0 -1 1 -1 -3 -4
1532259561870040 -2 9 -1 -1 -1 0 -2 1
1532259561929881 4 6 -3 1 0 -3 0 5
1532259561962792 -9 -2 0 0 0 1 -1 -2
1532259562029613 1 1 0 1 -1 0 -1 9
1532259562080477 1 -2 3 1 1 1 -2 2
1532259562163256 1 3 3 -2 -1 -2 3 3
1532259562245037 5 12 -48 -13 -17 -2 -2 1
1532259562259000 2 28 29 0 1 -3 -2 -2
1532259562318840 0 9 -8 -25 -16 -5 -2 -5
1532259562357736 -4 1 8 9 8 3 0 3
1532259562439517 -17 -21 -25 -17 -4 -3 -2 -8
1532259562509330 -5 0 1 0 -2 0 3 2
1532259562575154 -11 -13 -16 -4 -2 -3 -1 -4
1532259562635116 -9 5 13 1 -2 0 -4 -10
1532259562747815 -8 29 16 6 5 -20 -12 -10
1532259562815634 -5 -2 -4 -8 -5 -6 14 13
1532259562949276 60 12 11 10 7 16 33 51
1532259563061975 -58 -8 2 5 -3 10 -2 -17
1532259563316295 -2 -18 9 9 11 5 -4 -3
1532259563400071 -7 -59 -15 -10 -2 2 3 2
1532259563483848 2 -19 6 -1 2 3 1 -3
1532259563505789 1 -28 -15 -3 1 3 0 -1
1532259563596546 6 -23 2 7 -4 0 -13 5
1532259563655389 9 -2 -11 -6 -4 11 9 4
1532259563662370 -9 2 2 -1 -1 -2 3 7
1532259563828924 4 5 -8 -8 27 1 -5 2
1532259563874802 -2 -26 -30 -11 -10 2 4 3
1532259563938630 2 -17 -28 -10 -28 -7 5 2
1532259563961570 -36 -3 15 -4 -6 -2 10 -5
1532259563985506 -1 -5 7 3 -4 1 -11 -12
1532259564016423 9 9 -12 -1 1 1 0 3
1532259564021411 24 10 24 2 0 1 3 -1
1532259564098204 -12 3 -7 -1 -5 -6 1 0
1532259564122141 26 -7 -6 0 -1 -1 -13 6
1532259564166023 -11 -2 -1 -1 -1 -1 -2 0
1532259564246851 -5 19 2 2 4 7 -1 -1
1532259564293726 3 -7 -27 -3 -6 -3 -6 -4
1532259564501937 7 9 2 -6 -4 -2 -2 2
1532259564540834 -11 -11 4 -11 -1 2 -1 -3
1532259564561159 5 1 -10 2 -1 -2 -1 2
1532259564601052 8 -4 0 4 3 -2 -2 1
1532259564669868 -17 4 14 0 -1 -1 0 -6
1532259564704775 -13 -2 4 0 -2 -1 1 -1
1532259564788550 2 -9 1 -4 -2 -1 -1 -1
1532259564846685 -13 8 -2 4 -2 1 1 0
1532259564870622 -6 4 -4 12 -5 -1 -5 -1
1532259564975342 0 5 5 11 -7 -2 2 -1
1532259565005270 5 9 1 2 42 8 2 0
1532259565052165 1 -4 -3 -9 -28 -3 -1 -1
1532259565103029 0 -11 10 6 -5 -4 -2 3
1532259565110010 -5 2 -7 -3 -3 6 -3 -8
1532259565140928 2 4 3 4 3 -2 2 3
1532259565169850 -5 -51 6 1 -9 -6 -1 -4
1532259565199770 2 -20 13 2 4 3 2 0
1532259565217723 0 12 -1 10 25 11 5 -3
1532259565244651 4 5 11 0 0 -4 -1 3
1532259565284544 8 35 -8 0 -1 0 1 -1
1532259565312687 2 7 -6 -7 2 -1 -2 0
1532259565344618 -1 18 3 -2 4 1 1 0
1532259565372528 -5 -35 -12 -9 -3 -9 -7 -2
1532259565456304 1 -4 -3 -9 -3 0 -2 0
1532259565492219 1 19 23 0 5 -1 4 4
1532259565523136 2 1 13 9 -1 -1 -2 -3
1532259565531114 0 -1 1 -6 -6 -4 -6 -1
1532259565611898 0 4 -3 -3 -1 1 0 1
1532259565672736 1 3 9 -9 -7 -2 -2 -2
1532259565831311 -13 1 0 -12 -3 3 3 -2
1532259565875195 1 -16 1 2 2 3 2 -2
1532259565989888 4 1 2 5 1 3 0 -2
1532259566176395 25 8 9 -5 -2 -6 -4 1
1532259566354912 -16 -12 -8 0 1 -1 1 -4
1532259566848623 4 -16 1 -1 4 -1 -4 -9
1532259567006916 -3 -27 -10 -4 -24 -7 -1 -9
1532259567051797 -6 -5 2 -3 2 2 -1 -3
1532259567135584 -2 -13 -5 -2 -2 -2 2 -8
1532259567157514 3 24 8 -2 -1 -5 -2 -5
1532259567195413 -3 3 4 -4 -2 -1 -2 -10
1532259567218351 8 -8 -6 -6 -2 -2 -4 7
1532259567255253 -14 0 6 3 2 3 -2 2
1532259567278191 4 32 3 0 -2 -5 -2 5
1532259567292154 -9 -26 -6 -2 1 2 1 -15
1532259567338032 -5 -17 2 0 2 1 -1 3
1532259567352992 -10 -3 3 1 2 -1 -4 -3
1532259567397871 11 -7 2 0 1 -1 -2 3
1532259567434957 -8 -56 9 -4 -4 -3 0 1
1532259567471859 11 12 2 6 1 0 15 23
1532259567495794 -7 18 2 2 3 6 7 62
1532259567517736 -14 99 16 8 6 19 8 -5
1532259567562616 -7 -44 2 -4 1 -8 -3 -14
1532259567577576 -19 -59 7 26 6 27 -9 -24
1532259567615475 17 -15 -66 -29 -10 6 -3 1
1532259567638413 -7 -8 45 0 0 3 -7 -19
1532259567675314 4 -7 0 -15 -4 5 1 3
1532259567734157 -7 -6 7 0 -3 2 -2 4
1532259567766072 -3 -2 0 2 -3 -2 -1 4
1532259567817933 -9 -4 -4 -1 -2 0 0 0
1532259567900712 6 13 12 1 -2 -1 -1 9
1532259567981496 4 -11 -2 -1 -2 -1 0 -24
1532259568034354 -11 3 1 -1 -2 -2 0 -5
1532259568094194 -1 -3 1 1 1 1 3 30
1532259568118130 3 -1 -2 -3 -1 -1 2 21
1532259568179974 6 5 0 1 0 0 2 36
1532259568215869 -4 5 0 -2 1 -3 1 12
1532259568266732 3 -3 0 0 -1 1 5 -6
1532259568320589 -2 1 -2 -1 -2 -1 -4 -10
1532259568342530 -6 4 -1 -1 -2 -1 -3 -22
1532259568440270 -5 -2 2 -2 0 0 6 20
1532259568484151 -7 8 3 -1 1 0 1 -10
1532259568539005 -2 2 -1 0 0 1 -4 -38
1532259568695586 -21 7 3 1 2 1 2 0
1532259568746450 -5 3 0 0 0 -2 -2 -18
1532259568791330 -7 4 -1 -2 0 0 -1 7
1532259568868125 -5 -2 -1 -2 -2 2 0 7
1532259568965863 1 7 1 -1 0 -1 2 -5
1532259569025704 3 2 -1 0 -3 -2 -1 20
1532259569079559 19 -11 -5 -4 -2 -3 0 -4
1532259569145383 0 1 0 -2 0 -1 3 19
1532259569160344 -10 1 0 0 1 -1 -5 -35
1532259569220184 1 -1 -1 0 -3 -1 -4 -14
1532259569354823 1 -7 -4 -2 -1 -3 -2 -2
1532259569496444 5 4 1 -1 -2 0 -2 27
1532259569579223 -1 -9 -1 -2 0 0 -3 -12
1532259569640060 0 4 1 0 -1 0 -7 -12
1532259569707891 6 -1 -2 0 1 1 -4 -5
1532259569781682 6 -4 -3 -1 -2 -2 -2 0
1532259569962199 0 -4 -2 0 1 0 -1 -15
1532259570119777 1 -2 -1 -3 -2 -2 -2 7
1532259570187617 4 0 0 0 0 -2 -1 -2
1532259570314258 6 -5 -3 -3 0 1 3 0
1532259570683270 1 5 -1 -2 -1 -2 1 4
1532259570892711 9 -6 -1 1 2 4 1 52
1532259570936594 0 13 -1 0 -3 -3 -1 -3
1532259571034332 -1 -8 -2 0 2 -1 -1 -12
1532259571119105 0 0 0 -2 0 -2 3 -3
1532259571161991 -2 3 0 0 0 0 -1 2
1532259571327548 -12 1 1 0 -2 0 1 2
1532259571401351 1 -3 -3 -2 1 0 -2 1
1532259571455210 3 5 0 -2 -2 -1 -4 -2
1532259571567906 1 -5 -4 -4 -4 -1 -1 -7
1532259571650684 10 -2 0 0 0 37 -5 27

1532259571748423 -5 -10 -26 -1 -4 -5 -4 17
1532259571778343 2 0 12 4 2 -1 0 25
1532259571830215 -12 3 -2 1 -1 0 -3 -10
1532259571906002 0 3 -3 -1 1 0 1 -9
1532259571926945 -1 -1 -2 1 1 0 -3 -1
1532259571979816 -1 1 3 1 0 -1 3 -7
1532259572071565 2 4 2 0 -1 0 3 1
1532259572107084 1 3 3 -1 -2 0 -2 0
1532259572130022 -2 1 -2 1 2 1 -1 -1
1532259572197841 9 21 1 -5 -1 -2 -1 1
1532259572205820 -2 -13 -18 -5 -2 -1 -1 1
1532259572249702 2 30 18 16 13 5 1 3
1532259572263665 -8 -77 -24 -16 -10 -2 -1 -2
1532259572295579 -2 -9 2 -5 6 -2 0 0
1532259572356976 -7 -3 -10 -16 0 1 -1 -2
1532259572383904 2 8 1 -3 -5 -4 -3 1
1532259572409835 -7 -23 -5 -12 -6 -3 -2 -5
1532259572429781 4 18 9 7 7 2 2 2
1532259572506593 -4 -2 2 0 1 3 -2 -3
1532259572527534 6 2 7 -2 -3 -1 2 1
1532259572542494 7 11 14 14 1 -1 -1 1
1532259572588371 14 28 22 -7 -1 2 -3 0
1532259572640233 -4 8 9 8 0 -2 -2 -2
1532259572695086 3 3 3 4 3 5 -2 -6
1532259572738968 3 -11 -15 -15 -5 -1 1 10
1532259572829728 35 27 21 18 4 4 5 4
1532259572871614 16 8 -1 -1 -1 -1 -3 -11
1532259572906520 -6 7 -9 -5 -5 -1 -2 -14
1532259572934445 -3 1 -13 -14 -2 3 8 32
1532259572978329 17 22 -8 2 6 2 -3 -6
1532259573029192 -13 -5 2 -5 -1 1 -3 -6
1532259573082051 -7 0 7 -8 -2 0 2 23
1532259573181784 -8 -2 0 3 1 0 1 10
1532259573255587 2 -3 3 -4 -6 -6 0 -7
1532259573329389 -2 3 -9 -8 -3 -1 -1 -7
1532259573480556 -7 28 25 -15 -10 -6 -1 -2
1532259573494518 0 27 -25 -1 -4 23 3 -1
1532259573555356 5 39 12 0 17 -1 3 1
1532259573608215 0 14 29 3 1 5 0 -2
1532259573669051 -14 20 -14 -13 -9 3 0 4
1532259573734876 3 12 -52 10 13 7 4 1
1532259573801705 -13 34 39 5 -1 1 -4 2
1532259573824643 6 -12 -5 -2 0 0 4 4
1532259573869522 -16 -52 -32 0 -2 -3 9 -3
1532259573886478 8 3 8 -3 -5 -4 -11 -46
1532259573915401 17 -10 -18 -4 -1 -3 -2 15
1532259574012142 -5 -10 6 -3 -4 -3 -5 1
1532259574035080 1 43 1 -4 -1 -10 -9 1
1532259574089933 -17 -25 -6 -2 -1 5 0 2
1532259574139800 -3 -6 -2 -4 -9 0 3 -3
1532259574253496 -7 2 1 -21 -1 0 -2 -2
1532259574418056 -1 32 -14 13 5 -1 -2 0
1532259574461939 0 5 0 -7 -24 -3 -1 1
1532259574516792 -48 14 22 1 9 6 1 -10
1532259574536738 -26 56 8 3 -5 3 5 -6
1532259574597580 10 -22 -9 1 0 1 0 3
1532259574829955 -7 -32 -23 -66 -78 -23 -7 -2
1532259574845912 -4 29 -7 0 -22 -17 -2 16
1532259574980552 -6 -48 20 19 21 5 1 0
1532259575048371 -6 -7 19 -4 5 0 -1 0
1532259575125165 -8 13 -5 0 -1 -7 -7 4
1532259575160071 7 17 14 -1 -3 1 6 -5
1532259575204952 13 -36 7 0 -1 -2 -4 30
1532259575294712 2 -9 0 -4 0 1 0 -2
1532259575317651 -11 10 6 -3 12 4 0 2
1532259575354583 -4 -10 8 13 23 5 1 -7
1532259575453318 2 -18 -14 -2 19 3 5 6
1532259575479258 1 -6 -25 17 -1 3 1 -1
1532259575579979 -9 -24 18 -8 0 -2 -4 -4
1532259575640816 -1 5 -2 -9 0 -11 -9 7
1532259575686694 -6 -16 4 1 0 -11 1 10
1532259575702651 -3 22 -1 -6 -7 0 -1 -4
1532259575739552 -10 -10 -9 1 -3 10 1 32
1532259575774459 6 -10 -7 -5 -3 0 1 -11
1532259575828331 2 12 14 -1 1 4 2 2
1532259575865539 12 4 -2 -18 -10 -10 -5 -4
1532259575890472 -12 -14 -10 -11 -6 -5 -4 2
1532259575964274 -3 13 -30 -7 -1 1 0 -2
1532259576090936 1 -27 -5 -1 5 3 2 0
1532259576165736 1 -21 5 7 5 3 0 1
1532259576369446 -7 4 13 5 0 2 -2 -3
1532259576385403 -10 10 13 1 -1 1 1 -2
1532259576512065 -4 -8 0 -2 -1 7 9 -4
1532259576585867 12 -10 0 -4 0 0 0 -6
1532259576615787 -18 4 -5 -2 -1 0 1 -5
1532259576930253 5 -14 -4 1 1 -2 1 1
1532259576997074 -11 5 5 0 1 -2 9 29
1532259577064893 -15 -20 7 2 -1 4 1 3
1532259577352124 2 -32 -7 -2 -2 -2 -2 10
1532259577427011 -4 -5 11 5 -5 -5 -3 -3
1532259577604743 0 -2 -8 -3 2 3 0 -11
1532259577642640 1 -7 -2 0 2 3 -4 -10
1532259577697494 -1 1 -4 -2 -3 -1 4 11
1532259577725433 -2 5 -1 -2 -4 -3 3 24
1532259577748357 -1 -8 0 1 -3 5 -2 -6
1532259577799240 4 -3 0 -6 -3 -1 -4 -6
1532259577823192 -10 26 2 4 1 -1 1 -9
1532259577853112 -15 -10 1 -2 1 2 0 -4
1532259577935891 -1 25 -7 6 0 1 1 0
1532259577957832 -14 -29 6 10 8 5 1 -1
1532259578002712 -20 -12 -5 -4 -3 15 4 21
1532259578055571 -16 -89 -21 -2 7 108 43 21
1532259578085491 19 40 49 11 7 -23 -2 -5
1532259578122391 -4 0 -36 -5 -7 -1 0 -11
1532259578145365 14 24 4 -3 -2 -11 -5 -15
1532259578175250 -17 59 24 -3 -2 -7 -6 -4
1532259578196194 5 -8 17 1 0 -9 -1 -9
1532259578251048 3 8 0 17 3 5 3 -2
1532259578287949 -8 -14 -1 2 2 -2 -3 -3
1532259578301912 -4 12 -4 -2 -1 -1 0 -18
1532259578317868 2 9 -2 0 0 -3 0 2
1532259578354783 -11 -24 -3 -1 -2 -1 1 5
1532259578370728 15 -2 -9 -4 -4 -2 -1 2
1532259578386693 -6 15 4 -1 -1 4 4 4
1532259578475448 8 -11 -1 -1 -2 -6 -1 -4
1532259578513346 -2 -2 -4 -1 2 -2 -3 -3
1532259578527309 -8 -1 -1 -1 -1 -4 2 1
1532259578587150 7 10 2 -2 -2 0 1 14
1532259578625047 1 -6 -5 -2 -4 1 1 7
1532259578654968 5 -6 1 2 3 4 0 1
1532259578729768 6 4 -12 0 3 3 0 -8
1532259578790621 2 25 3 1 1 2 1 3
1532259578835484 1 -10 1 -2 0 -2 -4 -4
1532259578910299 -6 -14 -14 -1 0 -3 -2 -2
1532259578961149 -4 -2 1 -1 -1 0 0 -7
1532259579083821 4 -15 -8 -2 -1 4 -1 -7
1532259579089805 -2 2 8 0 0 6 2 -1
1532259579157624 4 1 -5 -3 -1 -2 -1 -7
1532259579164604 -1 -38 -5 1 2 -12 -5 -4
1532259579210481 3 8 4 -1 0 -1 -1 0
1532259579278301 15 -12 -3 -3 -2 -3 2 -2
1532259579296253 -1 9 -3 0 -2 2 -1 -1
1532259579307239 -3 11 1 0 -2 -2 0 -3
1532259579347117 -10 3 3 0 -1 -3 1 1
1532259579360082 5 8 1 2 -1 -7 -2 1
1532259579428898 -4 -2 -6 -2 -1 0 -6 -9
1532259579487758 -1 11 4 -1 3 4 -5 -1
1532259579571528 -4 6 0 0 1 1 -1 -5
1532259579593462 1 -6 0 1 1 1 -2 0
1532259579667260 0 -43 -7 1 -1 0 0 -1
1532259579698177 -5 5 3 -1 -1 3 1 0
1532259579750039 -5 -6 -4 -1 -3 2 -3 -6
1532259579772978 0 19 14 2 -2 2 1 1
1532259579817858 1 -9 -7 -1 -1 3 -1 -5
1532259579900636 5 1 -2 -1 -4 -1 0 5
1532259579967458 1 -4 -6 0 0 -1 5 5
1532259580043255 -4 -3 1 -1 1 1 -1 0
1532259580118055 -1 3 -29 -2 -2 -3 -1 -1
1532259580206818 1 5 7 0 -1 -2 -1 -3
1532259580230754 -4 10 9 -1 -3 -1 -3 -2
1532259580251698 -1 1 1 -1 -1 0 3 5
1532259580314530 -2 3 8 0 -4 -4 -2 -1
1532259580336471 0 -15 -7 -2 -3 -2 -1 -1
1532259580394316 -5 -13 6 -1 0 0 0 -3
1532259580406285 1 -23 -18 -2 -2 1 -1 2
1532259580521976 -3 -8 -2 7 2 -1 -3 0
1532259580581815 -8 -3 4 0 -1 1 0 -4
1532259580649633 -4 -11 -3 -5 -5 0 0 -3
1532259580682546 1 7 5 3 5 0 -3 -1
1532259580687548 3 3 4 4 -4 -2 0 3
1532259580733410 2 11 7 1 -3 -1 -1 2
1532259580792252 -3 11 3 -5 -4 -1 -2 0
1532259580959815 -6 -9 -9 2 -2 -3 -24 -43
1532259581144311 43 27 34 77 19 -4 -93 25
1532259581162263 5 14 26 -15 -4 6 -52 8
1532259581355746 -4 10 7 3 -1 1 2 -21
1532259581489388 -4 2 5 2 -2 2 0 1
1532259581618044 -1 -28 6 2 1 1 2 0
1532259581693841 1 4 3 0 -4 2 -3 2
1532259581842444 0 -23 -2 -2 -2 2 1 0
1532259581964119 0 0 1 -5 -12 -4 -2 0
1532259582061857 -4 -6 15 -1 -2 -2 -2 -1
1532259582135659 -29 -6 -3 -1 2 -1 -8 -1
1532259582172561 6 -29 2 29 9 5 25 10
1532259582262321 14 1 -1 -1 1 2 0 2
1532259582347095 10 -9 0 -3 -9 5 7 4
1532259582413916 -9 5 -5 -20 -5 -4 2 -2
1532259582496694 2 -6 8 -9 -3 -1 6 0
1532259582541575 -4 -12 -14 -4 -4 12 7 0
1532259582562518 4 11 9 10 15 -4 -11 -1
1532259582600420 -2 -11 -1 -26 -2 1 10 -1
1532259582615377 -2 1 8 -8 -1 11 14 1
1532259582677212 -11 -35 14 -9 -20 -3 -1 -6
1532259582711121 -17 -15 -2 -5 -3 -2 -3 -2
1532259582750017 3 23 -6 4 2 0 -1 0
1532259582841771 4 -3 -3 -2 -3 0 0 3
1532259582848753 8 -2 -2 -2 -1 -1 -5 2
1532259582908594 9 5 -3 0 -1 -2 1 2
1532259582966438 1 14 0 -8 -6 2 -15 -2
1532259583083126 10 -15 -14 -14 -4 0 -7 2
1532259583171889 -6 -27 -11 -24 -24 -5 -2 -1
1532259583207793 18 -32 4 8 17 6 5 4
1532259583247686 8 19 -3 24 24 7 2 5
1532259583313509 2 41 0 2 -8 -2 -5 -7
1532259583396289 0 0 8 5 0 3 1 4
1532259583502006 -1 -6 3 -2 0 -1 -5 8
1532259583575808 21 0 -3 3 -17 -3 -4 2
1532259583712450 -1 -5 6 0 -7 -2 -1 0
1532259583726406 0 -6 30 -5 10 0 -3 -3
1532259583785248 -3 -26 -47 -9 -14 -2 -2 0
1532259583876006 4 49 12 -2 -5 -5 0 -5
1532259583919889 2 -2 -15 -8 -2 -3 -3 0
1532259584010650 2 -25 12 0 2 -4 19 22
1532259584027612 1 14 -4 1 2 -5 -3 -6
1532259584169235 0 6 -13 -5 -2 1 1 0
1532259584295883 -4 -9 5 6 3 1 1 -1
1532259584391627 5 2 -3 8 5 -1 -2 0
1532259584721745 -18 2 14 2 0 -1 0 -5
1532259585045878 2 20 -4 -3 -1 5 2 12
1532259585172538 15 -25 -5 7 4 3 -3 -1
1532259585224400 -9 -5 -14 -1 -2 -1 -1 -2
1532259585247338 -19 14 5 0 1 4 -1 1
1532259585317152 22 2 0 -4 -4 -4 0 3
1532259585435835 -6 -2 10 2 1 0 -3 4
1532259585502656 -1 9 4 0 1 0 3 6
1532259585669211 3 -26 -4 1 -3 0 -2 -5
1532259585802854 -3 13 -7 -5 -5 -2 -1 -13
1532259585907573 -11 -10 -5 -1 -6 -12 -9 -16
1532259585953460 5 -11 1 -12 -9 -4 0 -11
1532259586020272 -4 21 2 8 -1 -2 -3 -6
1532259586073131 16 -13 -4 -2 -6 18 0 32
1532259586147931 -3 21 -5 0 0 -5 -4 -13
1532259586170870 25 -4 -4 -5 0 18 0 8
1532259586207771 -4 -12 -1 -1 -2 -13 -7 2
1532259586275589 -1 15 3 2 3 -8 0 -6
1532259586304512 -9 32 3 1 3 -3 -1 0
1532259586350389 7 -14 -24 -3 -2 -1 -2 -23
1532259586364352 -17 -12 5 0 1 -3 1 67
1532259586425189 25 62 7 0 -6 28 9 -73
1532259586448128 -14 -39 4 0 -2 7 45 42
1532259586486026 14 -22 22 -13 -2 -2 -2 -8

1532259586552848 -1 -4 -1 -6 -3 -6 -7 2
1532259586604709 -4 -16 16 -6 -4 3 -2 12
1532259586627647 -1 -2 0 -1 1 -1 -6 -7
1532259586755313 -5 10 2 6 0 0 -2 2
1532259586807174 -4 -8 2 -1 0 -1 0 -10
1532259586830112 -7 -7 4 2 1 0 0 9
1532259586868011 9 -13 -6 0 -1 -1 -5 -10
1532259586905910 11 50 -9 -7 -3 68 8 -9
1532259586971734 -1 -3 44 5 2 -7 -10 0
1532259587054527 -4 -9 -43 -16 -7 -5 -5 -38
1532259587078449 1 -12 -12 -1 1 -1 -6 7
1532259587122331 4 4 2 17 5 1 2 3
1532259587175189 -2 -7 2 -17 -5 -3 -3 3
1532259587257968 -2 3 -7 -14 -7 -4 -1 -2
1532259587263955 0 2 -8 -13 -4 -1 0 1
1532259587377648 -1 3 14 12 10 3 1 2
1532259587408566 0 -3 5 -2 -1 0 0 -1
1532259587513285 -1 -8 0 -7 -4 -1 1 -2
1532259587550200 -5 -4 -5 -3 0 0 1 -1
1532259587596064 -17 -11 -11 -9 -6 -3 -2 -6
1532259587662886 5 -1 -4 0 3 2 0 4
1532259587706769 2 -2 -12 2 -3 -2 -1 2
1532259587761621 8 2 3 4 3 3 2 2
1532259587774587 -3 18 9 -3 -6 21 1 1
1532259587798523 -5 18 3 -3 2 -6 -3 -9
1532259587814493 4 7 5 -6 -5 -10 -7 -6
1532259587850384 -2 -6 -7 -2 3 4 6 -1
1532259587889280 -4 0 4 -1 -2 5 4 0
1532259587948123 36 -3 -5 2 -1 -3 -1 23
1532259587994998 -4 6 2 -3 -2 -2 -5 -3
1532259588022922 -22 -2 2 3 1 1 6 -6
1532259588052843 -8 4 1 4 -1 -1 2 36
1532259588090748 3 -2 0 4 2 5 -1 -15
1532259588142602 -18 -7 -2 -2 -1 -1 52 17
1532259588172523 -40 -6 -1 0 -7 -31 -38 -19
1532259588241339 -30 4 -15 -13 -4 1 0 -30
1532259588293200 51 -8 8 4 -5 14 23 70
1532259588374981 33 11 1 2 2 1 -6 -9
1532259588426843 -5 3 8 5 5 6 24 12
1532259588516615 14 -4 -10 -16 -7 -1 0 -19
1532259588527601 16 5 2 5 -2 -25 9 18
1532259588654261 11 -6 8 -2 1 -15 64 -7
1532259588696136 -2 -19 2 6 1 -2 3 -3
1532259588795868 -3 46 -17 -1 1 -2 -3 1
1532259588989351 11 -30 -7 3 0 1 1 4
1532259589051186 2 7 6 -7 -8 -2 -3 -5
1532259589275586 -9 -16 15 -1 -1 -1 0 1
1532259589344402 7 -6 15 -2 -3 0 0 0
1532259589427181 4 -5 -6 -1 -2 3 7 8
1532259589485026 6 18 6 -3 0 -2 -4 10
1532259589516941 10 25 13 -3 -2 -1 0 4
1532259589536891 -4 -4 -18 -1 0 -3 -8 -4
1532259589651580 6 29 -3 4 6 -3 -3 0
1532259589704440 8 -1 14 -2 16 0 -3 1
1532259589764280 -7 -28 -20 -26 -35 -7 -5 -3
1532259589830111 10 -54 -9 17 9 -2 1 5
1532259589846067 19 -8 29 19 3 -1 3 16
1532259589957769 -11 -9 3 3 -9 -2 2 0
1532259589963753 -8 23 -3 -4 1 -3 -4 0
1532259590039550 20 25 -7 0 2 10 2 0
1532259590148260 -12 -26 -6 2 2 1 1 -7
1532259590192142 23 -10 -1 -2 -5 -4 -1 6
1532259590238020 15 -14 3 -6 1 1 0 4
1532259590445465 -5 -8 -6 0 -7 1 1 2
1532259590535225 -5 18 -1 -3 9 2 5 1
1532259590541209 -40 -21 -6 -2 -5 -5 -3 -5
1532259590571129 15 -13 -7 -5 -3 -3 0 -2
1532259590609032 -33 12 4 1 3 4 4 -7
1532259590724718 8 -4 -2 -2 1 1 1 3
1532259590789545 2 1 -1 -1 -2 -1 -3 -2
1532259590812483 8 43 -1 2 1 -1 0 -3
1532259590925182 3 -10 7 7 6 0 0 -4
1532259591099715 -1 -5 4 -6 -17 -4 -2 -1
1532259591145593 1 16 24 -3 0 -3 -5 -1
1532259591203438 8 40 -2 1 -3 8 -8 17
1532259591218398 9 94 51 2 -1 -3 -3 -7
1532259591248317 -8 8 0 0 0 2 1 -6
1532259591307161 -2 -49 -6 3 0 3 2 -3
1532259591355040 -4 -41 14 1 0 -2 -4 -1
1532259591367998 -3 -24 -14 0 -1 1 2 -2
1532259591409886 6 4 10 -7 -3 0 1 2
1532259591555497 -4 -24 -1 -10 -4 -3 0 2
1532259591601373 -5 -15 -5 -3 -1 -3 -1 1
1532259591645257 5 -6 -9 1 -1 -1 -1 1
1532259591683155 0 -3 -6 -11 -3 1 0 -1
1532259591788872 -7 17 -3 6 4 2 -2 -2
1532259591970387 -1 -12 -7 -1 -1 1 -2 1
1532259592259613 11 0 4 -6 -1 1 0 -3
1532259592485011 -6 2 -2 0 2 -3 0 1
1532259592642590 -15 -2 2 -1 0 -1 0 -2
1532259592756286 10 26 19 0 0 1 -2 13
1532259593017587 5 21 -2 0 0 -1 4 -1
1532259593309805 -7 -8 -2 14 -10 3 2 14
1532259593421507 3 15 3 -3 0 -2 -4 10
1532259593528221 -15 -20 -13 -3 -4 -3 -3 -40
1532259593573102 -3 21 5 0 0 -2 -2 -3
1532259593588062 3 22 9 0 0 1 1 -4
1532259593647902 -15 8 1 0 -1 1 0 13
1532259593707741 -1 -7 63 4 2 0 -1 3
1532259593745640 12 3 4 -1 -1 0 4 28
1532259593766584 -20 29 -16 2 6 7 -22 -64
1532259593828419 6 -1 -10 -6 1 -32 -12 -16
1532259593858338 3 3 -115 -24 -3 -9 -4 -17

1532259593895243 1 4 62 14 7 -4 3 -10
1532259593901224 13 17 27 12 4 -3 0 11
1532259593925160 -24 23 10 3 3 -3 -1 -6
1532259593984999 11 4 13 -3 -4 -3 -2 5
1532259594007939 1 12 5 4 0 0 3 0
1532259594052821 -6 -13 16 -1 -2 -1 -4 -1
1532259594104680 -1 -18 -1 2 2 -1 1 2
1532259594150557 -6 -1 -3 -1 1 -2 -2 -1
1532259594261261 2 7 1 -1 -1 2 0 -5
1532259594308141 -2 3 0 -1 -2 -2 -3 -76
1532259594352023 7 1 -3 -2 0 -1 -1 8
1532259594427821 5 -5 -1 0 -1 0 1 21
1532259594472701 -5 2 2 -1 0 0 1 -26
1532259594525587 -4 3 0 0 0 0 -4 -6
1532259594531595 3 1 -1 0 0 0 0 14
1532259594623355 -3 0 0 2 1 -1 0 4
1532259594645297 1 -3 -2 0 -1 -1 3 4
1532259594683195 -1 0 -1 -1 0 0 2 -6
1532259594750017 -5 -7 0 0 -2 1 6 -8
1532259594848521 -4 2 0 0 -1 -1 3 9
1532259594884425 3 5 1 -1 -2 1 0 -2
1532259594914345 -13 -15 -1 0 -1 0 -6 -49
1532259595035022 5 -1 -2 -1 -4 -1 2 -3
1532259595063945 -2 -4 -2 -1 0 0 -4 1
1532259595110820 -7 -1 -1 0 -1 -3 -2 -13
1532259595230500 -3 -3 -1 1 -1 1 6 -27
1532259595312281 -7 7 -1 -1 -2 1 -1 1
1532259595358159 -3 3 3 1 3 0 3 10
1532259595373118 10 -1 -3 0 -3 -1 -1 -19
1532259595432959 -1 1 -15 1 1 -1 -13 -12
1532259595464873 -5 2 10 3 3 2 3 5
1532259595501774 9 -17 0 -4 -1 2 -11 2
1532259595566601 2 16 105 6 2 -6 0 11
1532259595581561 -1 9 45 -7 -4 7 -3 2
1532259595635419 -2 4 -32 -7 -3 -2 -6 -33
1532259595735165 -4 2 0 1 0 0 -1 -14
1532259595770057 2 -3 -9 -1 -1 -2 -1 -3
1532259596272713 1 -3 6 -2 0 1 1 1
1532259596407353 2 2 -8 -1 2 3 2 2
1532259596430292 -11 4 -13 -8 1 -2 -2 -3
1532259596550969 3 1 -5 12 3 0 1 0
1532259596649705 -4 -2 0 -1 1 0 1 -2
1532259596714531 -2 16 1 -4 -4 -2 -1 -4
1532259596752430 -9 9 5 3 -3 0 -5 -3
1532259596896045 3 21 12 -2 0 -6 1 -10
1532259596955886 28 9 -4 -2 -2 12 8 9
1532259597255086 -24 -11 5 3 2 2 1 -3
1532259597360803 17 4 7 10 5 2 3 25
1532259597412665 -7 5 5 2 -1 -1 -3 5
1532259597436600 9 6 5 -7 -7 -3 2 -1
1532259597534339 6 1 -3 -7 -3 -2 -4 -6
1532259597711864 0 -69 -1 -1 -5 -5 -2 -2
1532259597855480 3 -13 58 9 10 16 8 0
1532259598102819 -13 -30 3 3 21 0 -2 2
1532259598171652 22 66 24 1 -14 4 5 6
1532259598224493 23 -32 0 2 -3 1 0 -1
1532259598238457 -2 10 -6 0 -4 -1 -1 -8
1532259598305278 0 -7 -20 0 2 -6 -7 3
1532259598374094 -4 3 -1 0 -1 -2 4 -18
1532259598418974 -15 -8 3 10 -4 -8 -3 5
1532259598484797 -13 -15 -9 -20 -23 -8 -6 -14
1532259598764051 -7 23 0 5 -17 -4 -2 -33
1532259598838861 -22 -5 4 6 -3 3 -8 -34
1532259599017373 -10 3 -4 -1 -1 0 -4 -4
1532259599182931 -3 -8 -1 4 -31 -5 0 -6
1532259599242770 2 7 8 -10 -8 0 -1 -2
1532259599303613 -4 -4 -11 -12 -17 -4 -4 -5
1532259599339512 2 20 -2 -14 3 0 -1 -1
1532259599385389 -1 -11 -3 -3 8 3 2 -4
1532259599423288 -13 11 0 0 -1 -2 -3 -34
1532259599437251 19 -7 -11 -2 3 1 0 16
1532259599492107 3 -11 -7 -3 -1 1 3 9
1532259599543972 -4 4 -3 -1 -4 -1 -3 -6
1532259599626744 1 -10 0 -2 0 -1 -1 -4
1532259599662648 -4 -2 -5 0 42 7 2 -3
1532259599722487 1 3 1 -4 -3 -3 -1 0
1532259599821234 1 25 -10 24 2 3 1 1
1532259599947885 -5 -48 -2 -3 -5 1 1 -2
1532259599992765 -2 -33 -9 -2 -15 -1 -1 0
1532259600030664 -3 -35 18 8 0 -2 -1 0
1532259600084520 -2 14 -7 7 5 0 14 -18
1532259600105463 1 3 -6 -1 -2 -4 -1 -17
1532259600134386 0 0 0 4 2 -7 -1 16
1532259600174280 2 2 2 -1 2 1 -5 -7
1532259600234120 2 10 9 1 -4 -5 -2 -1
1532259600299944 4 50 2 0 3 -2 2 1
1532259600384717 4 -2 -4 2 -3 -6 0 4
1532259600436578 0 -15 12 4 9 6 2 0
1532259600487450 -7 -7 19 -7 -2 -4 1 -4
1532259600504407 5 25 -16 -10 -7 -3 -2 0
1532259600578199 2 5 8 1 -1 11 2 -2
1532259600659981 -14 10 39 0 -2 -1 -1 -1
1532259600728797 -2 36 42 3 1 10 -1 -3
1532259600862439 -3 -25 -81 -7 2 -3 -2 -1
1532259600930258 -4 36 16 8 -2 -7 -2 -1
1532259600952199 -10 -4 45 2 2 9 3 0
1532259600983117 2 -5 -5 -4 -4 0 -3 2
1532259601071879 -27 13 24 2 4 0 -2 -6
1532259601156653 -31 5 14 -12 -3 -4 1 -6
1532259601217490 -15 5 22 -10 0 1 2 0
1532259601231453 12 -4 -3 3 1 0 -1 3
1532259601283314 15 -8 10 0 0 7 -1 -1
1532259601388034 -34 17 24 10 5 1 3 -8
1532259601424935 -11 1 3 -5 -2 -1 -1 -4
1532259601492754 -15 0 42 20 1 9 0 -6
1532259601507714 -5 -27 -52 -4 3 -2 -2 -3
1532259601567554 6 -19 -2 3 2 -1 -3 -1
1532259601605453 9 -3 -43 -9 -5 0 1 1
1532259601635372 -4 11 40 -4 -2 -11 -1 -2
1532259601641356 4 -6 35 0 0 5 -1 -3
1532259601688232 -4 -5 -12 3 0 0 -3 -5
1532259601748072 0 -18 -8 0 -1 -11 -4 1
1532259601762034 7 -14 -12 -2 -3 -3 -2 -2
1532259601823869 8 -11 -12 -4 -4 -5 0 7
1532259601897671 7 2 3 -2 -4 -1 3 0
1532259601911634 -19 -4 -5 -3 0 -2 0 -13
1532259601941554 -7 4 -5 0 -1 0 -4 -7
1532259602033308 -7 -11 1 1 0 -1 -2 0
1532259602072204 4 -18 -1 0 -2 -1 1 10
1532259602116087 8 -35 -3 0 -1 -1 -3 9
1532259602152988 -6 3 4 -4 -2 -4 -2 0
1532259602182909 -22 -46 -10 -2 -2 -2 1 1
1532259602212839 -11 -21 -6 -5 1 3 5 12
1532259602266685 8 6 -6 -1 1 -2 2 0
1532259602310567 7 -77 -7 -5 0 3 -7 -5
1532259602324530 -16 18 4 -3 -2 -1 -6 -8
1532259602430247 -4 4 0 4 2 0 -2 -25
1532259602522002 3 21 -6 0 2 -22 -9 17
1532259602563896 16 -20 -1 0 0 1 0 5
1532259602610764 25 -2 -1 3 3 11 1 14
1532259602647666 -5 -2 2 -1 -4 -12 -1 -10
1532259602693552 -5 -25 -4 -5 -3 -3 -2 -3
1532259602730444 3 -3 -2 -1 -5 -14 0 0
1532259602744407 14 34 0 -3 -2 -5 -1 -4
1532259602774327 -2 -33 1 1 0 0 0 -3
1532259602792279 -10 4 27 4 1 1 1 -5
1532259602827186 4 18 -7 -6 -2 -2 0 8
1532259602880044 2 -17 -7 2 2 6 2 24
1532259602910962 10 34 0 -2 -2 2 7 7
1532259602933900 -6 21 -29 -11 -3 4 -3 2
1532259602946866 9 -1 -63 -26 -11 -25 2 4
1532259602969804 0 33 -84 10 0 -8 -3 0
1532259602992743 -13 18 60 10 2 0 -4 -14
1532259603014688 -12 -11 31 -4 -1 3 4 2

1532259603066545 -12 -13 12 4 2 -3 -2 57
1532259603083500 2 9 -11 -6 0 -9 2 -6
1532259603135362 2 -2 -4 0 0 -6 0 15
1532259603158300 -18 7 8 7 1 2 1 -2
1532259603173260 -1 19 9 -2 0 -1 4 -24
1532259603225121 0 -4 -4 -4 -3 -3 -3 -3
1532259603306903 2 -11 -1 1 0 0 -2 2
1532259603331836 -4 12 1 1 -1 -2 6 6
1532259603351782 5 1 6 -2 1 1 -6 -7
1532259603373724 -11 -8 20 2 -1 -4 -7 -47
1532259603436556 0 -11 -4 1 3 -23 -1 -27
1532259603480433 19 26 14 -4 2 -1 6 39
1532259603509355 -11 -22 -57 0 0 6 -12 10
1532259603632027 3 -21 -9 1 1 1 -1 18
1532259603691867 -4 -11 -10 -7 4 2 0 -2
1532259603726774 -1 -22 -17 -10 -2 -1 0 -1
1532259603788609 -3 92 -2 -3 0 4 2 3
1532259603832491 -5 -32 -7 -3 -2 -3 -4 -1
1532259603917264 -1 0 -3 -3 0 -2 -3 0
1532259603931243 1 -34 -19 3 6 4 1 -2
1532259603982098 3 6 25 0 4 0 2 1
1532259604013015 -3 1 4 -5 2 -2 -1 -1
1532259604058892 3 8 6 -1 0 -1 -1 0
1532259604080834 2 2 -7 -10 -18 -2 -1 -2
1532259604117735 -1 -9 18 0 -4 -2 -1 -2
1532259604184557 -4 -4 4 -4 3 -1 -1 1
1532259604239410 6 5 16 6 2 3 2 1
1532259604261351 -1 -12 -15 -8 -13 -1 -2 -2
1532259604338145 6 13 17 3 4 -13 3 3
1532259604408956 -8 1 -2 -8 -12 -8 -4 -4
1532259604463811 1 -16 -22 -1 0 -2 -1 -3
1532259604665284 9 -14 -11 -3 -5 -17 -5 -2
1532259604792942 32 -6 8 3 1 6 16 39
1532259604957502 11 7 6 5 3 8 18 -1
1532259605026318 24 2 0 5 -4 -3 -5 50
1532259605220815 30 7 0 6 9 7 10 29
1532259605507033 -1 5 -9 -6 -9 -4 0 -4
1532259605520996 3 36 -4 8 -19 -4 -8 -3
1532259605624718 -5 7 16 10 25 6 5 -1
1532259605790275 -15 -1 -1 1 1 1 2 -5
1532259605955833 2 18 5 -2 -1 0 17 6
1532259606000713 9 4 15 -2 23 5 6 -5
1532259606187229 7 41 7 -16 -8 -5 -5 -1
1532259606352772 -2 7 15 6 2 3 5 13
1532259606404633 -8 8 9 0 -2 -2 3 -8
1532259606435550 6 10 -4 2 -1 -2 -2 -1
1532259606504383 2 -2 -5 3 -6 2 0 7
1532259606632025 8 3 22 32 12 3 3 -2
1532259606811544 2 -13 -2 0 9 6 2 -2
1532259606892329 -2 14 5 0 -5 1 3 1
1532259606911278 -8 -41 -16 5 3 1 1 8
1532259606960147 -12 11 -5 3 2 -3 -8 0
1532259606984082 -2 41 5 2 -2 0 -1 -3
1532259607038937 3 2 -1 6 4 -1 1 5
1532259607095784 2 4 -1 -4 0 -1 4 -13
1532259607170584 2 -1 8 12 3 1 2 0
1532259607296248 1 -36 7 19 -5 1 1 2
1532259607508680 -1 -22 -11 2 -2 -1 2 7
1532259607619384 0 -5 44 4 -1 0 -2 -4
1532259607642323 1 -9 -9 -2 2 3 9 19
1532259607667256 4 11 6 0 2 8 10 -18
1532259607717123 -1 -13 -24 -1 -3 0 -2 -1
1532259607777960 -8 -31 0 -3 -4 -3 0 -3
1532259607852760 1 25 17 44 15 6 2 0
1532259607888663 2 -2 -2 -7 -4 1 1 -1
1532259607952493 3 5 13 32 8 7 3 0
1532259608078156 -3 14 -8 -6 -2 2 -1 0
1532259608349432 1 -1 -8 4 2 1 2 1
1532259608507010 2 5 8 -4 -4 -1 0 -1
1532259608578818 -5 -7 -10 0 -1 -2 0 3
1532259608650635 -15 23 6 0 0 -1 1 1
1532259608700492 -3 -4 1 4 0 -3 0 2
1532259608752355 -14 -9 -11 1 2 -5 -3 1
1532259608813192 -6 16 11 -6 -1 -1 -6 5
1532259608887992 6 12 9 -1 0 -2 -1 -3
1532259609016648 -3 -24 -18 -5 -4 -1 -2 -2
1532259609128363 10 -26 -22 -3 -2 1 -1 1
1532259609204159 19 -8 -8 -1 -2 -1 1 4
1532259609331805 -23 0 1 3 0 1 -4 -37
1532259609414584 19 11 4 -2 -1 -3 -5 1
1532259609542243 10 -19 -6 -2 -2 -2 -1 5
1532259609848424 4 30 -8 -9 1 1 -6 -3
1532259609930205 -13 12 5 -1 -2 -4 1 -4
1532259609944168 7 -12 -20 -8 -6 5 0 0
1532259610087783 13 35 19 4 0 -2 -3 -18
1532259610184524 1 -12 2 -1 4 -5 -3 6
1532259610207464 0 88 1 -4 -3 -5 -3 -43
1532259610238381 0 -23 -3 3 1 1 -1 15
1532259610291239 -2 -10 -2 0 3 2 2 19
1532259610306199 -1 13 1 4 3 3 -2 8
1532259610351079 3 0 1 1 1 -1 0 11
1532259610425879 8 7 -3 -2 -2 -4 0 49
1532259610440840 0 15 5 0 -1 0 5 11
1532259610483724 2 28 84 9 0 3 -1 -2
1532259610513645 4 -16 -10 1 0 1 -18 -57
1532259610567501 9 -33 -15 -6 -6 11 66 59
1532259610620359 -9 4 11 11 0 12 -11 -5
1532259610626343 -8 -13 124 15 3 25 3 27

1532259610680199 -11 29 -43 1 2 -1 -1 6
1532259610701143 8 10 -35 -10 -6 -4 -5 23
1532259610733058 -12 -23 14 4 1 5 -8 31
1532259610770966 4 -19 -21 -5 -2 0 -4 19
1532259610852980 -6 -13 -4 1 -2 8 -2 -26
1532259610920798 8 15 2 2 1 -1 0 9
1532259610980638 4 -1 -2 -3 1 0 1 39
1532259611032499 6 -3 -3 -1 -2 -2 1 -9
1532259611106301 4 -2 0 1 0 -1 -4 2
1532259611131235 -8 -1 -2 0 0 -1 2 -32
1532259611166142 4 -7 5 -1 2 2 2 3
1532259611258894 -1 -8 -13 0 -1 -5 -3 3
1532259611310755 0 3 0 -1 -1 -2 -1 2
1532259611376579 -4 -8 -13 -1 0 3 -3 -15
1532259611453374 7 14 -8 -8 -6 52 -7 113
1532259611475315 -19 -10 -1 2 6 8 -17 -74
1532259611535155 -1 -9 -34 6 -1 4 5 9
1532259611609955 -4 -8 1 -1 -1 -1 3 -1
1532259611654835 0 -29 -33 -4 0 1 0 3
1532259611661816 2 2 5 -1 -1 0 4 3
1532259611686749 -2 -17 -3 1 1 -2 -2 1
1532259611753571 1 40 4 -6 -5 -3 -3 2
1532259611812414 -8 13 42 9 2 0 -1 -5
1532259611881234 0 -13 -7 0 2 0 0 1
1532259611912147 5 1 -11 -5 -3 0 0 -1
1532259612036821 2 10 4 11 5 4 2 0
1532259612114606 9 -1 -19 0 10 2 0 2
1532259612189406 -8 -12 -4 3 7 3 0 -5
1532259612309086 6 -7 0 4 3 -4 -6 -9
1532259612360957 33 15 8 -10 -4 -2 3 17
1532259612459683 20 7 0 2 4 2 1 10
1532259612541464 -87 -29 -13 -9 -1 24 18 -22
1532259612563406 1 3 1 1 0 23 20 5
1532259612736941 24 -4 -6 -2 -4 -12 17 -12
1532259612839666 6 6 -2 -7 -9 7 -7 -11
1532259612869587 -8 -2 2 -2 0 0 -15 -24
1532259612974307 -2 -2 -11 -3 -3 2 -25 0
1532259613080024 -10 -23 -1 5 -2 0 -2 -6
1532259613147843 6 53 9 -1 0 2 -2 1
1532259613380221 4 -4 10 3 4 6 0 2
1532259613403159 7 18 12 12 0 5 4 3
1532259613477960 3 -8 -10 -16 0 -1 -2 -3
1532259613552760 -1 -7 -6 25 56 8 1 -1
1532259613620595 3 11 18 3 -11 -7 -7 -8
1532259613695379 -23 8 9 0 -1 1 -2 -5
1532259613779154 2 8 -4 -3 -7 -4 -5 -9
1532259613801096 15 -2 0 1 2 -3 -7 4
1532259613906812 7 5 0 -1 -5 -9 -8 -2
1532259613950696 -1 2 -15 -4 7 17 8 5
1532259614100296 -10 -3 4 21 23 5 -1 5
1532259614204030 2 -12 -11 -4 28 0 0 2
1532259614242914 3 23 5 3 -15 0 0 0
1532259614256877 6 30 7 -5 -2 1 0 0
1532259614302754 1 3 -5 2 1 -2 -1 -10
1532259614317714 -1 -6 1 -1 -1 -1 -6 -11
1532259614379549 0 -4 0 -1 0 2 5 6
1532259614429416 6 -6 1 0 0 -1 4 6
1532259614528152 -1 -3 -1 3 2 5 -8 5
1532259614559069 1 -19 -7 -5 0 -1 0 1
1532259614604946 -2 -3 -2 -2 4 2 -1 -1
1532259614722664 2 0 -16 -6 8 0 0 0
1532259614856307 3 -3 7 20 17 3 -1 -1
1532259614880242 -2 2 -4 -21 -7 -2 -1 1
1532259614910163 -5 12 3 -10 0 1 5 17
1532259614916147 2 2 7 -2 -3 -2 -6 -9
1532259614943075 -10 -3 -2 0 4 3 -7 -11
1532259615007902 -17 -31 13 -1 2 0 1 -5
1532259615084696 -6 -2 -2 -36 26 14 -1 0
1532259615135560 -4 -14 -3 -8 -4 0 2 6
1532259615262222 1 -2 -12 4 9 2 0 1
1532259615285160 0 19 -9 -9 8 -1 0 1
1532259615437769 -1 12 -24 0 -8 -1 -2 5
1532259615526515 0 3 17 -3 -1 0 1 -1
1532259615599320 1 -10 20 6 -2 -6 0 3
1532259615649187 1 1 21 -7 3 -7 1 2
1532259615705037 -9 -4 -10 -4 7 -1 1 0
1532259615742935 2 26 19 -6 0 0 -3 1
1532259616050115 1 -1 -6 2 0 -2 -1 3
1532259616116936 -4 -7 3 -6 -1 -1 -2 -2
1532259616209688 2 -1 19 17 4 1 2 3
1532259616291469 5 -6 25 -7 -2 1 -10 -1
1532259616344340 2 3 31 -1 -1 -2 3 0
1532259616419128 -20 0 -16 -1 1 2 1 -2
1532259616493929 3 -10 10 8 -1 0 -4 -1
1532259616554766 1 -7 13 0 0 -1 0 0
1532259616581693 2 -14 -38 -4 -1 0 -2 1
1532259616808088 -10 1 3 12 2 5 3 0
1532259616881890 5 -8 9 -1 1 2 2 0
1532259616950706 0 1 20 1 2 4 5 20
1532259617010546 4 8 3 -1 0 -3 1 5
1532259617084349 -2 10 16 1 0 2 8 7
1532259617319720 0 -8 -1 -3 -2 0 -5 -10
1532259617326712 -2 1 0 -2 -2 0 0 -6
1532259617438402 -4 -18 -4 -3 -5 1 -1 4
1532259617474306 -16 -82 -26 -7 -1 -1 -4 -1
1532259617558082 0 -13 11 8 14 3 -1 -4
1532259617683746 -4 0 2 1 3 2 -4 -3
1532259617708680 0 33 12 0 -2 -2 -1 8
1532259617730621 13 8 -5 -4 -6 -4 2 8
1532259617850300 -1 1 2 0 4 -1 -3 1
1532259617970978 3 -11 -2 -1 0 2 1 2
1532259618030818 0 7 -2 -2 3 -2 -4 21
1532259618051762 3 -2 -4 0 -1 2 -3 6
1532259618112599 -8 -6 -3 -1 0 0 0 4
1532259618158485 12 -22 8 -7 -4 -2 2 -9
1532259618179421 8 7 -14 0 -3 -2 6 37
1532259618246243 -21 -2 -4 3 5 -31 -2 25
1532259618339991 3 18 52 9 5 4 2 12

1532259618368914 2 -10 9 12 2 9 -2 -23
1532259618411799 2 -1 -9 1 -1 -4 -7 -13
1532259618472637 -2 7 8 3 -1 -2 -1 -12
1532259618540455 0 -1 -5 -4 -2 -1 4 11
1532259618562397 1 -2 -2 -2 -1 -1 -3 -5
1532259618615255 -4 -7 -9 4 0 -1 -1 -3
1532259618698034 11 3 5 1 -1 0 -3 22
1532259618749895 -3 2 -1 -4 -1 -2 -1 -5
1532259618771837 0 -3 -4 -3 -3 -2 -1 12
1532259618817714 -1 -3 -3 -1 1 -1 -1 -4
1532259618923431 -9 3 1 0 -1 1 3 -34
1532259618970309 4 -1 1 -1 0 1 0 30
1532259619012194 5 3 0 -1 0 0 -2 9
1532259619072034 -1 -1 1 1 1 1 5 -3
1532259619094979 -1 -2 1 -2 -4 -1 -2 -2
1532259619162791 2 -4 -2 -1 0 0 0 -7
1532259619169772 0 -1 -2 1 1 -3 -2 8
1532259619252551 -2 1 -1 -2 -2 -1 0 -5
1532259619305512 -4 -1 0 1 -2 -1 -1 2
1532259619357372 -2 0 0 -2 -3 0 -4 -10
1532259619859565 -1 -2 -2 -2 0 0 -4 -7
1532259620077981 5 -4 -1 -1 -1 -1 5 23
1532259620137821 1 -4 -3 -3 2 -3 3 11
1532259620205640 4 1 -1 0 -1 -2 -6 2
1532259620227581 -2 1 0 1 -1 0 -3 21
1532259620333299 29 25 5 2 -1 -3 8 26
1532259620481901 0 1 -43 -6 -2 -7 -4 -4
1532259620514812 0 3 1 3 0 -4 0 27
1532259620571660 -1 -2 7 1 0 -2 1 2
1532259620609559 0 7 -3 0 -2 1 -6 25
1532259620631501 5 0 2 -1 -1 -3 0 21
1532259620686354 -5 -7 1 0 0 0 -4 -2
1532259620707298 3 -8 -3 0 -1 0 2 14
1532259620777112 5 10 4 4 3 -1 1 7
1532259620790076 -9 -10 0 2 -1 0 0 -27
1532259620842936 6 0 0 -1 0 1 2 30
1532259620857895 0 66 2 3 -1 0 -2 22
1532259620895794 7 5 -1 -1 -2 1 6 49
1532259621000514 -3 11 -1 0 -1 2 1 -2
1532259621030434 0 -3 1 0 -1 -2 2 5
1532259621038412 2 -13 1 -2 -1 -1 0 2
1532259621083292 3 37 2 0 -2 0 0 -2
1532259621128177 -1 1 0 4 7 6 0 2
1532259621165074 1 4 1 2 7 1 -1 1
1532259621180034 -6 -14 -4 -9 -5 -2 0 -1
1532259621217933 0 -3 6 -2 2 -1 0 1
1532259621255831 3 28 6 8 -2 0 -1 -1
1532259621291735 -3 -13 12 21 4 -1 0 -1
1532259621368530 4 7 10 21 11 7 2 2
1532259621398450 -5 -1 17 0 -2 0 -1 -2
1532259621443329 -1 -3 -11 -9 -4 0 -1 0
1532259621465271 0 -12 -17 -3 3 1 -1 -2
1532259621525125 -5 -10 -8 -3 0 1 0 0
1532259621584963 -4 -5 -11 -9 -2 10 -2 -3
1532259621623847 7 12 10 -2 1 3 2 1
1532259621720597 -15 -7 -5 0 0 -5 -5 -36
1532259621773450 2 6 0 -1 0 -2 5 17
1532259621826305 -8 1 24 11 0 7 -8 -19
1532259621854231 -1 6 5 5 4 3 4 3
1532259621922050 31 0 2 -3 -14 -80 -17 47
1532259621952980 -2 20 17 10 7 28 5 -30
1532259621996850 -84 -1 5 4 2 24 5 -16
1532259622020802 -60 -22 -17 -16 -12 13 4 4
1532259622071650 31 3 11 7 4 3 11 19
1532259622102567 -25 -6 -8 -10 -10 -5 -7 -61
1532259622125506 16 -6 -7 2 5 6 0 -32
1532259622155426 -7 -13 9 10 3 1 2 49
1532259622170416 5 -19 9 -1 0 -2 0 0
1532259622223244 -1 1 0 4 2 0 -2 -11
1532259622236210 3 7 0 -3 2 -1 -6 -17
1532259622319986 1 -10 -1 -6 -3 -2 -2 -1
1532259622382818 3 -17 -2 3 1 16 3 2
1532259622424706 2 -44 -13 2 8 32 -1 0
1532259622596247 16 24 6 -6 1 3 -1 3
1532259622628162 -3 -7 20 28 21 2 3 0
1532259622651100 5 -26 58 10 -15 0 3 1
1532259622725899 -3 -47 -15 -11 0 2 0 -7
1532259622785740 -3 21 -14 3 6 2 -1 -4
1532259622854556 -9 -18 5 10 12 -4 -7 -3
1532259622905420 -12 -9 -1 12 9 4 1 -1
1532259622935340 6 6 -1 -21 -21 -8 -4 2
1532259622979223 -11 -10 -2 4 -5 2 5 -1
1532259623003158 -4 13 -5 -4 -7 3 2 1
1532259623063996 0 -2 -11 3 6 -2 3 -1
1532259623098903 -1 6 8 8 7 3 0 4
1532259623205617 -11 -35 -9 -1 -3 -3 -3 1
1532259623259474 13 -13 -12 3 24 0 -1 1
1532259623410070 3 -13 8 14 -15 1 -3 -1
1532259623458940 32 6 -2 -1 -2 -2 1 6
1532259623467934 -12 -2 0 9 1 4 8 7
1532259623505828 9 15 3 2 0 -6 -7 -2
1532259623518779 -28 -18 -2 3 1 1 -2 -9
1532259623588593 4 3 1 1 1 6 3 -4
1532259623609537 -9 9 -4 -1 1 -1 -1 -6
1532259623669377 -5 18 -16 -7 -9 -4 -5 -2
1532259623722236 -1 8 19 4 17 -3 -3 -1
1532259623797036 7 6 -16 3 4 -1 -1 3
1532259623827953 2 5 -17 2 2 -4 0 3
1532259623865852 -1 20 14 -1 12 0 3 0
1532259623925692 1 4 10 1 -20 -11 -3 0
1532259623947633 -3 -36 -2 4 -3 -7 -7 -2
1532259623978551 -1 6 5 1 -3 -4 -5 6
1532259624015452 17 -57 -10 -1 -1 1 8 10
1532259624068310 26 -4 -4 -4 -5 -4 -7 0
1532259624089254 -6 21 6 -5 -3 0 -1 -10
1532259624107223 -14 -13 -4 0 -3 -1 -1 -11
1532259624183003 -3 -2 -3 0 -1 -1 -2 2
1532259624225889 3 4 1 1 2 3 1 2
1532259624247830 3 -8 -3 -3 -5 -1 -3 -4
1532259624391446 3 32 -9 -9 -1 -4 -4 0
1532259624430342 -4 4 4 14 -15 -6 -2 -2
1532259624502150 0 12 -20 11 -2 3 0 -2
1532259624518107 6 23 2 -7 23 1 -1 0
1532259624556006 3 1 -33 -14 8 0 1 0
1532259624601884 1 19 -6 -4 -2 1 -2 -1
1532259624609865 -3 5 12 -5 -5 -2 -1 -1
1532259624630806 2 1 14 -7 -7 -3 -4 -1
1532259624652747 -3 13 0 3 0 -1 -2 -2
1532259624667707 1 18 12 1 -3 -1 2 5
1532259624706604 -2 -2 -7 -1 1 0 -3 -1
1532259624743505 6 29 1 8 1 1 0 -3
1532259624803345 -2 -8 -1 4 0 0 0 2
1532259624847227 0 50 9 7 1 -8 -5 -1
1532259624893104 -5 -15 5 0 0 3 1 -1
1532259625003808 1 -11 3 2 -2 -3 -1 -1
1532259625080604 -1 -2 6 8 3 2 2 -2
1532259625132465 1 -5 -4 5 5 3 2 1
1532259625169366 2 9 -3 -10 -4 0 0 0
1532259625357879 2 5 17 -5 -2 1 0 2
1532259625401745 0 -19 -5 -13 -4 -2 0 0
1532259625628139 1 -49 -16 -5 -3 -1 -4 -2
1532259625712913 9 15 11 2 0 -1 1 0
1532259625840571 29 11 3 -3 -2 -1 -4 7
1532259625889441 9 -21 -9 2 -1 -1 -3 7
1532259625912379 -2 -8 -5 -2 -2 -1 3 5
1532259625987191 -22 20 -1 -1 2 8 8 1
1532259626093894 21 15 -8 0 -2 1 0 2
1532259626212577 1 2 -2 0 -4 -1 -1 2
1532259626334250 4 6 -1 -3 -2 -2 -1 -3
1532259626371153 -36 15 7 -1 -1 -1 -3 -19
1532259626544689 7 19 1 -3 -1 -2 4 9
1532259626669355 -22 13 3 2 -1 1 1 12
1532259626797030 8 18 5 0 0 -1 0 20
1532259626815977 8 43 14 3 7 -1 -2 4
1532259626933648 -1 -26 5 0 -2 0 -1 -4
1532259627014433 -1 -24 -23 -4 5 2 9 -1
1532259627098208 -6 -28 10 -6 -3 -3 1 -1
1532259627218885 -2 -3 -1 7 3 -2 1 1
1532259627420347 -6 18 69 5 -1 -2 -2 -30
1532259627449270 -1 -3 -16 -1 -2 0 -2 5
1532259627555984 3 -1 11 2 -8 -1 1 11
1532259627591888 13 16 -13 -3 -1 -5 -3 54
