1532260874097643 -1 1 2 4 -1 -1 0 0
1532260874191397 -1 0 -3 -4 0 -1 -2 0
1532260874246245 -1 0 0 -2 1 0 -1 -1
1532260874261206 0 -1 -2 -3 -3 0 0 0
1532260874269184 0 -2 -1 -2 4 -3 -3 0
1532260874311073 0 1 -2 5 4 -1 -1 -1
1532260874330021 -1 -1 -2 -1 -3 -4 -1 -1
1532260874354955 1 0 0 -3 -4 -4 -1 1
1532260874430753 -2 -3 -3 -4 6 -4 -2 -1
1532260874508544 -3 -2 -5 -3 11 3 -1 -2
1532260874523504 3 -1 -5 -4 5 2 2 0
1532260874552427 -1 -1 -2 -3 -1 -2 0 1
1532260874575366 0 16 1 9 -4 2 15 -4
1532260874606283 -2 -6 -3 -4 -3 1 18 5
1532260874618251 -1 -5 -3 -1 -2 -1 7 4
1532260874642187 0 -7 -6 0 -4 -1 -15 -3
1532260874694048 -2 6 -1 0 -1 -4 -6 -9
1532260874801777 1 -7 -1 0 -6 -2 -2 2
1532260874830682 0 5 1 0 4 2 1 -9
1532260874845643 -2 -2 -4 -5 2 -2 3 -3
1532260874857610 -1 1 -3 -4 11 -11 -5 17
1532260874973314 -3 -4 -1 2 15 34 4 11
1532260874987277 -11 -5 -5 -3 37 -14 -21 2
1532260875017184 0 -5 -1 -3 -29 36 16 15
1532260875084005 0 8 4 1 4 -6 -19 0
1532260875206677 23 -4 -6 -13 0 1 7 64
1532260875226624 -3 8 -7 -12 -15 -20 21 2
1532260875294443 -5 5 2 1 32 45 -16 -3
1532260875339329 14 18 7 18 8 18 -64 -20
1532260875362269 -4 8 2 -7 -6 1 34 40
1532260875383205 17 30 8 4 9 15 36 -7
1532260875407141 -25 -18 -5 2 14 7 -34 18
1532260875452023 8 -15 -5 0 8 -26 2 47
1532260875502890 9 -17 -2 8 -7 -2 11 26
1532260875562725 -6 31 9 -6 4 1 -37 -86
1532260875633536 -16 -17 -3 3 -3 -5 4 -8
1532260875646501 4 -14 -1 -5 16 -30 -17 24
1532260875660464 -7 20 -25 0 -22 -4 -12 -54
1532260875713336 24 -18 -2 -14 -20 -2 -8 1
1532260875759200 6 49 10 -23 16 -14 25 -7
1532260875780144 -49 57 -22 5 28 30 -44 -15
1532260875804080 -51 -66 -20 -22 -22 -43 -21 4
1532260875887855 14 55 -2 12 14 -3 10 9
1532260875900837 22 46 6 6 43 13 -8 12
1532260875945717 -3 -59 -7 0 -8 8 -9 -15
1532260876014533 1 6 4 -3 -5 -12 0 -3
1532260876059432 0 3 0 0 -4 6 -3 -4
1532260876104313 0 2 1 1 -1 -3 0 1
1532260876128250 1 2 0 0 0 4 -1 0
1532260876151187 1 0 -2 -2 -3 0 1 -3
1532260876187091 -1 -1 -2 0 0 5 -4 -2
1532260876219006 1 0 1 -6 12 -12 0 -1
1532260876299790 -2 -1 0 0 -10 -4 -1 -2
1532260876336691 -3 -3 -3 -3 -2 -3 0 -1
1532260876448393 -2 -1 -4 -6 -8 -5 -1 0
1532260876486291 -3 -5 -3 -7 -6 -2 -2 -2
1532260876549123 0 -1 -2 -5 -7 5 0 -1
1532260876593006 0 -2 -1 -1 -12 -2 -2 -1
1532260876637886 -1 -2 -3 -15 -4 1 0 -2
1532260876660825 0 -1 -1 0 0 -3 -1 -1
1532260876688750 0 -2 -3 -5 -4 1 0 1
1532260876705715 1 0 3 9 5 2 -1 0
1532260876741609 -3 -4 3 3 -3 -3 -1 0
1532260876795465 0 -2 -2 -5 -2 -3 0 2
1532260876832366 -2 0 1 7 -3 1 1 -1
1532260876870265 -3 -2 -1 -3 -3 -5 -2 -1
1532260876961021 -1 1 -3 -6 -5 -6 0 0
1532260876982963 0 -1 -1 -2 -1 -1 -1 -1
1532260877005915 0 0 -2 2 2 -2 1 3
1532260877034824 1 1 -3 1 0 -3 1 -2
1532260877056765 -1 0 5 20 2 -3 -4 0
1532260877101646 -3 -3 -3 -17 -7 -1 4 -5
1532260877130569 -1 -2 -4 -10 -4 -2 -2 1
1532260877260222 -2 -1 -4 -6 -5 -3 -3 -1
1532260877296125 -1 -3 0 1 1 -1 1 -1
1532260877321062 -1 0 -1 -1 0 -3 1 1
1532260877380899 1 8 -1 1 -5 -2 0 -2
1532260877514542 0 -32 -13 -11 -36 -10 -4 -4
1532260877619261 -3 18 0 -2 -22 -8 0 0
1532260877671122 0 -3 -2 -5 8 2 2 2
1532260877813742 1 29 2 0 38 -3 -6 0
1532260877838687 -1 -12 7 19 -15 11 3 -1
1532260877898515 -4 10 -6 -10 -59 -34 -8 -5
1532260877911480 -2 -34 -2 -6 -18 4 0 0
1532260877934418 -3 9 0 -5 1 25 -9 -3
1532260877965336 0 -3 1 -3 -27 -28 6 1
1532260878026173 -3 -59 -19 0 18 2 9 -2
1532260878046120 4 -13 8 1 8 5 7 3
1532260878091001 1 6 6 2 25 -16 -1 -1
1532260878113939 -6 -17 -23 -10 -23 13 20 1
1532260878204696 -2 7 6 -5 0 -15 -12 -3
1532260878278499 5 11 9 -3 3 9 -8 -3
1532260878362275 -10 26 -12 -3 -37 47 -6 -3
1532260878459016 6 -14 17 -1 10 9 -2 0
1532260878473976 2 -19 -20 -1 16 7 8 2
1532260878503896 1 17 9 7 -2 19 3 -1
1532260878547779 9 24 9 2 -4 -33 -3 -1
1532260878570717 -12 -41 -9 9 4 40 0 -3
1532260878624581 3 -25 10 -9 -5 -12 2 1
1532260878639542 -18 60 -54 -12 -2 24 3 -2
1532260878667467 -22 -1 -10 -5 -2 9 -5 -1
1532260878683425 9 104 -21 -6 -9 -17 -2 -4
1532260878715339 -4 2 7 9 1 11 -1 -6
1532260878759221 -10 -10 8 17 -4 -7 0 -6
1532260878804102 -9 33 3 34 3 15 -5 -5
1532260878878901 -3 -17 -7 9 9 4 -3 -3
1532260878918795 2 -14 5 -15 -7 3 4 0
1532260878924779 -8 -59 -6 -4 -21 -44 -9 -3
1532260878984619 1 2 3 -7 4 19 3 2
1532260879012544 2 5 8 1 0 -22 1 2
1532260879095363 -3 -12 -8 -3 9 -8 0 2
1532260879170163 1 23 -3 -10 -3 5 1 0
1532260879193102 -3 -31 -4 -21 -2 -7 -2 -3
1532260879238990 91 108 -4 -3 2 -1 -6 -41
1532260879261917 -29 -14 1 -4 0 -10 -18 2
1532260879312782 -63 -19 -8 -3 1 -1 -1 0
1532260879480334 7 -31 -8 3 -8 -2 -3 -3
1532260879576078 2 -3 4 0 -9 -12 1 -2
1532260879612983 2 74 6 -6 18 2 -1 -1
1532260879624948 0 -32 4 -3 3 -14 -2 1
1532260879712712 -2 -28 1 -3 -5 0 7 1
1532260879758589 -5 -25 -2 -5 -1 1 -1 0
1532260879780531 3 -1 -1 0 7 8 -2 -4
1532260879794494 -2 32 -9 -4 -4 -2 -10 -1
1532260879846355 1 1 -9 -2 7 4 1 0
1532260879922167 -1 -9 2 -6 -11 -2 0 -2
1532260879967032 -2 31 -2 -1 -9 -6 -1 0
1532260880011912 0 -12 -3 2 -7 -22 -2 2
1532260880017896 1 -3 1 1 3 14 5 3
1532260880041832 0 -4 -1 1 -3 2 1 0
1532260880070755 1 2 -2 4 3 0 3 1
1532260880092696 0 0 -4 -5 7 5 -11 -3
1532260880206392 -19 -3 1 -10 -13 15 7 4
1532260880282190 4 -8 -9 3 5 -10 -25 -4
1532260880304131 -3 16 15 13 3 10 -11 2
1532260880334051 -9 39 1 -1 4 -5 2 -6
1532260880402867 6 -4 4 -4 -34 4 -3 11
1532260880460712 6 10 -3 -1 1 -18 -6 0
1532260880485645 -7 -39 2 3 2 -34 -9 -3
1532260880544488 1 -4 4 -5 17 34 2 1
1532260880566429 1 89 2 6 10 -24 -27 -5
1532260880589369 2 -18 6 -12 -7 -11 1 5
1532260880612307 1 -26 1 8 16 -23 16 3
1532260880626269 -4 -25 -5 4 14 7 -7 -3
1532260880641229 6 -10 1 11 -19 -10 -7 0
1532260880664168 -2 -9 -6 -15 -7 -16 -15 -2
1532260880746946 0 -5 0 1 -9 31 1 4
1532260880821759 2 -4 -4 4 -3 -8 20 7
1532260880889565 -5 -1 -2 -8 -7 -13 -13 -4
1532260880994285 -3 4 1 9 25 10 -4 -1
1532260881122941 -3 -3 -3 -4 -25 -29 -6 -4
1532260881145879 -13 -8 -4 -12 -5 -41 -6 -3
1532260881205733 -7 9 3 1 -29 8 2 2
1532260881264563 1 -2 0 0 -5 1 1 0
1532260881309443 1 6 0 0 5 15 8 -2
1532260881406194 7 -16 -13 -2 -12 -2 6 2
1532260881416156 21 -40 -9 -3 -14 7 2 18
1532260881540823 -1 -8 -6 -3 8 -17 -16 -29
1532260881611635 1 24 7 5 12 13 3 19
1532260881655518 5 -12 -10 0 12 11 9 2
1532260881678456 1 5 1 -2 -9 -2 4 0
1532260881701395 -39 -24 -5 -3 2 -10 2 4
1532260881721341 -12 -32 17 14 -4 4 39 69
1532260881744280 -13 -13 1 15 -4 -3 19 9
1532260881774200 0 9 -16 -9 -4 11 -2 -48
1532260881804119 -23 22 -4 -11 -1 -24 -14 3
1532260881826061 51 59 2 -6 -4 12 -3 5
1532260881865954 -19 -2 -11 -2 2 5 -8 -23
1532260881885901 15 26 1 -1 -2 17 6 -5
1532260881912829 -11 8 11 5 0 2 -6 -5
1532260881953725 -12 -6 -10 -3 -1 -3 -7 -7
1532260882002589 -11 3 -2 -2 -1 -6 -21 -16
1532260882023533 -2 2 -12 -3 0 -1 -3 -1
1532260882038492 1 1 -1 3 -1 -21 -6 1
1532260882068413 -3 -2 -3 -3 5 -1 3 0
1532260882111304 -4 -7 -4 -2 -10 -19 -1 -2
1532260882141217 5 1 3 10 -7 10 9 6
1532260882158173 0 -2 -1 -4 12 58 3 2
1532260882203053 -1 3 4 5 8 70 2 1
1532260882276872 -2 -3 -6 -1 -15 -39 -2 -2
1532260882307773 -3 -3 -2 -3 13 2 -2 -2
1532260882337696 -1 -1 -3 -2 0 -3 -3 -2

1532260882396535 -2 0 2 -2 12 -2 -1 -3
1532260882419501 -1 2 -2 -1 5 5 -1 1
1532260882442439 -1 -1 -3 -2 9 12 -1 -3
1532260882503276 -1 0 1 0 3 13 5 -1
1532260882509261 -2 1 -2 -2 8 -7 -2 0
1532260882532199 -2 0 3 3 7 6 -4 0
1532260882569101 -2 -4 -2 -3 -8 5 1 -2
1532260882651878 0 1 -2 -4 -58 -8 0 2
1532260882741639 -1 0 1 -1 4 -1 -1 0
1532260882883260 1 -1 -1 -1 1 -1 -2 -1
1532260882907197 -2 0 -1 -2 2 0 -1 1
1532260882929138 -2 -2 -1 0 -1 -1 -2 0
1532260882995959 -1 -3 1 -3 -1 1 -1 -2
1532260883042834 0 0 -1 0 -1 -2 0 1
1532260883057794 0 -1 -1 -2 -1 -1 0 0
1532260883087714 -1 -2 -1 0 -2 1 -2 -2
1532260883109654 -1 -1 -2 -1 -2 -1 -1 -1
1532260883168498 -1 0 -1 -3 -2 0 -1 0
1532260883252286 -1 0 0 -2 -1 -2 -1 -1
1532260883342034 0 0 -1 -2 -2 -1 -1 -3
1532260883356993 -1 -1 -1 0 -2 1 -1 0
1532260883430796 -1 0 -2 0 -1 1 0 -1
1532260883507591 -2 -1 0 -2 0 -1 -1 0
1532260883566434 -1 0 -1 1 -3 -1 -1 0
1532260883671154 0 8 17 34 15 2 0 1
1532260883813772 -1 1 -8 -16 -1 8 11 1
1532260883873612 -2 -7 -2 -12 -16 -4 1 -7
1532260884064103 1 -6 1 -1 2 -5 -7 -1
1532260884115964 -3 -4 -2 -9 -5 -4 6 -11
1532260884197745 -4 -6 -1 -3 -6 -5 -9 -26
1532260884227665 -4 -4 -5 -5 -4 -7 -12 12
1532260884241628 0 5 -1 3 8 30 52 8
1532260884353329 -13 -8 -5 -8 10 -7 -57 -10
1532260884453063 -8 -12 -5 6 -12 -30 -80 74
1532260884489965 1 7 3 -7 19 -39 64 -2
1532260884510908 18 6 -2 -17 13 29 -22 -128
1532260884533847 -4 -4 -1 -2 9 38 64 46
1532260884608646 11 0 1 -3 8 17 76 6
1532260884684443 35 26 11 14 -1 19 43 93
1532260884723339 13 0 2 -1 -9 -23 11 51
1532260884775201 -3 -27 -3 0 -10 -3 72 -24
1532260884819084 -5 -17 -4 -5 -9 -5 -6 -19
1532260884887900 12 -16 -16 12 -6 16 50 33
1532260884918818 -2 43 14 -2 7 -4 -47 -40
1532260884986636 -6 -54 -1 4 -20 -1 -97 -63
1532260885053457 -13 -104 -44 26 6 -4 65 -45
1532260885058444 8 -12 -1 -13 -3 18 9 -24
1532260885111302 0 -1 19 1 2 8 34 41
1532260885150199 -14 -30 -15 -4 2 -2 11 15
1532260885263895 -7 30 5 -5 -10 -21 -4 -7
1532260885285835 -2 -19 -12 -2 2 4 1 -8
1532260885307777 -2 5 -2 -2 -2 -19 8 5
1532260885331713 1 -3 -2 0 0 -4 2 -1
1532260885344684 -2 -5 -1 -1 -6 -10 3 5
1532260885375596 -1 -6 -2 -1 3 -15 -1 -2
1532260885451394 -2 -4 -2 1 1 0 3 1
1532260885494278 -2 0 3 6 0 -1 -4 -2
1532260885624929 -3 -5 -2 0 16 24 9 4
1532260885663825 -3 -13 -12 1 -14 -29 -14 -5
1532260885681777 2 -3 1 0 -18 -14 4 0
1532260885704728 -2 -2 -1 7 8 -36 -8 -3
1532260885900193 -3 -1 -5 -10 20 18 5 0
1532260885923132 0 1 2 1 17 11 0 1
1532260885939095 -2 -2 -1 -2 -6 -5 -3 1
1532260886093676 -2 -2 -3 -6 2 33 7 0
1532260886118609 -2 -2 -3 -2 -9 -5 -3 -1
1532260886163489 -2 -8 -3 1 7 -6 3 0
1532260886184433 -1 1 -1 0 -7 -9 0 0
1532260886238298 -2 -3 -4 -3 -4 -17 -5 0
1532260886261228 -1 -2 -1 -2 -8 18 0 0
1532260886372929 -1 -3 0 3 24 15 3 2
1532260886388886 -1 -1 0 -3 3 -2 0 -1
1532260886445734 -2 -1 -3 -1 4 22 -6 -2
1532260886469670 -1 -2 -2 -6 -9 -40 -2 -1
1532260886490615 -1 -4 -1 -1 6 19 -2 -2
1532260886612299 -2 -3 -4 -29 -34 11 5 -2
1532260886724988 -2 -2 -6 -19 5 17 2 -1
1532260886761889 -2 -4 -6 -13 9 -4 0 -2
1532260886795807 0 1 -1 -9 -17 -3 9 0
1532260886837686 -2 14 5 -14 -61 -35 -75 -17
1532260886859628 -4 -28 -4 7 24 15 -1 2
1532260886872600 -1 -4 -6 -2 33 11 9 1
1532260886896528 0 8 1 -21 27 14 2 -1
1532260886926448 4 4 0 25 -88 -18 15 7
1532260886964347 -1 89 13 -11 -17 -1 0 0
1532260886979307 -2 -18 2 27 33 15 1 -1
1532260886993270 -4 -16 -7 -28 -69 12 -3 -4
1532260887016208 0 -9 -2 5 -2 -10 -3 0
1532260887053110 0 -13 0 15 -13 17 2 2
1532260887121925 -6 -21 -10 -6 -25 -20 -9 -4
1532260887135900 1 9 6 -1 34 10 3 1
1532260887173787 -6 3 -11 -6 74 -18 -5 -5
1532260887220662 -2 -2 0 21 25 0 2 -1
1532260887248587 2 6 4 9 34 9 -16 -1
1532260887279504 2 1 10 13 -17 6 -3 -2
1532260887362282 -3 1 -3 -4 -26 -7 -7 -3
1532260887429104 8 51 16 2 12 2 2 3
1532260887511883 -4 100 -7 3 -6 -1 -4 -2
1532260887548784 -3 12 10 9 -46 -4 1 0
1532260887579701 1 -29 -1 -2 -14 -11 4 1
1532260887601643 -34 11 6 7 4 14 -10 0
1532260887624581 -43 -62 -6 1 -6 8 3 -2
1532260887675445 13 -53 -4 -4 -14 -2 -1 -4
1532260887745259 -1 36 -2 3 1 12 -6 1
1532260887782160 2 2 -12 -13 18 -5 -4 -3
1532260887818064 2 4 8 12 28 7 2 3
1532260887887877 3 14 6 -9 -85 -14 -3 -1
1532260887992598 5 30 -2 1 25 22 4 3
1532260888036480 -1 -1 3 1 2 26 -5 -5
1532260888061413 20 66 0 7 9 19 2 -8
1532260888121253 1 -14 -10 -24 -1 -39 -7 4
1532260888179098 -9 2 -3 -9 21 3 0 0
1532260888246917 -3 3 -9 -1 7 33 2 -2
1532260888270854 -4 -36 -16 4 27 1 2 -1
1532260888368592 -3 -15 0 5 15 2 -4 -2
1532260888427434 13 49 15 -5 3 -22 -2 1
1532260888488273 -6 -9 -11 -13 -5 2 -2 -3
1532260888526171 -2 -6 5 0 -4 -1 1 -1
1532260888591994 -1 -1 -3 -2 -3 -4 -4 -2
1532260888674773 -1 7 -1 -4 -5 -4 -3 -1
1532260888710677 0 -1 0 4 1 -10 -2 -1
1532260888863269 11 10 -1 3 3 3 1 -1
1532260888915131 -3 2 1 -2 -6 -24 3 -2
1532260888967989 -9 -1 -3 -7 -5 -2 6 -2
1532260889100635 1 25 4 -4 -12 0 3 -1
1532260889184411 1 12 0 -13 -79 -26 7 -3
1532260889207349 5 1 2 4 7 44 23 8
1532260889289138 -4 -5 -1 25 -10 -26 8 -1
1532260889468650 -1 -1 -1 -9 -1 -11 2 0
1532260889536469 -3 0 0 -13 -30 -19 -10 -6
1532260889770842 -3 -9 -5 2 -5 23 1 -3
1532260889785802 -5 -11 -4 -6 39 29 -19 -7
1532260889852624 -3 -42 -2 5 -17 13 6 -1
1532260889995243 -2 -2 -3 0 4 15 -1 -1
1532260890025162 1 4 3 -7 -11 -4 -10 0
1532260890063061 -1 4 -1 3 -7 8 7 0
1532260890084005 -4 -3 -1 9 28 8 1 -1
1532260890166784 -1 -2 -3 -2 6 -10 1 -2
1532260890189728 0 -9 -3 3 -47 1 0 2
1532260890248565 -2 2 1 1 35 13 -2 0
1532260890271508 5 -5 -1 2 13 -9 4 2
1532260890301423 5 -2 0 -5 -11 20 -3 1
1532260890370240 0 -13 3 -1 -4 -2 -2 11
1532260890430079 -18 -18 6 -3 -6 -3 -3 -3
1532260890525824 -2 -7 2 2 2 -1 0 1
1532260890594639 1 -2 -1 0 3 -2 5 2
1532260890668442 -3 1 -4 -6 -17 -16 -3 -4
1532260890751220 0 -2 1 -3 1 -8 -3 2
1532260890811061 2 -1 -2 -2 -10 -19 -4 0
1532260890834000 -4 -4 0 -10 -18 8 -7 -4
1532260890893840 -2 -7 2 2 -31 4 11 2

1532260890968639 0 2 0 5 -2 5 -2 1
1532260891156138 0 -1 -2 -2 1 9 -2 -1
1532260891186057 -2 -1 2 -1 -1 12 0 0
1532260891245898 -2 -2 -2 0 -13 -7 0 -2
1532260891268837 -1 -2 -2 -2 -4 4 1 -1
1532260891291775 -1 1 1 1 22 -7 -3 -2
1532260891321700 -2 -2 -2 -1 -4 -4 -2 -3
1532260891367573 -2 -2 0 0 18 -12 -5 -1
1532260891388518 -1 0 -2 0 -7 2 -2 0
1532260891413449 -1 0 0 -2 -18 1 -1 0
1532260891450351 -2 0 -2 0 -5 -1 -1 0
1532260891471295 -2 0 -1 -3 1 -1 2 -2
1532260891531135 1 0 -2 -1 -6 1 -1 0
1532260891556069 2 -3 -1 -1 -9 -1 2 2
1532260891629871 -1 -1 -1 -1 -5 -2 -2 -1
1532260891730601 -3 -1 -1 -2 2 5 -2 -1
1532260891743567 -1 -1 -1 -2 -2 -1 -1 -3
1532260891853273 -1 -2 -1 1 -10 2 -2 -1
1532260891913114 0 0 -2 3 30 4 -1 -2
1532260891946026 -1 -2 -3 0 -5 -4 0 1
1532260891989908 -2 -1 0 -1 -6 -1 0 -4
1532260892011856 -4 -2 -3 -2 0 1 0 -2
1532260892117567 0 0 -1 -1 -4 -3 1 0
1532260892200346 0 -2 -2 0 9 -1 -1 -1
1532260892268164 0 -3 0 0 5 0 2 -1
1532260892333988 0 -1 -2 0 -7 -2 -1 0
1532260892432724 -2 0 -1 -3 2 2 -3 -2
1532260892484586 -1 -2 1 -1 -1 -4 -2 -2
1532260892521487 -1 -2 -1 -2 1 -1 -3 -2
1532260892544425 -2 -1 -2 0 -29 1 0 0
1532260892588308 -2 0 -2 -4 0 -7 -3 1
1532260892634186 -2 -1 -3 -3 -41 2 2 1
1532260892648148 1 0 0 2 10 5 -10 1
1532260892679072 -2 0 -2 -2 3 -1 -6 -2
1532260892730927 0 -3 -2 -1 1 6 0 -4
1532260892799743 0 -1 -2 -2 -2 -1 2 0
1532260892881524 -1 -2 0 0 4 -2 -1 -3
1532260892896483 -1 -1 -2 0 0 -1 -5 -2
1532260892934383 -3 -1 -2 -3 -5 -3 -1 -1
1532260893003199 1 -1 -2 -1 -1 -4 8 0
1532260893063039 -2 -2 2 0 -1 3 -4 -3
1532260893071018 -1 -1 -2 0 -1 -1 -1 -2
1532260893101935 -1 0 -2 -1 -3 -1 -1 0
1532260893113903 -1 -1 -2 -5 -50 -1 1 -1
1532260893136841 -1 -1 -1 0 11 2 -5 -1
1532260893150803 -3 -2 -2 0 7 2 4 -2
1532260893196681 -1 0 -1 0 8 1 -1 0
1532260893241561 -1 -2 -2 -1 2 0 -3 -3
1532260893279459 -3 0 0 0 1 -4 0 -1
1532260893287438 0 -1 0 -1 1 3 -13 -1
1532260893331330 -3 -1 0 -1 2 0 2 -1
1532260893356268 -2 1 0 1 -2 -2 1 0
1532260893363235 -1 -2 -2 -3 0 -1 -1 0
1532260893399140 -1 0 -1 -1 -2 -1 0 -2
1532260893444034 -2 -1 0 -1 0 0 -3 -3
1532260893450004 -1 -1 -1 -1 0 1 -2 -1
1532260893496878 -1 0 0 -1 -2 -1 -2 -1
1532260893518820 0 -3 -2 -1 0 -1 1 0
1532260893556719 -1 -1 1 -2 -1 3 2 -2
1532260893564697 -2 -1 -1 0 -1 -1 -1 -1
1532260893609577 -1 0 -1 0 -1 -2 -2 -1
1532260893670414 -1 -1 -1 -2 -3 -2 -3 -2
1532260893679398 -3 1 -3 -1 0 0 0 -2
1532260893736239 1 -1 -1 0 -1 -1 2 0
1532260893797076 0 -1 -2 0 -1 -2 -1 -1
1532260893842953 0 -1 -1 -2 -1 0 -3 -2
1532260893865891 -1 -1 0 -1 -1 -3 -2 -1
1532260893887833 -2 -1 -1 -3 -2 -2 -2 1
1532260893908777 -1 -1 -2 -2 -1 -4 -1 1
1532260893924734 0 -2 -2 -1 -1 -1 -2 -4
1532260893946675 -3 0 0 2 -2 -1 0 -2
1532260893999534 -2 -1 -1 -1 -1 -1 0 -1
1532260894012500 0 -2 -3 -1 -2 0 1 1
1532260894027460 -1 -1 -2 -2 -1 -2 -1 -1
1532260894099268 -2 0 0 -1 -1 -1 0 -1
1532260894118217 -1 0 -1 3 0 1 -4 0
1532260894201993 -1 0 0 -3 0 -2 -1 0
1532260894210968 -1 -1 -2 0 -2 -4 0 -1
1532260894224932 -1 1 -2 -2 0 2 -4 -2
1532260894276793 -2 0 -2 -2 -2 0 0 -2
1532260894312697 0 -1 0 -2 -1 -1 -1 -1
1532260894372538 -1 0 -2 -3 -3 -1 -1 0
1532260894419412 0 -2 0 -2 -1 -2 -1 0
1532260894457310 0 -1 -1 0 -1 0 -1 -2
1532260894479252 -2 -2 -1 1 -1 -2 -2 -1
1532260894516153 0 -1 0 -2 0 -2 -2 0
1532260894524132 0 -1 -1 -1 -2 0 -2 1
1532260894575993 -1 -2 -1 0 0 0 -2 -2
1532260894598931 1 -1 1 -1 -2 0 -2 -2
1532260894612894 0 -1 -3 -2 -1 -2 1 1
1532260894651790 -1 -1 -1 -2 -1 -1 -1 0
1532260894720606 0 -2 0 1 -1 0 -2 -4
1532260894733571 -3 0 -1 -1 0 1 1 0
1532260894764489 0 0 -1 -1 -1 -1 -2 0
1532260894779449 0 -4 -1 -1 -1 -1 -1 0
1532260894801390 0 1 0 1 1 0 -1 -4
1532260894816350 -2 -1 -2 -2 -2 0 0 0
1532260894839289 0 -1 -1 -3 -1 -1 -1 0
1532260894862228 1 -1 0 -1 -3 -1 0 0
1532260894921070 0 -2 -2 -1 -1 -2 -1 -2
1532260894975923 -1 0 0 -2 -1 0 0 1
1532260894980910 -2 -1 -1 -1 -1 0 -1 -1
1532260895027798 -1 -3 0 0 1 -4 -4 -1
1532260895042745 0 -1 -2 -3 3 2 -2 -3
1532260895052719 -2 -4 -3 -1 3 -16 -6 -3
1532260895062691 -1 -2 -2 -5 22 4 1 -3
1532260895101587 -2 -2 -2 -12 -7 -12 0 0
1532260895161427 2 5 5 6 -7 -4 0 2
1532260895175390 -2 -4 -12 -13 3 4 1 0
1532260895231240 -1 -2 1 2 11 5 -2 -3
1532260895258168 0 -1 -6 -14 -11 5 0 0
1532260895321000 -2 1 -1 -16 -19 -5 -1 -7
1532260895333984 0 -4 -4 -4 0 -4 -6 -2
1532260895355908 0 4 2 1 -6 -5 -4 -1
1532260895371865 -1 0 0 -8 -8 0 -1 -8
1532260895410760 1 -1 -3 -6 3 -2 -7 1
1532260895431710 -1 -3 -6 -6 -9 -6 1 -1
1532260895454649 0 2 -2 -2 1 4 -19 -5
1532260895470601 -1 1 -1 0 1 3 12 3
1532260895590281 1 1 6 12 7 9 2 -1
1532260895643139 0 1 0 1 3 4 -11 -3
1532260895666081 -1 -2 0 0 -4 -1 -7 2
1532260895685027 0 -2 -2 0 7 8 18 6
1532260895792739 0 0 2 5 -2 -85 -46 8
1532260895830639 2 0 -1 -2 -1 7 7 26
1532260895898457 -2 0 -1 3 12 7 -5 -5
1532260895905438 -1 -2 -1 -2 -7 -53 -16 1
1532260895942339 0 0 0 -1 1 19 -2 -3
1532260896009161 0 2 -1 -8 -1 4 -23 -56
1532260896032099 1 -3 -2 -4 -3 2 -12 29
1532260896062019 -4 -5 -2 -2 0 5 4 24
1532260896123854 -6 4 -2 1 7 -33 -77 -16
1532260896127843 -5 -6 -2 4 5 20 23 -16
1532260896157763 -15 -5 -6 -25 -5 -10 -16 -53
1532260896189678 1 -8 -8 -11 -5 -21 -56 2
1532260896271459 3 1 -1 -2 1 -1 7 20
1532260896301379 -7 -3 -1 3 -15 -19 18 -11
1532260896339292 -2 -1 1 -4 -5 29 -23 24
1532260896385154 -5 -2 1 -9 -39 -3 14 78
1532260896407097 7 -1 0 -4 15 -7 -4 20
1532260896431033 8 0 1 0 -41 -15 -28 10
1532260896474915 -20 3 -5 -1 45 55 -20 -56
1532260896525779 11 -7 -5 -3 -85 0 29 28
1532260896647454 12 13 1 3 -1 5 7 -14
1532260896653437 17 -2 -2 -7 -17 -33 -13 36
1532260896730232 -4 -9 -8 -22 -35 -3 -21 -7
1532260896746189 -21 35 5 -19 6 -19 -15 -3
1532260896780099 -7 -61 -22 -25 5 -28 50 -29
1532260896963608 -1 -8 2 23 15 18 18 20
1532260896985549 30 -26 -5 0 4 -11 0 -19
1532260896999512 1 -6 15 -2 5 27 37 1
1532260897020456 2 6 0 1 5 -15 -3 22
1532260897081294 5 -24 -2 -1 -1 -9 -2 11
1532260897127171 4 15 -2 -5 -4 0 -7 0
1532260897150110 6 25 3 -1 -1 5 -4 1
1532260897249843 7 29 4 0 7 -16 -2 1
1532260897285747 -1 8 -1 -3 5 5 0 4
1532260897336611 2 7 8 6 -1 16 -12 -2
1532260897366531 -1 -2 -2 -8 3 41 -9 -5
1532260897449309 1 -5 2 4 36 29 -6 4
1532260897547047 -1 -1 -4 -3 -46 -64 -9 -2
1532260897576968 0 0 2 5 -31 -40 -2 1
1532260897636808 -9 1 0 -1 4 33 -1 -3
1532260897725571 -3 2 -4 1 9 -16 0 0
1532260897752498 -3 -3 -1 1 18 17 -1 0
1532260897794387 13 3 0 0 13 7 -5 3
1532260897817325 2 3 -3 -5 4 5 1 1
1532260897835286 -2 -3 0 4 6 5 -1 1
1532260897856221 -3 1 -3 1 -1 7 -1 0
1532260897893123 -1 -3 -3 1 1 -3 0 0
1532260898003827 -2 -2 -1 -3 -5 -6 3 -2
1532260898080621 -3 0 1 0 -6 -6 -3 -2
1532260898096579 1 -1 -1 0 -4 0 -1 -3
1532260898133480 -5 0 -2 -1 -1 8 -2 -4
1532260898154423 -3 -1 -1 1 -1 4 0 -1
1532260898214263 -1 -1 0 -3 0 1 0 0
1532260898237202 -4 -4 -1 -2 0 2 0 -2
1532260898283080 3 -1 0 0 -2 2 -2 1
1532260898306019 -3 1 -1 -1 -1 0 2 0
1532260898325965 0 0 -1 -1 -1 -4 -3 0
1532260898431682 1 -1 -3 0 1 -11 -2 1
1532260898447640 -2 0 0 -2 -1 7 -2 -2
1532260898506483 -1 1 -2 -1 -1 11 -5 -1
1532260898583277 -1 0 0 -6 -19 -33 -4 -1
1532260898628157 -3 4 8 42 5 12 -2 -2
1532260898659075 -3 0 5 -1 43 13 3 1
1532260898679020 1 -2 -3 14 3 -2 -14 -3
1532260898747837 -6 -25 -15 -17 -29 -2 8 0
1532260898768781 0 3 -1 6 -9 0 -4 -16
1532260898814658 -4 0 3 0 -12 -18 2 2
1532260898888482 70 41 13 38 -2 -37 1 21
1532260898918381 -77 -79 -30 -25 -11 -65 -10 48
1532260898972237 -15 3 12 19 -112 -65 19 -16
1532260899039059 -1 -2 -10 -14 -22 -28 -8 -6
1532260899107874 3 2 9 10 -58 -17 6 -2
1532260899136796 -8 -9 -9 14 86 32 -31 -14
1532260899183688 1 6 -4 -21 23 72 0 -3
1532260899289389 1 -5 -5 -9 -9 -16 -9 1
1532260899370173 1 17 9 1 0 22 -2 3
1532260899511794 2 -5 3 3 -12 -10 10 3
1532260899526754 1 -22 -3 1 6 35 0 1
1532260899541729 0 -25 0 11 9 -22 -6 -1
1532260899562658 0 24 -1 1 -5 -3 7 0
1532260899593575 2 51 0 -1 -3 16 -2 0
1532260899624492 -6 -11 -7 -7 -13 -14 0 0
1532260899671375 -1 -4 2 4 22 -44 -6 -3
1532260899810994 -4 -21 3 -6 -7 -29 -11 -9
1532260899834930 -4 -17 -8 -1 -14 7 6 0
1532260899858866 -2 -7 -5 -2 -7 -4 1 -6
1532260899870834 2 19 4 1 12 -15 4 0
1532260899901751 2 36 3 1 19 6 -6 -1
1532260899939649 -3 8 2 0 -3 4 -7 -2
1532260900007469 23 3 -3 -5 5 4 4 10
1532260900051352 -31 31 -1 3 9 2 -6 -2
1532260900068306 15 -27 -14 0 -6 10 -9 -5
1532260900105207 18 -29 -4 -5 -2 2 3 -3
1532260900114183 -7 30 4 -4 2 -2 3 1
1532260900126152 0 0 1 14 14 26 0 1
1532260900216909 1 -4 -5 0 -7 -3 -1 -3
1532260900247825 -2 -34 0 -6 -67 36 4 0
1532260900360530 -9 -69 15 -5 -5 -7 -17 -19
1532260900458263 8 24 4 -4 1 -3 -9 -9
1532260900523090 9 46 0 4 2 0 -2 6
1532260900578941 1 6 -1 -6 -22 1 -5 -2
1532260900606866 -3 -17 -4 5 4 16 -4 -3
1532260900615842 -2 1 0 -13 19 11 -2 -1
1532260900659728 3 0 0 -1 -3 2 -2 2
1532260900696626 1 -28 -14 1 33 0 -3 -1
1532260900740508 2 13 8 10 20 18 1 0
1532260900816306 -2 -37 -19 -3 -4 0 -5 -6
1532260900877143 -9 -9 -1 -1 -5 -5 -17 -27
1532260900908060 16 31 -1 0 8 -3 10 9
1532260900923021 1 -20 -6 -14 3 4 1 3
1532260900937980 7 2 14 -17 18 -9 10 6
1532260900950946 -2 20 -15 6 -2 -9 -4 0
1532260900996823 -2 -24 -1 14 16 -16 0 0
1532260901161383 -7 -39 8 42 75 19 5 0
1532260901186316 -6 -38 -19 -2 68 5 1 -2
1532260901310983 -11 -19 -8 -2 -2 -4 -2 -11
1532260901424679 3 8 2 7 1 -4 -5 -6
1532260901512449 -4 -19 1 8 -8 -21 -12 3
1532260901649079 -20 11 8 2 45 3 8 20
1532260901672018 -8 -17 -2 -3 -4 66 17 22
1532260901738855 14 -4 0 5 -7 -7 -3 5
1532260901752802 -1 -12 -4 -13 -24 2 -5 -2
1532260901775740 0 -12 -6 -19 7 6 -9 -6
1532260901821624 0 -6 -5 4 14 5 -8 -5
1532260901859516 -1 -5 -1 12 -19 -7 1 -1
1532260901889448 -2 -3 -1 -13 -21 2 3 -3
1532260901910380 1 2 -3 12 -4 -6 6 3
1532260901921351 -1 -4 -5 -4 41 0 5 1
1532260901959251 -2 0 -2 -7 1 0 6 -1
1532260902032054 8 -2 1 2 -14 1 -6 2
1532260902271414 -3 -4 -2 1 -10 -6 17 2
1532260902309314 -2 -2 -4 -8 -25 -9 -6 -1
1532260902356188 4 6 1 3 -10 -1 3 2
1532260902467889 -7 -4 -2 -6 2 -40 -22 -7
1532260902520748 16 6 -3 2 11 32 8 14
1532260902550668 -6 7 2 -1 6 -2 8 0
1532260902585575 -2 -9 -5 -5 3 -6 9 0
1532260902676332 1 -2 2 3 -17 -8 6 3
1532260902736172 0 3 -1 -6 -2 13 -1 -3
1532260902826929 1 -5 -1 -3 -5 14 3 1
1532260902844881 -1 -2 -5 -1 6 -16 -6 -1
1532260902909708 -4 6 -4 -5 -2 -28 10 -15
1532260902978527 -11 -23 -12 -7 -2 12 -18 -6
1532260903059308 -5 -30 -8 7 1 -4 -2 3
1532260903081249 -8 -34 -1 -2 -2 -2 -7 1
1532260903096209 -3 2 -3 0 -1 0 -5 17
1532260903134108 -1 1 -2 -1 -5 -22 -2 -1
1532260903164028 -2 1 -6 -30 -36 3 0 -2
1532260903186967 -1 3 0 -1 21 -36 -5 -4
1532260903226859 -3 -4 -8 -11 6 -3 0 -1
1532260903292684 2 0 1 2 -3 11 3 2
1532260903323600 3 4 6 17 21 4 -6 0
1532260903382444 -2 -5 -7 -12 -2 7 4 0
1532260903426327 -5 -7 -4 -3 -23 3 -3 -4
1532260903478188 -1 2 -2 1 5 3 -4 -1
1532260903502123 -1 -1 1 2 5 15 6 3
1532260903532044 -2 -2 1 2 18 13 1 -2
1532260903553985 -3 -2 -3 -1 -5 2 -3 -2

1532260903704582 -1 -6 1 2 -3 -2 -2 -3
1532260903824261 0 -4 -2 -2 2 0 1 0
1532260903892081 -2 -1 -2 -1 -3 2 0 -4
1532260903957905 0 -1 -1 -3 -3 -3 -3 -1
1532260904149393 1 -1 -1 -1 -1 -2 -1 -1
1532260904342875 -2 -2 -1 0 1 -1 2 -1
1532260904371799 0 -1 0 -1 0 2 -1 1
1532260904408709 -3 1 -1 -2 -2 -1 -3 -2
1532260904435639 1 -1 -2 0 -1 -1 0 -1
1532260904478513 1 -2 -2 -2 -2 -1 -2 -1
1532260904589216 0 -1 -1 2 -26 -15 -2 -1
1532260904618139 -3 -4 -3 0 12 -1 -2 -3
1532260904640081 -1 -4 -3 -4 -9 -2 -1 -3
1532260904687953 1 4 2 -1 -20 -12 -1 -1
1532260904709894 -1 -1 0 -4 -10 0 0 -2
1532260904754778 -2 0 6 4 6 8 0 -1
1532260904791675 -1 -5 -2 1 16 18 3 -1
1532260904805638 0 0 -2 10 -5 -12 0 0
1532260904851516 1 6 -1 -2 -3 -31 -8 0
1532260904874454 0 -2 1 0 2 -9 -3 -1
1532260905083894 3 1 0 9 3 24 2 1
1532260905371126 0 -3 0 -11 -4 34 5 0
1532260905450920 -1 0 -2 -4 -4 -1 -1 0
1532260905540673 -1 -1 -1 6 -3 -4 9 4
1532260905567600 1 -4 0 10 -1 0 3 3
1532260905588545 -1 0 -1 -2 -17 -5 -3 0
1532260905641403 -1 -3 -6 -10 6 4 10 4
1532260905691270 2 -2 -4 -15 -12 2 10 1
1532260905866800 -2 -2 1 0 -4 -51 -11 -17
1532260905873790 -1 -3 -4 -4 -10 28 -25 13
1532260905917666 7 7 3 2 7 101 -16 6
1532260906015403 10 4 -5 -10 5 5 7 10
1532260906075243 3 2 -5 -13 -12 77 -11 40
1532260906164006 -1 -52 -5 -3 -17 17 61 -50
1532260906389403 -9 -41 -5 -9 -2 -3 1 -16
1532260906434283 18 9 -2 -3 -7 15 -38 -27
1532260906457221 -10 24 0 -12 -13 32 32 -28
1532260906487141 7 12 -1 3 1 -14 25 7
1532260906545984 35 9 3 8 3 -12 18 -3
1532260906586875 -6 -5 -3 -1 5 -29 -16 18
1532260906778363 -26 -7 1 30 -46 -3 17 -16
1532260906886086 0 -10 -5 -8 -1 -41 6 -4
1532260906932949 -2 -4 -3 -2 -22 12 1 -1
1532260906953893 4 15 6 14 -11 24 -1 1
1532260906967856 -5 2 -1 -4 9 -13 3 0
1532260906987803 0 -2 0 -4 -38 0 0 0
1532260907011739 4 4 0 3 -27 12 2 0
1532260907047643 0 -16 -8 -9 -15 -27 -3 -1
1532260907119450 4 -6 6 2 -56 18 8 1
1532260907161339 0 1 2 2 24 26 2 5
1532260907192256 0 -2 -1 -2 15 9 0 1
1532260907230155 7 -1 2 -2 -27 -12 7 24
1532260907252096 -4 2 1 3 17 6 -2 13
1532260907289995 6 1 2 0 -49 -5 1 6
1532260907303957 9 4 -4 -5 -12 1 -3 1
1532260907349834 -2 -5 -4 -2 -2 0 1 -1
1532260907372786 1 0 -1 -1 -6 5 -2 1
1532260907394715 -1 -2 1 0 11 -5 -1 2
1532260907463530 -1 -4 0 0 -7 -7 -4 -3
1532260907485471 12 -3 -3 0 1 2 -2 1
1532260907545312 -3 1 -2 0 -2 2 -3 -3
1532260907581216 17 -2 -1 1 11 -4 -3 -1
1532260907627093 -9 1 0 -2 -11 -7 -1 -7
1532260907693914 2 2 -1 -2 -1 -3 -3 -3
1532260907718853 -3 -3 -1 0 0 8 2 0
1532260907739792 0 -2 0 -2 -6 -6 1 0
1532260907786666 0 0 -2 0 -1 -8 11 2
1532260907814592 -4 -1 2 2 5 0 -2 -4
1532260907904357 2 1 0 0 -4 8 -2 3
1532260907950229 1 -2 -2 3 29 4 -1 1
1532260908017050 -2 -6 9 9 -12 -1 6 2
1532260908038992 -3 -3 -10 34 27 -2 -4 -1
1532260908113792 -3 -6 -13 -29 -9 -5 -6 -5
1532260908146703 1 0 -4 -12 11 7 8 5
1532260908265386 -1 0 0 2 -3 -1 3 -1
1532260908340186 1 1 3 4 34 9 -1 -1
1532260908369108 2 22 3 -4 -54 -15 6 1
1532260908430943 -1 10 0 -8 -15 -50 -12 -2
1532260908474826 -3 0 -5 -19 -36 -52 0 -1
1532260908655344 1 -37 -5 4 37 22 8 3
1532260908684266 1 -23 -6 2 -46 29 6 4
1532260908699226 7 24 11 4 -7 8 1 3
1532260908797962 -14 87 -28 -6 -6 12 0 -4
1532260908903685 15 41 9 4 15 -17 -4 3
1532260908956550 -42 -63 -8 -14 -15 -17 -16 -14
1532260909126084 -3 -19 -1 -4 31 6 -3 -2
1532260909187937 -1 6 0 -1 5 6 -3 -1
1532260909240777 6 27 -5 -3 -20 -19 6 4
1532260909307599 -38 -11 -39 -11 -1 2 1 4
1532260909353477 -20 -10 -19 -4 7 11 -13 -9
1532260909481135 0 -24 -1 11 -4 13 -1 1
1532260909493103 3 9 6 21 40 10 3 1
1532260909788314 6 -27 12 2 -10 -6 -5 -1
1532260909871106 -7 -13 -10 -6 -24 -56 -7 -4
1532260909907994 -4 -21 -18 -6 21 -2 -2 -2
1532260909973818 -2 0 -8 2 21 22 1 -1
1532260910019696 -12 -42 -6 -6 -9 -3 -3 -3
1532260910079535 -10 3 1 6 11 33 1 -1
1532260910282990 2 -3 1 3 3 -1 -3 0
1532260910619101 -2 -2 1 -9 -2 -4 -7 -6
1532260910642031 -3 -5 -7 -1 21 -46 -21 -8
1532260910896351 -2 -4 -3 -1 -8 -14 -7 -6
1532260911037972 1 0 2 2 1 25 -10 -3
1532260911094827 -2 -5 -5 -12 -34 2 19 -1
1532260911116761 -3 -1 -4 -12 -22 13 -3 -2
1532260911147679 8 -1 1 5 -15 5 0 5
1532260911166627 -1 -2 6 3 4 -6 -14 -2
1532260911211508 0 -2 -1 -4 -21 1 -11 -2
1532260911234446 13 -6 0 -1 9 5 3 3
1532260911395016 -5 -3 11 0 -12 -22 -3 -6
1532260911430921 -4 -13 -2 1 5 1 -2 1
1532260911435908 -1 9 4 -4 -14 -6 -8 -2
1532260911458863 0 -10 -2 2 17 -22 2 1
1532260911623407 -11 -14 -2 -4 -14 -17 4 -3
1532260911651332 0 2 -1 -3 -11 13 2 -2
1532260911699204 -6 -4 -1 3 -5 3 4 2
1532260911728126 1 -5 1 6 5 -24 7 1
1532260911789972 -2 -5 1 -3 -3 0 2 1
1532260911908644 -1 -6 -8 -27 -9 -10 -8 -1
1532260911963496 -1 -8 -1 -6 -11 7 -12 -12
1532260911969481 0 0 -1 5 9 8 13 2
1532260911991422 0 -3 -2 -9 -8 0 3 -1
1532260912014361 -2 -1 0 2 12 13 -10 -4
1532260912052259 0 1 0 12 6 -9 -1 -1
1532260912149998 -1 7 4 -6 -19 -5 -2 1
1532260912180916 0 -2 -1 3 -6 -11 2 0
1532260912254719 -3 -3 -2 -5 -1 18 1 -1
1532260912269678 0 -3 -2 -6 3 -5 -3 -1
1532260912313561 -4 -6 -4 -1 39 -13 -1 -3

1532260912411300 2 3 -8 2 6 -14 -3 -1
1532260912440222 1 1 3 0 -7 1 -1 1
1532260912666617 -15 4 -2 1 26 -8 -3 39
1532260912681577 2 19 -5 -2 7 18 0 5
1532260912786308 -3 5 -1 3 -15 12 3 0
1532260912823210 7 2 4 8 -12 -22 -3 -5
1532260912846148 0 -6 -1 -8 -2 -45 6 -12
1532260912869086 -7 -1 -1 1 -18 0 14 -6
1532260912944892 2 1 -4 -4 7 0 -5 -8
1532260912965836 6 34 3 7 6 46 16 14
1532260913049612 16 6 7 6 31 10 16 3
1532260913064572 44 -78 -6 -5 -13 -10 2 16
1532260913094492 -40 -15 -8 0 -4 -39 -21 -7
1532260913146353 -25 1 -6 -34 10 31 23 13
1532260913214172 -11 -34 -7 16 63 14 -6 -3
1532260913246087 22 43 -7 2 -8 34 -14 -2
1532260913290967 6 -18 -1 0 -21 -15 -2 24
1532260913326871 -2 3 3 -2 -7 -18 -6 -17
1532260913348812 -7 -8 -4 1 -21 -14 -1 -9
1532260913394690 12 31 23 8 27 -16 -4 5
1532260913446567 0 56 10 -5 7 28 11 2
1532260913499409 -33 -38 -31 -41 1 -7 9 10
1532260913528332 1 5 -2 -1 -10 33 18 10
1532260913566231 0 10 9 28 5 -4 -17 -11
1532260913589170 4 -6 -7 -21 -42 -37 -13 -3
1532260913603132 6 14 4 -4 -6 -4 -5 2
1532260913634050 3 -1 0 6 42 5 3 -2
1532260913649010 3 1 2 16 2 -5 0 -2
1532260913685911 -2 -12 -16 -55 -23 -17 -6 -5
1532260913799607 1 1 3 6 -2 3 -1 1
1532260913904327 -3 -3 4 9 7 9 -10 -3
1532260913972145 -6 -7 -4 -1 -17 5 6 -1
1532260914009046 -3 0 -1 -1 -5 12 6 5
1532260914105792 4 0 2 1 -6 -9 -2 -7
1532260914129734 2 -2 -1 -2 -8 6 2 -6
1532260914168619 -1 -2 0 2 2 -8 -4 -4
1532260914190561 -1 -3 -2 -1 -5 -31 -9 -3
1532260914196545 -1 -1 -1 -2 -10 6 3 -2
1532260914309244 -2 -2 -2 0 -4 3 1 1
1532260914353127 0 0 0 -2 -24 -37 -3 -1
1532260914465825 -1 -3 -1 -8 -4 5 -1 -2
1532260914488764 -2 -1 -1 -3 0 3 0 -1
1532260914525665 0 0 1 0 3 12 3 0
1532260914579521 -1 0 -1 -2 0 2 0 -1
1532260914585505 0 -1 1 0 3 -3 -1 0
1532260914610438 0 -1 -3 -4 3 2 1 0
1532260914631383 -2 0 -6 -13 -3 -16 -8 -2
1532260914677259 -2 -1 1 4 -35 -15 -6 -3
1532260914692220 1 -2 -9 4 9 2 2 2
1532260914722140 -1 1 7 -6 -1 3 0 1
1532260914736103 2 1 -2 6 -5 6 -1 0
1532260914759041 1 2 -2 19 12 2 2 0
1532260914788962 -5 -6 -8 -2 -1 -6 -12 -6
1532260914811900 3 -1 4 4 19 13 13 1
1532260914833841 -1 3 8 11 3 1 -6 -3
1532260914933574 0 0 -1 -8 -65 -21 0 -3
1532260914956513 -1 -5 -5 -12 -12 -2 3 -4
1532260914977457 3 -6 -2 -3 8 -5 4 1
1532260914999398 -4 -3 -2 -10 -4 -24 -7 -3
1532260915021340 0 4 8 11 11 7 0 0
1532260915097137 1 1 6 8 1 7 0 3
1532260915142016 -3 0 0 -3 -2 -5 -10 2
1532260915215820 -7 -1 -2 -2 -2 -17 -22 -10
1532260915382374 -5 26 1 6 17 3 -45 95
1532260915466150 -3 -15 2 9 -4 -59 13 40
1532260915531974 19 -6 -5 -2 15 -96 30 90
1532260915577858 5 -4 -7 -3 -28 -2 -37 -6
1532260915614753 16 -4 -3 2 -7 -7 3 2
1532260915674594 15 -3 -2 -5 -30 -18 -11 -22
1532260915719473 -11 -4 -1 -10 16 12 54 37
1532260915763355 -26 -7 1 -6 -9 -3 27 -29
1532260915831174 12 -17 -8 -14 -17 -22 -88 -50
1532260915847132 18 2 -9 -6 28 -20 6 41
1532260915973793 45 72 11 -6 -3 -16 22 58
1532260916065547 -32 30 -18 -12 -12 -34 -99 43
1532260916085494 5 -18 -8 0 14 32 37 16
1532260916149324 1 3 -10 -11 -5 26 7 27
1532260916171264 20 -11 -11 -9 -12 -23 -21 12
1532260916199190 -3 -9 -13 3 -5 -2 -13 -14
1532260916216145 3 8 1 8 3 -3 -5 -5
1532260916273991 3 2 2 7 1 -32 -3 1
1532260916318870 -4 -10 -3 0 17 -2 2 0
1532260916370731 -3 -3 -1 -3 -10 -2 2 1
1532260916395665 2 0 0 -1 5 -7 -2 -2
1532260916422593 -3 1 -3 4 19 -12 -2 -3
1532260916453510 2 -7 -8 -7 22 -23 -2 -4
1532260916507366 1 -3 -1 -1 -3 -56 -9 -3
1532260916703857 1 4 0 -2 -42 -25 -3 -2
1532260916716806 -3 -5 -1 6 39 26 4 0
1532260916762683 -1 -5 -5 3 32 22 5 1
1532260916805569 -5 -4 -3 -4 12 -21 -3 -3
1532260916875393 -2 -2 0 1 -2 -13 0 0
1532260916898320 0 1 -1 -3 -4 -3 -2 -2
1532260916981099 -4 -4 -3 3 8 11 2 2
1532260917017003 -1 0 0 -2 0 4 -1 -1
1532260917061883 1 1 0 -3 -2 -2 0 -2
1532260917136683 -1 0 -2 -2 -2 -4 -1 -1
1532260917174582 -2 -1 0 -1 -2 -2 -1 0
1532260917219462 -1 -2 -2 -2 -1 -1 1 -3
1532260917260352 0 2 -1 -1 -1 2 2 -1
1532260917271322 -1 -3 -2 1 0 0 -5 -2
1532260917317200 -1 -1 -1 1 0 1 -1 0
1532260917451840 -2 -1 1 -1 -3 -2 -2 -3
1532260917518661 0 -1 1 -1 -4 -2 -1 -2
1532260917535616 0 1 -1 -1 2 1 0 2
1532260917579499 -2 2 2 -1 -4 0 -1 -2
1532260917593461 0 -1 -1 -4 -3 -2 -2 0
1532260917759019 2 3 3 15 -2 -16 -1 -1
1532260917783952 -1 -2 0 -3 19 23 0 -1
1532260917796918 3 1 8 34 20 9 5 3
1532260917820853 -1 6 27 37 -5 -5 -10 -6
1532260917841798 -2 0 3 -3 -11 3 -1 0
1532260917963472 -2 0 2 3 6 -4 4 0
1532260918053232 -1 -47 -6 -2 -12 10 8 0
1532260918073179 1 73 5 -4 -54 -46 -7 -2
1532260918098112 3 8 6 0 31 -15 1 2
1532260918162939 0 -5 3 1 10 6 4 -5
1532260918366395 -1 -10 -6 4 -62 -24 2 -2
1532260918426235 1 -4 7 11 -22 -10 1 0
1532260918518987 3 -4 0 -7 36 1 -3 0
1532260918561872 -1 -10 -10 -9 26 57 2 1
1532260918645659 0 -14 6 5 -25 -70 -2 0
1532260918696512 2 -33 4 2 -2 -3 -2 6
1532260918733413 -8 -19 11 8 1 6 -1 -2
1532260918833147 -1 -9 -1 -7 0 2 1 0
1532260918854090 1 -5 6 -4 -2 -2 -4 -3
1532260918886011 -4 -26 -2 8 -4 5 1 -3
1532260918989733 -7 20 1 -14 43 11 0 -4
1532260919026636 4 53 4 1 -10 -9 0 0
1532260919229094 -12 4 -13 -6 -19 -22 -4 -7
1532260919273973 -6 -19 -3 -3 -1 5 -5 -2
1532260919440528 0 11 -6 -5 -22 -18 -10 -4
1532260919463467 1 30 -2 1 -7 -12 -2 -2
1532260919514331 -7 -14 -13 -6 -2 -25 -9 -5
1532260919656949 -2 3 -4 -5 -25 -41 -2 0
1532260919678891 -8 -6 -13 -1 -2 7 6 16
1532260919754688 -2 -15 -2 -4 -5 4 2 8
1532260919874368 -2 -8 0 -8 15 -12 10 -5
1532260919926230 3 33 4 6 26 19 -14 0
1532260919994048 -3 0 -3 1 -26 -18 5 -1
1532260920015990 -5 -11 -12 -12 -52 -12 0 -5
1532260920053904 -4 -1 -5 -8 2 -8 -16 -6
1532260920180549 0 2 0 -27 -56 -22 -5 -2
1532260920241386 0 -1 0 12 19 37 18 3
1532260920328162 0 -1 2 2 -27 -9 6 3
1532260920347104 -1 2 -1 -4 5 4 -24 -2
1532260920443845 0 -9 -2 -17 -17 5 11 6
1532260920631344 -2 6 -4 -23 16 -38 1 -1
1532260920649296 -1 6 6 17 7 23 8 0
1532260920676224 -4 19 1 0 2 -9 -5 -5
1532260920701161 0 -9 6 21 -3 -6 1 1
1532260920780944 2 -3 -2 -4 -3 3 -1 -2
1532260920880677 0 -8 -3 -4 -8 -19 1 2
1532260920918576 -5 -4 -3 2 27 -10 -1 -4
1532260920940525 0 -1 0 5 20 13 6 1
1532260921081141 -2 -3 -2 -5 -1 3 -2 -1
1532260921106075 0 0 1 -1 9 3 0 0
1532260921151951 -9 -13 -12 -12 -16 6 8 -25
1532260921163919 3 -1 -7 -19 23 11 11 14
1532260921185862 -1 -8 -3 -7 -7 8 8 6
1532260921284597 -1 -1 3 20 4 1 9 -4
1532260921421232 -1 -1 -1 -1 8 4 -1 -8
1532260921443172 1 2 1 2 -6 -1 6 4
1532260921466125 -1 -2 -5 -3 10 3 -5 0
1532260921488053 0 1 4 9 -1 0 0 -2
1532260921614715 0 1 9 7 3 -2 2 0
1532260921637653 1 1 -3 3 7 5 1 0
1532260921662587 1 2 -5 2 2 4 -1 0
1532260921683530 -1 -5 -4 -15 -6 5 2 0

1532260921719434 -2 10 4 -3 0 2 2 -2
1532260921756338 -3 -40 7 -2 -2 -2 -4 -4
1532260921804228 0 -5 14 3 0 -2 -2 1
1532260921841129 -2 2 -6 -6 -2 -6 -5 -2
1532260921870051 0 -7 0 0 -1 0 5 1
1532260921891993 1 7 4 -2 -4 1 0 -1
1532260921976766 0 -5 -1 2 5 4 -5 0
1532260921996712 3 -5 0 -6 -21 -13 -12 1
1532260922019651 -17 -13 -6 -5 -9 1 2 0
1532260922145316 0 -9 -3 -1 0 -14 -20 -6
1532260922192190 0 5 6 -4 -18 -8 6 2
1532260922231086 0 12 -1 -7 -2 -10 1 1
1532260922281950 0 -11 1 1 0 4 -39 3
1532260922460472 -3 5 -7 0 -1 6 9 -5
1532260922494382 1 17 6 5 -8 6 -2 -3
1532260922515325 -1 -25 -4 4 -3 7 -19 -3
1532260922528291 -5 -10 -3 17 18 5 10 0
1532260922582147 -1 20 7 -1 7 3 -2 5
1532260922673940 -11 -18 -2 -4 -18 -12 -14 -25
1532260922716824 -2 -11 -9 -1 3 -1 6 1
1532260922763700 4 -2 -14 -7 -9 -6 3 4
1532260922814563 -2 -2 -3 1 -6 -4 0 -6
1532260922881385 -2 -33 -12 -2 -13 -27 7 -2
1532260922950201 1 24 1 -5 0 11 3 4
1532260923048950 6 48 12 4 7 2 18 6
1532260923114761 -3 -12 -13 -9 -21 -4 11 -4
1532260923159642 -3 5 0 -8 -10 -5 -3 0
1532260923196542 46 25 1 -5 -63 -46 -5 -3
1532260923340158 -7 -5 -10 2 32 13 12 12
1532260923404995 -5 14 11 4 47 39 -13 -5
1532260923526675 -5 -11 -7 -8 -16 -21 -14 -15
1532260923677257 -2 15 14 5 14 -10 8 0
1532260923894675 3 20 2 -4 -2 -2 10 10
1532260923903665 -2 8 1 -4 11 21 8 3
1532260923939555 -4 13 2 11 -14 -18 -7 -22
1532260924014355 -2 10 1 4 -18 -7 2 12
1532260924044276 -1 9 2 -7 8 12 1 0
1532260924158968 -1 -1 -6 -4 14 -7 -13 -6
1532260924254713 -1 -1 3 -1 -37 -22 -1 5
1532260924388399 -2 30 12 1 -5 -4 -3 1
1532260924406350 0 -6 8 -2 5 15 11 -2
1532260924410339 -2 -10 -9 5 14 14 4 -8
1532260924479155 4 -19 -7 -1 6 10 4 -4
1532260924524035 7 -36 -8 -9 -9 -1 2 11
1532260924614792 -1 -4 4 2 -12 -27 13 -1
1532260924638732 1 9 9 -11 -12 -9 4 3
1532260924718515 -2 -5 1 2 5 17 10 -2
1532260924759406 -8 6 5 6 32 34 -12 9
1532260924838194 -1 -8 -3 2 19 5 0 -6
1532260924879085 -1 -8 -2 3 8 -2 -6 4
1532260924988792 -1 -30 -3 -1 5 0 -1 11
1532260925199229 -1 -15 -5 -1 -24 7 -7 -1
1532260925222174 0 -9 -1 0 -26 -31 -4 -1
1532260925260067 0 -22 5 0 -34 -5 7 1
1532260925311928 -1 20 3 8 -7 -17 -3 4
1532260925362792 -1 -26 -6 4 6 4 8 2
1532260925424626 -3 15 3 2 11 2 1 -5
1532260925470504 -3 -15 1 14 5 0 -12 -25
1532260925500424 0 -12 -3 -1 9 2 7 6
1532260925536327 1 0 -1 5 11 17 8 11
1532260925546317 -4 1 0 -2 5 12 11 3
1532260925560264 1 -7 -4 -1 16 23 -3 -6
1532260925581208 1 -2 0 -2 9 11 17 7
1532260925634069 1 -5 -1 -7 -19 -4 2 3
1532260925678952 0 44 11 0 28 57 8 0
1532260925709869 3 2 -4 -8 14 18 0 0
1532260925777688 -2 -12 -12 9 -8 -13 -2 -4
1532260925799629 0 -18 -5 -4 -8 -8 -10 -1
1532260925895430 -2 -10 -3 -9 -14 -4 -3 -2
1532260925941307 -3 -5 -2 0 -2 14 -10 -11
1532260926001147 0 2 2 -1 23 17 -17 -6
1532260926025083 -2 0 -1 -3 10 -2 -3 6
1532260926068965 -4 0 -2 1 1 -4 -7 -5
1532260926135787 -1 -8 -3 0 -3 6 -3 2
1532260926150747 0 -1 3 4 15 5 -6 0
1532260926263445 4 11 -1 -2 -9 4 24 4
1532260926277407 -7 -5 3 -4 -9 -8 -5 -2
1532260926323285 -1 6 -4 0 4 2 -13 3
1532260926392123 2 22 16 9 -14 13 -3 -2
1532260926423048 -2 -1 -1 0 -13 -15 -4 -8
1532260926517787 -2 -12 -2 -5 16 -11 -5 0
1532260926563665 -1 1 -4 -8 -4 -27 59 12
1532260926600567 -1 -2 2 -8 9 5 -14 -1
1532260926692321 1 0 1 6 11 3 -2 -1
1532260926714263 -1 1 -1 2 16 33 -1 0
1532260926767121 -2 -8 -4 3 15 19 -7 -6
1532260926818982 1 -12 -9 -5 12 10 2 -1
1532260926865857 -9 0 3 -4 -16 -1 -3 -2
1532260926953623 -4 34 6 -1 21 -16 -6 -8
1532260927017452 -20 -4 0 2 -79 -22 -5 0
1532260927032412 3 -19 -4 -7 26 -15 -8 3
1532260927078288 6 3 1 -3 -5 -6 10 0
1532260927129153 14 53 7 -14 9 4 -10 -8
1532260927248843 -4 -12 -8 0 9 5 2 -1
1532260927273766 -20 -5 -4 -25 -1 2 12 4
1532260927380481 28 16 -5 12 -1 39 2 -17
1532260927523100 -18 -36 -2 7 -9 2 3 5
1532260927563990 -6 -13 -5 -14 -6 13 8 1
1532260927584934 10 3 3 -1 -7 8 13 13
1532260927801355 -14 -4 -1 -1 36 26 11 27
1532260927840252 13 -6 -5 -13 -16 -22 -30 3
1532260928044705 0 4 -1 -3 16 -2 0 -1
1532260928067643 -8 -2 1 9 -9 5 0 -3
1532260928110528 -10 0 -27 -21 -5 -2 -7 7
1532260928116512 1 21 4 6 -1 -2 -10 2
1532260928161393 -1 25 12 41 0 -5 -4 -4
1532260928221233 1 -2 -2 -6 -12 -16 -6 -3
1532260928254148 0 -43 -6 0 19 21 3 10
1532260928299025 1 10 1 1 25 5 -1 0
1532260928342908 -2 6 -1 -7 -10 -30 -7 -2
1532260928386790 -5 0 -7 -8 27 3 -6 -4
1532260928446630 0 -2 -2 5 12 28 3 -1
1532260928498491 1 0 -3 -7 -3 -30 -4 -3
1532260928589248 8 -1 -2 0 -14 -11 -6 -5
1532260928603211 -3 -4 -8 -6 -7 8 5 -8
1532260928657067 2 5 -2 -3 -5 -11 -4 -4
1532260928685990 5 2 -1 -1 -22 -2 -2 -4
1532260928798688 -5 -2 -1 0 6 1 -2 0
1532260928829605 -5 -1 -3 -2 0 8 4 10
1532260928872522 3 -1 0 0 -3 -1 7 -3
1532260929018133 -1 -1 1 0 0 -3 -2 -4
1532260929039077 1 0 -2 -2 -1 -3 -1 -8
1532260929054036 -1 0 -1 -1 1 -2 1 6
1532260929076975 1 -1 -1 -1 0 -1 -3 -2
1532260929226575 -2 0 0 -2 0 1 -3 -2
1532260929271455 3 -2 -1 0 1 -1 1 -1
1532260929339275 -1 0 -2 -2 -1 0 -1 0
1532260929406130 -7 0 -1 -1 -1 -1 -4 -2
1532260929571687 -7 -1 -2 -1 -1 -2 -1 -5
1532260929701340 -4 1 -1 -3 1 -1 -2 -1
1532260929707324 -5 -1 -1 1 0 0 -2 -3
1532260929917779 1 -2 -1 -1 -1 1 0 0
1532260929932721 1 -1 -1 -1 -1 1 0 2
1532260929953665 -1 -2 -2 0 -1 1 -2 0
1532260929976604 -1 -2 -1 0 0 -3 0 -1
1532260930088317 -1 1 -1 -1 -1 -1 0 -3
1532260930148145 -1 -2 0 -3 3 -3 1 0
1532260930172082 -1 0 -3 -4 11 30 3 -1
1532260930262838 -1 3 5 0 -2 -7 -1 -1
1532260930327665 3 5 7 27 8 -15 6 2
1532260930398476 -2 -3 -7 -8 -7 -7 -2 0
1532260930419419 -1 -1 -8 -8 1 -6 -2 -10
1532260930508182 0 1 -1 -3 -1 0 0 5
1532260930532119 0 -2 -1 -1 -2 -5 -8 2
1532260930568022 1 0 -2 1 -3 -5 2 2
1532260930665761 -1 13 -1 1 0 -4 -31 3
1532260930726598 1 1 -3 0 -17 3 -10 16
1532260930839297 7 2 4 5 1 51 8 26
1532260930877195 0 -1 0 2 5 12 14 -3
1532260931018817 24 12 7 -1 -11 12 6 21
1532260931072673 -9 -14 0 2 19 -9 -8 -49
1532260931094614 -8 22 6 6 0 -47 -25 35
1532260931119548 49 17 0 4 28 87 24 42
1532260931135505 12 7 1 -42 13 20 39 -33
1532260931161435 -26 -11 -15 -32 15 2 -67 -69
1532260931176395 -1 14 -5 -14 -15 -31 -7 1
1532260931190358 14 -25 -4 5 -66 -46 -61 -16
1532260931236235 -14 -12 1 18 -6 4 8 26
1532260931260171 7 37 0 -9 10 3 8 -21
1532260931304054 -8 -32 -9 -3 -20 -6 -14 -39
1532260931395809 16 -4 10 21 36 20 -14 31
1532260931439692 25 -15 -4 -8 9 13 13 -17
1532260931506513 -7 23 24 -2 0 7 14 -1
1532260931562364 -27 6 7 -22 -11 -1 17 -17
1532260931628188 -7 -32 -12 -36 -18 3 19 -4
1532260931651126 -13 -12 -1 3 -4 2 11 5
1532260931672079 0 -1 -2 6 4 1 24 6
1532260931687030 3 -22 -7 -1 0 -8 13 0
1532260931716950 3 -6 -4 -4 -1 23 9 1
1532260931730912 -4 -1 -4 -3 -5 4 14 -3
1532260931768812 -1 -4 -1 4 31 -5 14 1
1532260931790752 1 2 -2 0 -17 -4 3 -1
1532260931837627 -2 -2 -5 -10 -7 6 -33 -6
1532260931859569 -2 2 -4 -9 -45 4 -11 -5
1532260931927387 2 -1 -1 0 10 -60 -8 -2
1532260931979249 -1 -3 -2 -1 -7 -9 9 1
1532260932049062 -2 -1 3 3 -1 -11 2 0
1532260932091947 0 -2 1 1 -31 9 -5 -3
1532260932137825 -3 -6 -5 -2 46 12 -7 -3
1532260932160763 1 3 1 0 -18 19 5 4
1532260932212640 -1 -7 0 -4 16 15 1 -1
1532260932229580 -2 -3 -2 2 34 -32 -7 -1
1532260932242544 -2 1 -1 -2 4 27 3 0
1532260932255517 16 0 -1 -3 7 -7 -3 1
1532260932302384 -4 -3 -2 0 -6 -8 1 -2
1532260932386162 -1 -1 -2 0 -9 -19 -3 0
1532260932520800 4 1 0 -1 -5 -15 -1 2
1532260932549723 5 -3 -1 0 7 10 -2 0
1532260932579643 0 0 -1 2 0 6 -2 -1
1532260932592608 -2 0 -1 -2 -2 0 2 1
1532260932691344 -2 -2 0 2 -11 10 10 0
1532260932714283 -3 0 1 2 13 -5 -2 0
1532260932804043 0 2 -3 -2 1 -4 3 -1
1532260932833963 -1 -2 -1 -3 -1 -2 -4 -2
1532260932879840 0 -1 -2 -2 1 7 -3 1
1532260933029441 -1 0 -1 -2 -2 -1 -2 -2
1532260933051381 -2 -1 -2 -1 -1 -5 0 0
1532260933066341 -1 -2 -1 0 -1 -6 4 -1
1532260933112219 -3 1 10 35 0 2 -1 0
1532260933181035 1 1 -2 -21 -31 -8 -1 -2
1532260933314678 -4 1 31 1 10 8 7 -21
1532260933353574 0 1 10 14 17 -6 1 -3
1532260933360555 -3 -5 -10 -7 12 7 7 5
1532260933411419 0 -9 -4 -1 -70 -26 -3 0
1532260933433360 -1 20 -8 -4 -6 -22 -4 -3
1532260933509158 -2 -19 -8 -4 13 41 3 -1
1532260933541072 -1 44 -5 -1 12 -34 -8 -1
1532260933613877 4 12 10 12 -3 -16 -6 -1
1532260933636816 -2 -11 -4 -2 -81 2 1 2
1532260933713610 -1 24 5 3 11 1 1 -2
1532260933780432 -67 -80 -4 1 -6 -15 0 0
1532260933871190 4 15 4 -4 19 -4 -6 -3
1532260933942997 4 41 11 -1 -27 2 -1 1
1532260934108555 -7 -33 -8 -2 20 6 0 -7
1532260934170389 -3 -17 10 8 4 8 2 3
1532260934207302 14 34 -7 -6 -10 -2 -3 4
1532260934252170 1 -14 -4 2 3 3 12 -8
1532260934357887 3 50 3 0 -2 1 -3 -3
1532260934500506 -2 36 -3 -2 12 16 2 -1
1532260934529429 1 25 -4 -9 0 -3 -1 -2
1532260934658085 14 0 18 3 1 -7 -3 -2
1532260934702965 -4 -25 -1 9 -9 4 0 2
1532260934726901 -1 -21 -11 -5 -4 -11 26 8
1532260934746848 2 4 -4 -2 4 -23 -6 0
1532260934783749 -2 -43 1 -4 3 -16 -8 -1
1532260934935343 0 18 5 -2 -9 3 -1 -1
1532260934958282 0 12 -3 0 -29 -3 4 -2
1532260935004160 0 -49 -5 1 -20 22 0 0
1532260935023109 -1 5 -1 3 -3 6 1 1
1532260935128826 0 -7 4 -2 -6 1 -2 -2
1532260935228559 -3 2 3 -4 -8 -6 -5 -3
1532260935294384 -9 -13 -5 -4 0 9 13 -3
1532260935347242 -5 -47 -22 -8 -1 2 5 -5
1532260935468917 -1 -57 -4 4 -6 1 10 6
1532260935551695 -17 17 -2 -3 4 -17 -20 -9
1532260935834938 0 -2 0 2 -19 4 -2 -2
1532260935938661 3 2 6 22 -8 19 14 5
1532260936096239 0 3 7 22 -11 -9 -12 -3
1532260936135135 1 4 2 9 -13 -18 6 1
1532260936157076 -1 -4 -3 -4 7 -1 2 -1
1532260936186997 2 -3 -2 -4 -74 -14 -8 2
1532260936376490 -1 5 -2 -5 -32 -10 3 0
1532260936405413 -2 2 -2 -4 32 16 -4 -2
1532260936434336 5 6 -9 -5 -23 -6 4 6
1532260936681674 -1 -14 -4 -8 7 2 -14 -13
1532260936706607 -3 -16 -5 0 -63 -24 -20 3
1532260936855223 -3 2 -2 -3 1 31 21 -1
1532260936931007 -1 -5 -11 -15 -20 -15 -3 -1
1532260936944976 7 6 5 15 12 20 9 14
1532260937011791 -3 -3 -3 -6 -5 -7 -3 -8
1532260937048692 -2 -4 -2 2 -3 -9 0 -5
1532260937259130 0 -7 0 4 2 18 8 -1
1532260937274090 2 4 4 3 0 -14 -4 3
1532260937363850 0 -2 1 -1 -4 -2 -6 -1

1532260937493503 0 2 3 3 15 -13 2 2
1532260937679007 -2 1 -2 0 13 18 17 -1
1532260937725893 -1 -7 -1 1 10 23 1 -1
1532260937754813 2 0 -2 -1 -7 13 -3 1
1532260937814644 2 6 1 0 -7 9 -1 -2
1532260937827609 -3 -5 -4 -8 7 17 3 -1
1532260937851545 0 -4 2 3 -5 -2 -3 -1
1532260937874484 -3 -1 -1 -3 0 1 1 0
1532260937897438 -1 -1 -2 -3 6 6 0 0
1532260937935337 0 -3 -1 -1 -4 -24 0 0
1532260937957278 -1 -1 -1 -3 -9 -8 0 1
1532260937972237 -3 -3 -2 0 7 7 4 -1
1532260938017117 -3 -1 -3 -7 10 10 1 -2
1532260938069976 -1 -2 0 1 -7 -5 -3 -1
1532260938114866 -1 -2 0 -1 -1 -2 -1 -1
1532260938196637 -2 -1 -1 -2 2 -1 0 -1
1532260938217581 -1 -2 -3 -3 -7 -1 -1 -2
1532260938240528 -1 -1 -1 -2 1 0 -2 -1
1532260938310800 -1 -2 -1 -1 0 -2 0 0
1532260938331730 -2 2 -1 -1 1 0 -1 -1
1532260938429469 -2 -1 -1 -2 -1 -1 -2 -1
1532260938451410 -2 -1 -1 -1 -4 0 -1 -1
1532260938520227 0 -1 -1 0 0 -1 0 -1
1532260938589044 -2 0 -2 0 -2 1 -1 -1
1532260938645890 -1 -1 -2 1 -1 -1 -2 0
1532260938744626 -1 -1 3 9 9 5 2 1
1532260938879266 0 -2 -1 1 -12 -1 2 -1
1532260938931127 1 -3 -3 -4 -7 0 -1 0
1532260939030860 -1 2 0 10 -1 -3 -16 0
1532260939050807 0 -12 -6 -13 -28 -1 2 0
1532260939074743 -1 -13 -3 -2 -5 -2 -3 1
1532260939121618 -1 5 0 3 -1 -2 -2 1
1532260939156525 -1 -2 -4 -7 2 -2 3 1
1532260939179463 0 -4 -1 1 -4 -12 -1 -2
1532260939201405 0 -1 -1 4 9 11 -4 -3
1532260939223346 -2 0 0 -3 -1 0 0 0
1532260939261245 -4 -4 -3 -2 -5 -7 -6 -14
1532260939277202 0 -2 -3 -12 -7 4 -9 -2
1532260939397880 0 1 0 0 -8 -1 -1 -5
1532260939420817 0 -2 1 2 -2 -8 0 21
1532260939449741 -2 -4 -1 -1 5 2 -25 -11
1532260939456722 -5 -5 -3 -3 8 5 15 9
1532260939492724 1 1 1 -1 -5 -10 12 -5
1532260939509681 -14 -10 -1 -1 -6 -18 -11 -21
1532260939539600 -2 2 2 24 9 -40 -25 -31
1532260939584479 -1 -2 -3 -7 -2 -3 32 28
1532260939629360 -1 1 -2 -4 -4 17 -17 -23
1532260939651300 3 4 0 -3 -4 -14 -24 -23
1532260939673241 -9 -1 -6 -3 -8 17 -24 -13
1532260939742058 -13 -1 -5 -11 2 32 12 -4
1532260939901631 33 1 -1 -2 8 33 -18 4
1532260939906617 11 -3 2 -4 -6 -18 -9 -23
1532260939965460 -11 13 4 0 -12 -24 -54 -66
1532260939999369 -18 9 0 -4 5 -1 27 39
1532260940003359 2 -7 -9 -10 -11 -25 -4 -11
1532260940021311 -18 -2 -2 6 4 -3 -28 -15
1532260940057214 -7 -4 -3 -14 -7 9 -22 -25
1532260940078159 -3 -6 0 -1 8 -2 10 7
1532260940116057 -11 -2 0 8 19 7 -25 11
1532260940176904 -17 -3 -2 -7 -8 4 14 -25
1532260940276628 8 15 -1 12 3 -6 -22 16
1532260940296575 6 -10 -10 -4 8 13 -4 34
1532260940379353 -17 -24 -7 -7 36 6 30 7
1532260940471108 -33 -11 -7 4 6 -19 -8 5
1532260940486068 -4 -15 -12 -10 17 -7 -1 3
1532260940528953 -12 11 -4 6 34 12 -7 -28
1532260940553896 13 -12 -2 0 -3 1 8 4
1532260940565854 -9 -28 -10 -8 -21 -26 -2 -2
1532260940590788 -4 -22 -13 -7 -10 -11 5 5
1532260940603753 -3 -8 -4 0 -2 -1 1 0
1532260940633673 1 0 -2 -2 -5 11 0 -6
1532260940695508 0 5 7 0 -2 4 -3 0
1532260940716451 -3 2 3 3 5 -16 5 -3
1532260940763326 2 2 2 0 -19 -2 1 3
1532260940786267 -2 -1 -1 -1 1 5 -6 -4
1532260940868046 3 7 -2 0 -23 -24 0 0
1532260940883006 0 3 -1 -3 -4 -10 -3 -3
1532260940948830 1 0 -1 -6 -2 -23 0 2
1532260940987726 2 6 3 5 17 12 -1 2
1532260941040585 -8 0 8 15 -17 7 2 -1
1532260941063523 0 0 0 7 5 -10 1 2
1532260941085465 0 0 1 7 9 9 6 3
1532260941108403 2 -1 1 19 16 -1 3 1
1532260941121369 -3 2 4 7 2 -5 -6 -2
1532260941143310 0 -3 -1 1 -4 -22 -5 0
1532260941158269 0 1 -2 4 2 -7 -4 -1
1532260941181209 1 0 3 5 -1 8 3 -1
1532260941220105 0 -2 -1 -2 4 13 2 -1
1532260941249027 1 -1 -2 -1 -1 -15 -1 -1
1532260941271969 3 -2 -2 -1 1 -7 -1 0
1532260941278947 -3 -2 -2 -2 0 -22 4 -1
1532260941316846 -4 -4 -6 2 4 3 0 -3
1532260941338788 -2 -1 -2 -4 -3 7 -4 -1
1532260941363721 -2 -1 2 1 1 15 1 -2
1532260941385662 0 1 2 0 0 -5 -2 -1
1532260941399625 -3 -1 -1 0 0 -3 -2 -1
1532260941444505 -1 -1 1 1 -2 -5 -2 -1
1532260941481406 0 0 -1 -2 1 -4 1 1
1532260941504345 -1 -3 -1 -2 -2 -27 -4 -1
1532260941619043 -2 0 -1 -1 0 5 -6 -1
1532260941663932 -1 -2 -1 0 1 11 0 -1
1532260941677880 0 0 0 0 -1 0 1 -1
1532260941720766 1 0 0 1 0 3 -1 -3
1532260941744702 -2 0 0 -1 -1 -4 -6 0
1532260941811523 -1 -1 1 0 -1 5 4 -1
1532260941825486 -1 -1 -1 1 1 10 2 0
1532260941880339 -1 0 -1 0 -2 4 -1 -1
1532260941943177 -1 -1 0 -1 0 2 2 0
1532260941956136 -2 -2 -4 -3 1 10 -1 0
1532260941978082 -1 1 1 -4 -1 -18 3 0
1532260941992094 -3 -2 -2 0 1 17 -2 -2
1532260942022015 -1 -1 -1 -3 1 2 -7 -2
1532260942067891 -2 -3 -2 3 6 -13 -6 -2
1532260942103794 1 2 -3 10 11 9 -3 -1
1532260942173609 -1 3 -5 13 8 1 1 1
1532260942195550 -1 -3 -9 -20 9 -7 -3 -2
1532260942246413 0 6 1 -3 -10 -3 -4 2
1532260942321235 -2 15 2 -3 -23 12 3 0
1532260942381053 1 4 -1 -2 9 -4 -5 -1
1532260942441890 -1 -20 3 3 52 18 4 3
1532260942493753 -3 5 0 1 -32 -10 2 -2
1532260942541624 -2 8 7 9 8 8 -14 -5
1532260942548606 1 -15 -5 -3 6 5 6 -1
1532260942606451 1 20 8 9 -9 15 0 5
1532260942699203 -2 -3 -7 -6 13 -47 2 0
1532260942705187 0 2 4 1 5 21 1 1
1532260942744082 0 -3 -6 10 12 18 -5 -1
1532260942749070 -1 -9 -3 -1 -15 -9 -2 0
1532260942780984 -8 -19 -12 -4 11 7 0 -4
1532260942808910 -1 -2 3 1 -42 -8 -7 -5
1532260943010370 -9 -5 -21 5 11 22 -6 -3
1532260943063229 0 -15 -2 -9 0 -6 5 -5
1532260943124067 7 -14 17 3 0 -8 6 6
1532260943259704 -5 72 12 0 -1 1 -1 0
1532260943274665 -1 -17 0 2 2 -13 -3 -1
1532260943327522 -5 -21 -11 -1 11 6 0 -5
1532260943438253 -13 19 6 -5 -10 -12 -3 -4
1532260943486098 2 5 6 5 5 -7 -1 1
1532260943537966 -1 -15 -2 0 2 2 -5 0
1532260943701523 -1 54 4 -2 5 2 3 1
1532260943776323 4 -10 4 -2 -9 -4 -1 0
1532260943860099 -1 13 7 8 2 -2 -3 -1
1532260943941879 -2 55 -11 -7 -3 -12 -9 -4
1532260944071534 -30 -30 -4 1 -2 -4 4 -10
1532260944347795 0 11 -9 -1 1 1 2 0
1532260944468471 -1 -37 0 -5 7 2 0 -1
1532260944475452 1 1 4 -5 0 -10 -3 0
1532260944573192 1 -10 -2 0 -1 -3 6 -15
1532260944579175 5 3 -3 -1 2 -3 -4 -2
1532260944623070 -2 -5 -6 -4 0 -26 -4 1
1532260944713815 -3 9 -2 -4 5 13 1 1
1532260944736754 -7 -23 -9 4 1 -12 2 -2
1532260944791607 2 22 3 -4 11 0 6 -2
1532260944941224 0 9 5 -6 8 9 7 0
1532260944968136 2 -3 -1 -4 6 16 3 0
1532260945006034 -2 -2 7 19 10 4 -2 0
1532260945148653 -5 -12 -13 -33 14 -19 -25 -8
1532260945231431 -7 -6 -7 -17 -2 6 -11 -5
1532260945299250 1 -1 1 5 -12 3 -3 -1
1532260945354103 0 -1 -1 2 14 -4 4 1
1532260945463810 9 -1 2 8 -6 -19 -15 -1
1532260945532626 -1 46 2 1 -20 16 17 3
1532260945557559 2 -16 3 -10 -43 -25 -15 -2
1532260945564541 -2 -4 -3 -1 -9 -8 -2 -4
1532260945599447 13 -4 -5 -4 -24 3 -3 -3
1532260945644327 -15 -1 -3 5 30 24 3 -3
1532260945665271 -1 -1 -4 -1 -1 -10 -3 12
1532260945743064 -6 -5 -5 -1 28 4 5 -8
1532260945781971 4 -1 0 2 21 1 -6 -6
1532260945786946 7 -1 0 -3 -20 -8 4 -1
1532260945841799 6 -3 -3 -4 -7 -22 -3 2
1532260945854766 1 -1 -2 0 24 6 8 -6
1532260945913607 2 0 -2 3 25 -2 3 6
1532260945975442 2 1 0 1 15 2 4 4
1532260946019325 -2 0 -3 0 -3 -2 5 2
1532260946026306 -10 0 0 -2 -4 -11 -1 -4
1532260946081159 -4 -2 -5 -2 -8 -1 -1 -3
1532260946103100 7 17 4 -2 -13 -6 -9 -40
1532260946130028 -9 -8 -23 -10 -3 -10 6 9
1532260946153964 6 7 -8 -2 -3 -14 -1 -10
1532260946190865 -8 4 7 0 -2 10 -12 -7
1532260946214802 0 21 1 -2 0 9 -1 -2
1532260946268657 -3 3 -3 -2 1 9 -6 -18
1532260946290600 -1 -17 -2 5 4 1 1 -13
1532260946397314 -2 54 0 -4 -1 -8 2 -8
1532260946425239 2 1 1 1 -1 4 2 7
1532260946460146 0 -3 -5 6 -4 -6 -6 -4
1532260946490066 -1 0 1 11 15 -1 2 -2
1532260946544919 -1 -2 -2 -10 2 1 1 -2
1532260946612737 -1 -2 -2 -1 1 -2 1 1
1532260946656621 0 -1 -1 -8 -14 -2 -2 0

1532260946753361 0 2 -6 -3 7 -2 2 2
1532260946890993 1 1 2 0 -23 -24 -6 -1
1532260946897985 0 1 -2 -1 1 -10 0 0
1532260946910940 0 3 0 -2 32 11 4 0
1532260946933878 -5 -14 -3 -2 -8 16 15 8
1532260946956818 0 35 -2 1 -10 -6 3 0
1532260947055554 0 -7 4 16 14 12 -1 -2
1532260947099436 -2 -33 -2 4 22 19 -11 -1
1532260947167254 -3 -13 -4 -7 -10 1 5 1
1532260947182214 -3 -1 1 -4 -48 -1 -4 3
1532260947206166 -22 0 -6 -6 -73 -15 5 -8
1532260947233079 0 -20 -2 -5 14 -4 -2 -1
1532260947367719 -5 -10 4 10 9 -11 -12 -14
1532260947473437 -4 6 1 -4 -19 30 0 -18
1532260947504353 4 -21 -6 -4 -18 -27 -7 -4
1532260947519313 6 -5 4 -1 6 3 16 8
1532260947542252 8 3 1 -5 14 -20 23 12
1532260947699833 -1 29 -1 3 3 -7 -5 9
1532260947712796 -3 -2 -3 -8 -50 -16 -9 -13
1532260947766669 -3 8 5 1 8 -31 6 3
1532260947863410 -3 -2 1 13 42 31 -13 -1
1532260948200509 -5 -3 -4 2 1 -3 -3 -10
1532260948255363 -1 0 -4 -11 -26 -12 -5 -12
1532260948328177 0 -2 -4 -4 -9 -27 3 1
1532260948464037 0 -3 -2 -1 -15 2 2 -2
1532260948523877 -1 -3 -6 -6 -19 -8 -13 -4
1532260948591696 -2 -5 -3 -3 16 -5 -9 -4
1532260948635579 -2 1 1 2 -1 3 0 -1
1532260948658517 0 -1 1 3 3 -2 -1 -1
1532260948780192 1 0 0 2 13 -5 -2 1
1532260948824074 -1 1 3 4 0 6 0 1
1532260948878927 1 2 -5 -6 0 5 5 1
1532260948920816 1 2 4 6 8 7 4 -1
1532260948944752 -1 2 -1 6 -5 -3 1 1
1532260948965695 -3 -3 -3 -8 -10 -7 -6 -6
1532260948980656 1 -6 1 5 6 -1 3 4
1532260949026547 2 0 -3 -7 -10 1 5 1
1532260949041493 -1 -2 -5 0 5 3 -10 -4
1532260949093355 -1 1 1 4 2 -4 3 -3
1532260949158180 1 2 2 -1 2 -3 3 8
1532260949178128 -2 -1 2 15 5 -2 0 -8
1532260949200070 -2 0 0 -6 -12 -7 -18 -8
1532260949244949 -1 3 2 -1 -6 -6 -14 -5
1532260949348672 -4 -3 -4 -5 4 0 -9 -15
1532260949359642 2 1 1 -3 -2 -3 3 -8
1532260949397541 -1 2 1 0 3 -23 -12 18
1532260949447408 -1 1 -2 -2 -2 24 16 4
1532260949461383 0 -7 -2 -1 -3 7 7 21
1532260949553125 1 0 -2 0 -13 3 -16 1
1532260949568085 -1 1 3 3 17 -6 24 16
1532260949612965 -1 0 2 3 0 51 10 1
1532260949785503 33 3 6 3 -3 25 -3 89
1532260949829386 -4 27 1 4 -36 14 9 0
1532260949874266 -25 -2 -1 4 9 -9 -1 -19
1532260949943082 -4 -5 2 -1 10 21 51 37
1532260949986965 28 -10 -1 6 7 -3 -31 4
1532260950031845 9 -6 5 -4 14 -7 -23 -16
1532260950189439 -22 -10 1 -11 -4 -14 74 -14
1532260950211364 7 12 -2 7 1 -20 -65 -40
1532260950233307 4 -26 -13 -12 14 24 30 -14
1532260950266218 4 -9 -7 -15 -6 -5 22 9
1532260950317082 -2 15 8 10 -27 -8 -17 -38
1532260950369941 -9 -8 -4 -4 -3 -7 9 0
1532260950429782 0 1 1 1 2 17 -1 4
1532260950474661 2 7 2 3 3 30 -7 3
1532260950543477 -4 -3 -3 -2 -7 5 -6 0
1532260950566415 3 1 4 2 3 -3 0 -1
1532260950588357 -5 -10 0 -7 -1 -7 8 1
1532260950609303 -1 2 -1 -6 -55 -64 -5 -3
1532260950638223 1 -1 -5 -11 -38 -16 -12 -1
1532260950797797 -1 -4 -3 1 17 24 3 0
1532260950822730 -3 -4 -1 -4 77 97 -4 -3
1532260950836692 -4 -1 0 -6 28 17 3 1
1532260950870602 -3 0 2 -3 -34 -15 -4 -3
1532260950920468 2 2 -6 -6 5 1 0 2
1532260950985295 -4 -2 -2 -3 -1 -11 7 -2
1532260951076053 1 -3 -3 -4 3 12 6 0
1532260951097994 -16 -2 -2 2 0 17 3 -4
1532260951126917 0 -2 -1 0 -2 -2 0 -2
1532260951172794 1 -1 0 -2 -3 1 2 0
1532260951195733 1 -1 1 -4 0 -1 -3 -3
1532260951241610 0 -3 -1 0 -1 -12 0 -1
1532260951286496 -2 -3 -2 -2 -1 -3 -2 1
1532260951308431 -2 -1 -1 0 -2 -8 -8 -4
1532260951330373 15 -1 -1 0 2 5 0 3
1532260951366276 -4 -2 -2 -4 -1 7 5 2
1532260951389216 -3 2 -2 -1 1 0 -2 -2
1532260951517871 -1 15 -1 -2 -1 -5 7 1
1532260951628575 1 -7 1 -2 0 -3 7 -2
1532260951668469 3 -1 -1 -2 -2 -7 -7 -1
1532260951681434 0 1 1 1 -5 -22 1 -1
1532260951711354 -2 -7 -7 -22 1 21 2 0
1532260951726313 0 2 6 -5 -4 -2 -3 -1
1532260951749252 -4 -8 -16 20 -2 7 2 3
1532260951772192 0 1 7 14 69 23 8 2
1532260951802111 -8 23 14 1 -1 -22 0 0
1532260951810090 8 5 29 5 -33 -5 -2 6
1532260951846991 -2 -13 5 -27 -18 -16 -53 12
1532260951945727 -2 -8 -8 3 32 1 5 -5
1532260952074383 2 28 -1 -1 -6 -70 1 1
1532260952237946 1 -24 -8 -1 -4 4 -1 -2
1532260952258890 2 -14 -9 -16 -11 -6 -14 -2
1532260952280831 2 -22 -1 -4 8 -4 0 1
1532260952333690 -4 -21 3 4 0 -21 -3 1
1532260952371589 -2 -8 2 0 -8 39 1 -1
1532260952418462 0 12 7 4 -45 -8 -2 0
1532260952486282 -2 -9 -3 -6 9 -20 -4 -3
1532260952506228 -1 41 4 5 -1 3 -1 -1
1532260952535151 0 -25 -7 0 1 -1 3 0
1532260952574047 -62 -21 -7 14 -7 -4 -11 -12
1532260952602969 -59 -21 -12 -20 -7 -1 -7 -23
1532260952672783 3 3 -1 -1 5 22 0 1
1532260952694724 -15 -18 2 5 -34 7 5 -4
1532260952722650 6 11 7 0 7 5 7 1
1532260952733620 1 -9 -1 5 11 -21 -3 -2
1532260952763551 -3 26 0 18 -10 13 3 0
1532260952778500 4 5 0 -8 6 14 5 1
1532260952814404 0 -2 5 1 26 -12 2 1
1532260952828377 2 -47 1 6 34 20 3 3
1532260952888208 10 66 11 -3 -23 10 2 4
1532260952933087 -1 -4 -9 -2 -6 0 2 5
1532260953039801 12 67 -11 2 -3 -12 -10 -1
1532260953114602 0 -64 2 -1 5 0 1 0
1532260953174441 0 1 3 -6 -54 -21 1 0
1532260953242260 0 7 0 -3 23 -37 -5 -1
1532260953334015 4 16 -3 5 14 13 0 1
1532260953354962 -8 5 9 5 14 6 -2 -2
1532260953390862 -3 6 -12 -7 0 -6 0 -2
1532260953450703 1 -10 -10 0 6 3 2 -1
1532260953506553 0 4 2 -2 -4 0 3 1
1532260953564399 13 1 1 -4 -1 6 2 36
1532260953573375 -51 -2 -5 3 1 5 12 33
1532260953595316 11 -10 -3 -4 -3 -20 -8 -12
1532260953608281 2 6 5 4 1 -7 10 -5
1532260953631219 -5 -2 -3 0 25 14 3 3
1532260953677097 0 20 -1 0 -3 6 -9 -4
1532260953698041 -16 -25 -13 -7 -1 -8 -11 -10
1532260953758879 1 6 6 1 -21 -3 -8 -4
1532260953865593 4 0 1 1 -12 11 0 1
1532260954037134 -3 -36 -6 -6 6 27 0 -1
1532260954381214 -2 -2 -2 -15 -6 -9 -9 -4
1532260954443049 3 3 1 5 -6 0 3 1
1532260954510868 0 -11 -3 2 6 4 12 2
1532260954660467 -1 -6 -3 -14 -60 -41 2 1
1532260954705348 -3 -4 -3 -3 7 2 1 0
1532260954723299 -1 -3 1 4 48 -7 -7 -1
1532260954757209 15 -3 4 -2 -23 -2 3 9
1532260954802089 -4 -4 -3 -1 30 25 4 -2
1532260954892846 -2 6 -1 2 -1 9 4 -1
1532260954952686 0 0 -1 -4 -10 3 1 0
1532260954983603 -2 0 -2 -6 -15 -6 -1 -2
1532260954998563 -2 0 -3 -1 -17 2 0 0
1532260955064388 -6 -4 -3 -3 -2 11 -22 -6
1532260955080344 10 5 3 5 43 17 -2 6
1532260955103284 -6 -1 -7 -15 -16 -25 -2 0
1532260955184067 2 4 6 3 1 15 -10 -6
1532260955213987 5 2 0 -1 0 3 6 7
1532260955259864 0 -1 -7 3 5 0 -6 -1
1532260955280809 -2 -5 -3 -3 0 20 -5 -3
1532260955341646 -1 6 4 4 5 9 1 -4
1532260955386525 -2 -1 -6 -7 5 -16 -6 -4
1532260955401486 2 5 -6 -4 -50 -24 0 2
1532260955440382 0 -3 -2 -5 15 8 -1 0
1532260955471301 -1 -2 4 3 20 10 0 0
1532260955499225 2 1 -3 -2 15 -3 -1 -1
1532260955538128 0 1 -6 -12 1 -2 -1 -2
1532260955581005 -2 -3 2 4 -3 -1 -1 -2
1532260955595967 -2 4 14 26 -3 5 3 0
1532260955618905 1 0 -7 -13 -12 7 -4 -1
1532260955657801 -1 2 -3 9 -5 -4 0 -1

1532260955678745 -2 -5 -1 -7 -12 -5 0 -2
1532260955738602 -2 1 -4 -6 -1 -7 -3 -1
1532260955750553 -1 -4 -3 -4 5 6 -6 0
1532260955786457 0 1 -3 -2 -3 1 2 2
1532260955829342 -1 -1 4 14 24 15 2 0
1532260955858265 -1 1 -1 -1 17 -10 -5 -1
1532260955911138 -1 -1 -3 2 2 14 0 1
1532260955949022 -3 -1 -1 -9 -9 -13 0 -2
1532260956000882 -1 -2 -2 -2 2 0 -1 -2
1532260956085657 1 2 -1 0 3 0 -1 -3
1532260956091648 -1 0 0 -2 -6 -3 1 -1
1532260956135523 -2 -1 0 0 -2 -2 0 0
1532260956181400 0 -1 0 -2 2 -4 -1 0
1532260956234259 -2 -2 -1 -1 2 1 -1 -2
1532260956271168 0 -1 -1 -1 1 -1 0 0
1532260956338979 1 0 -1 -1 0 0 -2 -1
1532260956368899 -1 1 -1 1 -4 -5 -2 0
1532260956480600 0 0 -1 -1 0 0 -1 1
1532260956588341 -1 -1 -1 0 -3 -1 -2 0
1532260956684056 2 0 -3 -3 -1 0 1 -1
1532260956827672 0 -2 -5 -7 -10 1 -1 -1
1532260956880530 -2 -2 -1 -5 -7 -3 -1 -1
1532260956933389 -1 4 -2 -3 -9 -3 -2 -2
1532260956940371 -1 -3 -2 0 -4 -2 -1 0
1532260956969293 -1 -3 -5 -2 -2 2 -2 0
1532260957023149 -2 -2 -7 1 9 2 -1 -1
1532260957044094 1 -4 0 0 -3 2 11 5
1532260957066035 1 2 1 -3 -3 1 3 3
1532260957163773 -2 2 2 -2 -1 9 -8 -2
1532260957195688 -2 -1 -2 0 -6 -10 -1 3
1532260957253534 2 7 1 -1 0 -15 7 -3
1532260957309384 -2 1 -1 1 0 -18 -7 0
1532260957458984 -1 -2 1 -2 11 21 -13 -16
1532260957644488 -26 -48 -10 -10 -8 -35 -9 -5
1532260957757186 11 21 -4 -2 7 -9 26 -38
1532260957764168 -18 -2 -8 -10 -11 -20 -23 -56
1532260957787107 -5 6 7 10 -34 -14 -52 -8
1532260957846946 -10 -10 2 -3 -11 3 24 -73
1532260957876867 11 11 -1 7 -7 -5 27 67
1532260958049405 -9 -6 4 15 24 -5 12 64
1532260958065362 -4 12 0 21 -16 6 12 7
1532260958100269 -3 13 6 4 14 0 10 6
1532260958130190 0 9 10 25 -18 -18 14 19
1532260958244882 3 42 3 -3 -17 5 19 -27
1532260958290760 -31 -4 -12 -20 -19 3 13 58
1532260958312716 21 -13 -3 -7 -1 9 -60 50
1532260958336637 0 -8 -5 -4 -3 -8 13 -8
1532260958356584 0 -1 1 5 3 12 -14 -16
1532260958377528 -5 -17 -9 -12 4 4 4 7
1532260958409443 2 27 2 4 5 15 -1 -1
1532260958446344 -8 -42 -2 8 2 9 14 -4
1532260958477260 5 57 7 0 -4 -55 0 10
1532260958568018 1 1 2 -2 -5 -1 3 -2
1532260958590956 0 -5 0 3 -3 11 2 0
1532260958605921 0 3 0 -2 0 -3 2 2
1532260958656781 -2 -3 -1 -5 -1 -3 3 -2
1532260958662773 0 1 -2 -4 1 16 -3 -1
1532260958755517 -3 -2 -1 3 3 -3 -1 -3
1532260958793415 -1 -2 0 4 6 10 -5 -1
1532260958815366 -1 -6 0 4 -16 9 1 -1
1532260958875197 -1 -2 3 18 -8 -36 -12 -4
1532260958922082 1 2 5 15 2 1 -4 0
1532260958943016 -3 -6 -7 -37 -12 -3 2 -1
1532260958987895 -4 -2 0 -9 -1 8 3 3
1532260959032775 0 0 -1 -1 2 3 0 -1
1532260959078662 0 0 -3 -4 -7 -2 -1 -3
1532260959123533 -3 -3 -3 -2 -2 15 5 -1
1532260959128520 -3 -1 1 4 9 -2 -5 -2
1532260959159437 3 -3 -4 -10 -6 -3 0 -3
1532260959198333 4 -1 0 -3 3 7 0 -1
1532260959205314 -2 0 -2 -5 -3 -5 -4 -2
1532260959311031 1 0 2 5 0 -1 3 -1
1532260959407772 -3 -1 -1 -9 -8 -6 -2 -1
1532260959422733 -13 -3 -4 -7 -8 0 -6 1
1532260959444674 1 0 0 -5 -11 -7 0 -2
1532260959451656 0 -1 -3 -2 2 0 1 1
1532260959465617 1 -1 0 7 -1 0 0 0
1532260959513489 -1 -1 0 1 -1 -10 -2 -2
1532260959541415 0 0 -1 -5 -4 -2 1 -1
1532260959564355 -1 -1 1 1 4 9 3 1
1532260959693009 -1 0 1 3 0 2 -2 -1
1532260959721933 -2 -1 -2 -9 0 -4 2 -1
1532260959751853 -1 -2 -3 0 -12 -1 -2 -2
1532260959774791 -3 -3 -1 7 8 -10 -4 -3
1532260959796737 -1 -1 -2 -1 -5 11 1 -2
1532260959896466 2 5 20 10 -5 -3 2 0
1532260959983233 0 -8 -2 8 42 17 4 1
1532260960052050 -3 0 -3 7 -9 -8 -6 0
1532260960102913 -3 4 1 7 0 -21 1 -1
1532260960233565 3 61 16 -3 -105 -19 2 0
1532260960255506 -2 -6 -6 -8 -19 -20 0 0
1532260960292422 -1 -2 -4 -14 -11 11 2 -1
1532260960306370 -3 1 0 7 7 8 4 1
1532260960352247 -2 12 2 0 -10 3 -1 -3
1532260960463948 3 4 12 3 78 40 1 -1
1532260960510824 2 -14 -3 -6 -5 -19 -2 0
1532260960550721 10 6 -10 -7 7 18 6 3
1532260960591607 -5 -25 -11 -1 -3 7 4 1
1532260960688371 2 -13 -2 -1 -17 11 12 4
1532260960765166 -3 -1 -2 -7 2 7 -7 -5
1532260960779128 2 9 3 8 1 -3 -2 -3
1532260960867891 -5 0 -1 -5 -8 3 -3 -6
1532260960968622 5 -34 -2 9 23 -4 -3 -1
1532260961035444 -2 -40 -18 -5 3 1 -11 -2
1532260961050403 -2 -11 -7 -9 -10 -26 -4 -2
1532260961094286 1 0 7 7 4 6 4 0
1532260961108248 2 -10 4 -2 -3 0 -6 -2
1532260961131187 -2 -10 -10 1 1 -3 -3 -1
1532260961145150 -5 7 -6 -2 -5 -13 9 0
1532260961177064 -3 -22 -7 -4 21 -12 -11 -2
1532260961268820 2 3 7 -2 2 -10 -4 0
1532260961328659 -8 62 11 1 3 -10 1 0
1532260961370547 -2 30 -6 -3 -2 -1 -4 -2
1532260961394483 -1 -30 4 6 9 0 1 0
1532260961439364 3 -14 -7 -14 -1 -1 -2 0
1532260961491225 1 -3 2 4 16 -9 -2 -1
1532260961516158 -4 -9 -7 -1 -8 3 2 1
1532260961588964 -2 15 1 -8 -19 -18 -9 -5
1532260961596941 3 45 -6 -6 18 6 2 0
1532260961619881 -2 -5 12 0 3 1 -2 1
1532260961649801 -1 20 -8 -3 4 0 2 -2
1532260961656782 -3 15 0 14 -5 -5 -4 -2
1532260961670744 -1 -18 5 -3 11 15 -1 -1
1532260961694681 -3 3 6 -2 6 26 6 0
1532260961754521 0 -14 -8 -9 -3 -20 1 -1
1532260961813363 2 -8 -8 -2 7 -7 0 1
1532260961854269 0 -43 3 -15 -9 -8 -6 -3
1532260961875198 -3 23 5 11 21 -10 7 19
1532260961956979 4 11 4 -2 -2 12 -3 -1
1532260962062696 -5 -11 0 0 -4 0 11 2
1532260962130515 -7 -54 0 2 6 0 8 0
1532260962147470 2 7 1 -1 7 -25 2 -1
1532260962190362 -2 -18 -6 -6 13 23 0 0
1532260962287097 -2 -24 -11 -9 -8 17 -6 -9
1532260962362894 2 5 3 -1 -42 -10 6 1
1532260962488558 -1 -6 1 -7 -19 -17 -10 -4
1532260962548398 1 1 2 -4 -8 -14 -7 -1
1532260962579325 -1 -3 -5 -10 -3 -3 10 1
1532260962617213 -1 -3 -4 -10 10 22 22 4
1532260962669076 -1 4 -2 -11 -11 -17 1 -3
1532260962708969 -2 -1 -1 1 -7 13 2 -2
1532260962728915 -2 -8 -1 0 -41 -40 6 -2
1532260962791747 -2 2 -5 -14 -14 16 -4 -2
1532260962810696 -1 5 -2 -1 19 0 -10 -2
1532260962939367 -2 -5 -2 -1 1 -1 10 0
1532260962965282 1 -2 0 7 54 -3 0 -2
1532260962986235 -3 -6 -2 2 34 -22 -4 -4
1532260963008168 0 12 5 -7 -62 -9 -1 -4
1532260963031107 -1 -3 -2 -6 -32 -31 1 -1
1532260963036093 -4 19 -4 -1 43 8 4 -3
1532260963111890 -3 -6 -2 -7 11 -30 -15 -4
1532260963126850 0 -7 6 9 8 6 -2 0
1532260963262488 1 3 -1 -5 18 0 1 1
1532260963313352 0 0 -1 4 20 16 5 0
1532260963508829 1 -5 -1 6 9 3 1 6
1532260963555704 -2 -21 -4 4 -4 -17 -1 -5
1532260963681367 0 12 4 0 -3 0 3 8
1532260963695331 1 7 -7 -2 -3 -3 1 2
1532260963789080 -8 7 1 8 -22 -2 -2 -1
1532260963839943 -5 -11 -4 -5 5 4 1 -2
1532260963943667 -2 -4 -4 0 -3 -10 -1 -4
1532260964072329 0 1 -1 -2 -7 6 3 -1

1532260964132163 -2 -3 -3 -1 -8 -8 -2 1
1532260964184023 -1 -1 -1 -2 -10 -5 0 0
1532260964371526 -1 0 0 -1 3 -2 0 -1
1532260964431362 0 -1 0 1 1 1 0 0
1532260964462280 0 0 0 1 -1 0 0 -1
1532260964529101 -1 -1 -2 -1 -2 -3 -2 1
1532260964583954 -1 0 -1 -1 -1 0 -2 -1
1532260964604898 -1 -4 -1 0 -2 -1 1 -1
1532260964665370 -4 -3 0 -1 -1 -2 -3 -1
1532260964678335 1 0 -1 0 -1 0 0 -1
1532260964709252 0 -1 0 0 0 -3 1 0
1532260964732191 0 -1 -2 -2 0 0 1 0
1532260964762111 -3 -1 -3 -1 -1 -1 0 -1
1532260964806991 1 -1 0 0 0 -1 -2 -1
1532260964836911 -2 0 -1 -2 0 -1 0 -1
1532260964859850 -3 -1 -1 -2 -1 -1 -1 -1
1532260964904730 -1 -2 -2 0 -3 -2 -3 0
1532260964926671 -1 0 0 1 1 -1 -1 0
1532260965009450 -1 -2 -3 -2 -1 -2 1 -1
1532260965031391 -2 0 0 1 -1 -2 -7 -2
1532260965152076 0 -2 -1 -2 0 2 0 -1
1532260965167035 -1 -2 -3 -2 -1 0 1 0
1532260965187985 0 1 1 -1 -1 0 1 -1
1532260965217900 -1 -1 -1 -1 -2 -3 -2 0
1532260965265772 -2 -2 -1 -1 1 3 -3 -3
1532260965286716 0 0 -3 2 -1 -2 -2 -1
1532260965301684 -3 -1 0 -2 0 0 0 -4
1532260965324614 -1 -2 1 -3 -1 -3 -2 -1
1532260965346556 -2 -2 0 -1 0 1 0 0
1532260965384454 1 0 -1 -2 1 3 -13 -2
1532260965437317 -4 -1 1 0 -2 -2 1 -1
1532260965451275 0 -2 -2 -2 -3 -3 2 1
1532260965482193 0 0 -1 -2 1 0 0 -1
1532260965497153 1 -2 -1 0 0 -1 1 -4
1532260965527073 0 -2 0 0 1 -2 1 0
1532260965586913 -1 0 -2 -1 -1 3 -1 -2
1532260965646752 -3 -4 -7 -7 -21 -20 -11 -4
1532260965669692 -1 0 0 -8 -8 12 -1 -1
1532260965707590 -1 3 0 -3 3 6 1 -2
1532260965720556 -2 -4 2 -10 -25 -24 -5 -2
1532260965783387 -1 0 0 5 3 17 2 2
1532260965818295 2 -30 3 5 10 1 -10 0
1532260965857190 0 8 5 0 2 -3 1 0
1532260965878135 -1 4 -6 -5 -2 2 -2 -2
1532260965911047 -3 4 -4 -2 0 -2 2 -1
1532260966014769 -1 -1 -5 -5 -2 -3 -1 -1
1532260966039703 2 16 5 -2 2 1 6 3
1532260966061647 -3 -4 -1 2 -2 -2 -2 0
1532260966083585 -2 -5 -1 -1 -1 -1 0 -1
1532260966097548 0 16 2 -1 -2 -1 -1 -1
1532260966127468 -3 -11 -1 -5 0 -3 -1 -9
1532260966149409 0 5 2 1 1 1 4 -2
1532260966171350 -4 -7 -7 -5 -4 -5 -3 -8
1532260966202267 0 11 1 7 1 -1 -11 -1
1532260966247147 0 -3 -4 -4 -6 -2 6 6
1532260966272081 -1 10 4 3 0 -3 -5 -10
1532260966294038 -1 -6 0 0 1 9 10 4
1532260966314966 -2 -5 -3 1 -5 -17 -3 -3
1532260966320950 -2 -5 -3 -4 -5 -11 -2 1
1532260966382785 2 0 5 11 -6 8 3 1
1532260966418688 -1 -5 -4 -13 -9 0 -8 0
1532260966442625 2 -1 3 8 12 3 2 -4
1532260966460577 -2 -2 -1 2 0 -6 -9 -5
1532260966615163 -4 -3 -3 -4 -3 1 -21 -26
1532260966651067 0 -1 -1 -6 9 -2 18 -3
1532260966669035 -2 0 1 0 1 -54 -34 -24
1532260966688966 -8 -7 -5 -2 2 -29 12 -1
1532260966719883 -3 -1 3 2 4 60 10 4
1532260966734849 0 1 0 1 -4 -19 -15 22
1532260966808646 4 -3 -4 -12 -3 15 -1 6
1532260966847542 -5 1 -1 0 3 13 -12 -21
1532260966893419 -1 1 -1 4 6 -12 -26 -11
1532260966916358 -3 2 -2 -10 -19 -1 -22 3
1532260966938300 -7 -7 -3 -5 -15 -2 1 -12
1532260966973207 -1 -1 0 6 -4 8 -21 46
1532260967012102 3 -16 -1 -18 -10 30 -11 43
1532260967034043 8 -10 -3 -15 9 -7 29 -9
1532260967085905 -6 -4 -4 -5 1 1 -66 -6
1532260967177659 -14 -14 -8 7 0 -45 -6 -1
1532260967193616 7 3 -2 -16 -16 -1 -16 -7
1532260967214561 0 -9 -1 -4 3 36 27 28
1532260967243483 6 0 -4 -8 0 3 10 -9
1532260967291363 -7 16 3 -3 1 2 23 -25
1532260967334241 -5 24 3 15 2 17 -37 12
1532260967357180 -3 -13 -14 -19 8 -23 2 35
1532260967402067 -4 30 -14 -12 -26 -22 -11 -25
1532260967469878 -40 -43 2 -7 -13 1 -9 -2
1532260967591552 0 -2 11 14 -19 1 30 43
1532260967679318 -4 1 6 9 -8 -21 -3 -17
1532260967702257 5 -21 8 1 -8 5 4 -4
1532260967748134 -2 -28 -7 3 -6 0 6 1
1532260967769079 -5 1 2 3 26 12 -8 -5
1532260967783040 -7 -23 -5 -3 -4 0 -4 -1
1532260967813957 -2 7 6 7 17 43 1 1
1532260967844875 3 1 0 -1 -24 -18 -10 -2
1532260967888771 0 5 6 1 3 -38 2 -1
1532260967934635 -3 -3 -5 -7 -34 -2 2 -2
1532260968009435 0 -3 -4 -7 28 -28 5 -3
1532260968041363 1 4 3 -4 -49 -32 -18 -6
1532260968054315 -6 -8 -4 -1 53 31 -2 -3
1532260968077254 2 1 5 9 -63 37 13 1
1532260968154049 2 2 2 -1 -3 -47 -1 -1
1532260968220869 0 0 0 -2 -10 -15 -4 1
1532260968235834 -2 -2 1 -3 7 14 6 -1
1532260968304645 -1 -1 -4 -2 10 -6 0 0
1532260968318609 2 1 2 -2 -28 -13 -3 1
1532260968339552 2 1 -1 -2 0 6 -5 -2
1532260968400390 -3 -3 -3 -3 2 -1 -3 -3
1532260968446274 0 -1 0 0 -3 3 1 -1
1532260968473195 -2 -4 -2 -1 2 -2 -2 -2
1532260968514085 -1 -1 2 -2 0 1 -1 -2
1532260968588886 -1 1 -2 0 4 0 -2 -3
1532260968617808 1 -2 -1 -1 -4 -4 -2 -1
1532260968678646 1 0 0 0 -1 4 -5 1
1532260968790347 0 -1 -3 -1 -1 -4 3 -3
1532260968813285 -2 -2 -2 -3 -4 -2 0 -2
1532260968835227 -1 -1 -1 -2 -2 -7 -2 -3
1532260968873126 -1 -3 -2 -3 0 6 7 -3
1532260968896064 1 2 -1 1 -1 -5 -1 1
1532260968931968 -3 -2 0 -10 -5 -29 -4 -3
1532260969022726 -3 -5 -4 6 21 4 4 -3
1532260969120463 -2 -4 -29 -25 -37 2 -2 -2
1532260969173323 -4 -2 -5 -2 22 -11 -25 0
1532260969195264 0 -21 0 -8 -7 -9 -4 0
1532260969298987 0 2 -3 -4 -78 -13 -4 0
1532260969352843 -4 12 -2 -9 -7 1 1 -3
1532260969359838 1 -17 -8 -1 1 26 2 -1
1532260969405704 -3 -8 0 7 27 23 -10 -5
1532260969426645 -3 5 0 -1 -29 -11 -7 -3
1532260969458559 1 -24 -12 -10 -56 -40 -17 -2
1532260969531365 -6 10 -15 -1 -2 -4 -13 -4
1532260969561285 -3 -6 -5 0 25 -20 -3 -4
1532260969690939 2 30 13 0 -12 -7 -6 -2
1532260969697920 -1 18 5 -3 -18 -8 -1 -2
1532260969718863 -2 5 6 8 1 11 -3 1
1532260969787679 -3 11 4 -5 5 -1 -3 -1
1532260969909356 -4 -8 -2 -1 -5 4 -4 -3
1532260969923317 -1 8 9 4 -19 -3 -16 -4
1532260969997120 -1 15 4 -3 -16 13 -4 1
1532260970131760 -11 24 -1 0 5 -2 -4 -3
1532260970251439 -1 -4 1 3 12 -10 8 -3
1532260970282357 -5 1 -6 -6 10 14 -2 -2
1532260970341200 0 3 -2 -7 -31 -8 3 0
1532260970381092 0 27 -1 1 19 18 -5 -1
1532260970418991 0 64 2 -8 -13 -22 -2 -3
1532260970500773 -3 -21 2 2 4 -1 -4 -2
1532260970583552 4 6 -2 -5 7 1 -12 -1
1532260970641397 -4 -8 -2 -1 -2 -31 -2 -4
1532260970776036 -2 -2 -4 -1 12 15 3 0
1532260970882752 0 5 -7 0 -2 -10 1 -2
1532260971070250 0 -2 -2 -1 -3 -7 -6 -8
1532260971122133 -1 -7 -3 0 16 6 5 2
1532260971136074 -2 -5 -2 -1 -11 10 9 1
1532260971195914 13 24 6 0 -7 -11 4 3
1532260971331552 -9 -62 -8 2 24 -14 -9 -3
1532260971444250 -5 -61 -11 -4 -19 -22 6 0
1532260971572906 1 0 3 12 -20 -34 2 -2
1532260971617786 -1 -7 -5 -4 13 4 0 -1
1532260971640724 -4 1 5 16 29 -2 12 -1
1532260971647706 -1 2 1 -3 -34 2 8 1
1532260971661681 2 -9 -1 12 8 12 3 1
1532260971728490 -6 0 -3 -1 -3 19 -7 -3
1532260971916985 -4 3 4 3 -5 -2 -8 -2
1532260971930948 -1 0 2 8 -17 19 7 2
1532260971960868 1 6 2 1 30 39 0 -3
1532260971992795 -14 4 -4 -10 -48 -67 -3 -7
1532260972016720 22 -7 -1 4 55 26 -1 -10
1532260972070575 -3 -6 -3 -2 -50 -9 6 -1
1532260972111466 -5 1 1 2 28 30 -7 24
1532260972203220 -27 1 -4 -3 -6 -11 -3 -33
1532260972225162 -9 3 -3 -3 -16 -25 7 -2
1532260972241119 4 10 -2 0 -18 -25 -2 5
1532260972306943 -1 5 -5 -1 25 -25 2 -2
1532260972374762 -6 21 1 -1 -1 15 0 0
1532260972397701 -6 -5 -2 -2 -20 -37 -11 -5
1532260972443578 -2 -2 -3 1 0 8 -1 -1
1532260972458538 -5 5 0 5 32 28 10 0
1532260972479482 -6 -4 6 -1 14 -13 0 0
1532260972487460 0 -10 -1 -1 -8 -8 -5 -2
1532260972508404 0 4 -1 0 7 10 1 0
1532260972575226 -9 8 -2 -2 -1 -4 1 -3
1532260972607143 -9 4 2 1 -17 -26 -10 -11
1532260972628085 0 -5 -2 -3 -8 -3 15 2
1532260972756740 -4 -5 -1 -1 -7 -16 -19 -25
1532260972764718 3 4 -3 -1 4 13 4 8
1532260972786660 0 -3 -1 3 4 8 3 8
1532260972809599 -5 -4 1 -2 -3 14 -5 -6
1532260972998095 -2 -3 -9 -16 -7 -5 -3 1
1532260973021034 0 2 -1 -8 -1 12 -5 -1
1532260973040981 0 2 1 5 10 25 5 1
1532260973056938 -2 -4 -4 -2 22 29 -4 -2
1532260973116778 -2 -4 1 -1 -13 -3 -3 -1
1532260973154678 -1 -4 -4 -5 -5 30 -2 -1
1532260973251418 0 -2 -3 -8 -19 -4 -4 1

1532260973298292 -3 2 6 9 5 9 -3 -2
1532260973314249 -3 -5 3 8 10 6 -1 -3
1532260973349156 0 2 -1 2 7 -15 0 0
1532260973415977 -1 -1 1 3 0 5 3 0
1532260973437940 -2 2 1 3 -1 -17 -1 0
1532260973463890 1 2 2 4 1 4 1 1
1532260973476839 -3 -4 -2 0 -7 0 -4 -3
1532260973507753 -3 -4 -1 -5 -3 -4 7 -1
1532260973529694 -4 -2 -1 -2 -8 -2 -5 -1
1532260973588987 1 1 6 1 7 -6 -4 0
1532260973603947 -2 -4 -3 -6 17 12 -1 -3
1532260973686725 -1 -3 -1 -2 2 -2 -1 0
1532260973716646 -2 2 -2 -2 -3 -5 -1 1
1532260973754544 -1 -2 -1 0 -3 1 -2 -1
1532260973762540 -2 -1 0 -3 -5 -2 -1 0
1532260973783492 1 0 -1 0 1 0 0 -1
1532260973809421 -1 -1 -2 0 0 -3 2 0
1532260973820391 -1 -1 -1 2 0 -2 -1 -2
1532260973870258 -2 -1 -2 -3 -1 0 -1 -2
1532260973889208 -3 0 0 -2 -3 1 -2 0
1532260973912150 -1 -1 0 -1 0 0 -2 -1
1532260973927106 -1 1 0 0 1 -2 1 -1
1532260973963010 0 -2 -1 -3 1 -2 -3 -2
1532260974032824 -2 -2 -1 0 -3 -1 -2 -1
1532260974061746 -1 -1 -2 -4 -3 0 0 -1
1532260974091666 -1 -3 -1 1 0 -2 -1 -1
1532260974129565 -1 -1 -2 -1 -1 -2 1 -1
1532260974166467 -1 -1 2 4 -1 -1 0 -2
1532260974189406 -2 -1 -2 -4 0 -1 1 1
1532260974249245 0 1 -1 2 -1 -2 -3 -2
1532260974287143 0 -1 -2 -1 -3 -1 -1 -1
1532260974309085 -1 -1 -2 -2 -1 -4 -1 -1
1532260974340002 0 0 -2 0 -1 -3 0 0
1532260974390866 -1 0 0 -3 -1 0 -4 0
1532260974408830 0 0 -1 -1 4 -1 -1 -1
1532260974442727 -1 0 -3 -2 -1 -2 -1 -1
1532260974451704 0 0 -1 3 -3 1 0 -1
1532260974489602 -2 -1 1 6 3 3 0 -1
1532260974511544 -3 -3 -1 -8 -6 -16 -3 -2
1532260974532488 -2 -1 -4 -11 -4 -7 -1 -1
1532260974579362 0 2 -2 0 -2 5 0 1
1532260974594322 0 0 1 -6 -3 0 -1 1
1532260974617260 -2 -4 -2 2 10 0 0 0
1532260974639217 0 1 0 -2 -1 -2 -4 -2
1532260974645186 0 3 1 -3 -2 1 1 1
1532260974670119 -1 -4 0 2 -5 1 2 -1
1532260974705026 -3 1 2 1 0 1 -2 -3
1532260974721980 0 1 2 -2 -1 1 -1 -1
1532260974751901 1 -2 5 10 0 -1 -2 -1
1532260974781820 1 0 -1 9 4 1 1 2
1532260974811747 2 4 2 6 3 0 1 1
1532260974825703 -2 -2 0 8 -5 -2 0 -2
1532260974872578 -1 0 1 1 -1 0 0 1
1532260974896514 -1 0 0 1 0 -1 0 -1
1532260974940396 2 0 2 3 2 0 -1 0
1532260974977299 -2 -2 -1 0 -1 -1 -1 -1
1532260975013202 -1 -6 3 4 -3 -1 0 -1
1532260975041127 0 0 2 12 -5 4 0 0
1532260975112935 -1 -4 -6 -5 -4 -2 -2 -1
1532260975256551 -2 -3 -6 -8 2 1 0 -1
1532260975285474 -2 1 0 -2 -1 8 4 1
1532260975292455 -1 2 2 17 4 0 -6 -3
1532260975314396 0 -2 -3 -4 -2 0 -15 -3
1532260975338334 -2 -1 -2 -1 -3 -2 4 5
1532260975382215 0 -1 -2 -7 1 0 14 3
1532260975426098 2 1 1 4 0 1 -51 -12
1532260975451031 -1 -1 1 -5 -2 3 -10 -4
1532260975472973 -3 -2 -2 0 -5 -16 -7 -4
1532260975494913 0 -1 -1 1 8 9 -3 -1
1532260975516860 1 1 0 3 -3 -3 -2 -5
1532260975548769 2 -1 2 0 -1 -2 14 11
1532260975567719 -1 -4 -4 -2 5 1 4 5
1532260975660471 1 -1 -2 -2 -2 0 -16 -11
1532260975682412 3 6 2 2 -6 0 -13 -14
1532260975704370 2 -1 -3 -4 -5 6 11 29
1532260975748236 -3 0 -2 -3 -4 54 15 16
1532260975779154 4 2 3 4 4 7 22 -6
1532260975808076 1 1 -2 -6 -10 -71 -36 -12
1532260975832012 7 3 -2 0 9 39 67 58
1532260975913794 -5 3 2 3 -23 3 -38 14
1532260976004550 -5 1 -1 -2 -1 -32 -14 -27
1532260976034471 5 -37 0 -3 15 -3 51 89
1532260976072370 -16 -34 -4 6 13 -3 -39 10
1532260976117250 -6 -6 -10 -17 11 11 23 -22
1532260976133219 8 -1 0 -11 -36 -7 18 42
1532260976214988 -7 -13 -1 0 -2 -2 -30 -15
1532260976236930 -3 5 -3 -7 0 -1 16 -2
1532260976304750 -2 -30 12 12 -13 17 14 56
1532260976325692 -2 20 0 -15 -28 22 74 -18
1532260976350640 -28 -4 -8 -14 5 -10 -75 -84
1532260976425425 -33 -9 1 -15 -7 -11 23 -43
1532260976445372 -6 -5 1 5 -8 -14 0 -22
1532260976493245 1 -1 -13 -5 13 41 94 -2
1532260976516183 -1 -20 -2 14 -6 -12 31 -61
1532260976537127 3 -12 5 13 -6 8 -63 -26
1532260976558071 -6 10 -5 -3 -3 -13 -35 -8
1532260976612938 6 23 3 0 4 31 -15 2
1532260976664785 -14 -14 1 9 6 -6 -13 -25
1532260976702684 -3 -6 -4 -2 -28 -4 7 -9
1532260976919105 -1 2 1 19 6 7 -2 -2
1532260976980940 1 0 -7 -15 9 1 3 -1
1532260976985926 -1 2 4 12 3 -4 -4 -1
1532260977001884 1 1 0 -5 -7 -16 -2 -2
1532260977039782 -2 2 2 -3 -4 -20 -3 -2
1532260977075687 0 -1 0 -8 7 -12 -3 -2
1532260977099622 -1 -2 0 2 0 0 5 -2
1532260977213318 -1 0 1 -7 6 11 2 1
1532260977235260 -1 0 1 2 -5 8 1 -1
1532260977281138 0 1 0 1 -2 -1 -4 -1
1532260977302081 -3 -2 -1 -12 -3 5 -3 -1
1532260977338982 0 -1 1 6 2 4 3 -1
1532260977357932 -2 0 -2 -1 -1 -2 -2 -2
1532260977378879 -1 0 0 0 -6 -5 -2 -1
1532260977400817 0 0 -1 0 -2 1 0 -1
1532260977445697 0 0 -2 -1 -2 -1 1 -2
1532260977467639 -2 -1 -2 -3 -2 0 -2 -1
1532260977511521 -2 0 -1 3 2 0 -1 1
1532260977543436 -1 -2 -2 -2 2 -3 -4 -2
1532260977588316 -1 -1 -2 -4 -1 -13 -9 -4
1532260977610272 -1 0 0 4 -1 0 1 -1
1532260977720961 1 -2 -1 -2 -3 0 1 -1
1532260977745895 -1 0 -1 -1 0 -2 4 -1
1532260977775815 -1 0 -1 0 1 -10 -3 0
1532260977843634 3 5 3 -7 -1 6 2 1
1532260977865574 0 0 -3 -14 3 13 1 -1
1532260977902475 -1 -2 0 30 -14 -18 -4 -3
1532260977946359 -2 0 -6 -5 1 -7 6 1
1532260977953340 0 -4 -2 15 -7 7 -3 -1
1532260978000214 2 5 -3 4 16 1 -2 0
1532260978023156 -1 -2 0 -3 -54 -66 -6 -4
1532260978059057 -1 -2 -5 -4 36 -4 -2 -2
1532260978073020 1 7 2 -4 -22 -48 -3 -1
1532260978118897 1 -18 -1 -5 -33 9 -1 0
1532260978132860 -3 19 -6 -3 -52 -55 -3 -1
1532260978180732 -2 -24 -5 -1 54 18 2 1
1532260978203687 -1 12 1 0 10 -7 2 1
1532260978240571 -2 -61 -16 -2 36 21 1 -2
1532260978263510 0 14 -6 -8 6 18 1 0
1532260978284455 0 -16 -2 -3 17 -7 3 -2
1532260978299414 1 16 1 -2 0 19 -8 0
1532260978322353 2 -16 -2 5 -10 0 2 0
1532260978344294 0 -9 4 -10 -6 9 13 3
1532260978367233 -2 0 -4 -3 -2 21 -2 -5
1532260978412113 2 -15 7 6 45 19 3 0
1532260978465969 0 -41 2 -7 -19 50 -14 -4
1532260978524812 -12 -39 -14 -3 -23 17 -4 -6
1532260978547750 3 35 7 0 5 -10 2 -1
1532260978568694 -2 -25 0 0 5 -8 11 2
1532260978599612 6 51 10 -2 34 4 -14 -2
1532260978652471 1 -3 3 1 17 -3 5 -2
1532260978698348 -4 -1 -1 6 -46 -5 -20 -3
1532260978756193 -1 9 -2 -1 0 -3 -9 -3
1532260978783121 -1 -7 0 -1 -5 -2 11 0
1532260978826006 -15 15 -8 -4 31 26 -1 -3
1532260978831990 19 73 -1 1 -3 19 -2 1
1532260978899808 -7 -44 9 8 -5 -4 -1 -1
1532260978965633 10 -5 -6 -8 -51 7 5 5
1532260978974609 -5 4 15 14 0 11 -4 2
1532260979005528 -5 -32 -6 2 1 -1 -2 -2
1532260979057387 -1 -6 -5 -14 6 34 -6 -1
1532260979110246 -2 19 4 -4 -8 -14 -1 -1
1532260979163105 -4 2 0 0 11 13 -7 -4
1532260979199009 -3 -13 -3 -3 -11 -42 -18 -4
1532260979385510 -2 -19 1 -4 0 6 -5 -1
1532260979404459 -5 36 31 9 -4 5 0 -1
1532260979485243 0 12 3 -1 -8 -16 -2 -1
1532260979664769 -1 -3 0 2 -10 -16 3 0
1532260979694683 0 7 4 1 -60 -35 -4 -3
1532260979761505 5 23 0 -10 -5 -17 -4 -1
1532260979779457 10 64 11 0 9 -16 0 3
1532260979846278 -11 -21 -16 -6 -7 0 -4 -9
1532260979866224 4 -6 -5 -9 1 11 0 1
1532260979912102 -6 -1 -6 -3 0 6 1 1
1532260979971942 1 13 0 -2 2 8 -1 0
1532260980054734 0 -20 -10 -4 -1 -2 -6 -3
1532260980075664 2 11 11 2 1 10 13 1
1532260980128523 4 -6 5 4 9 13 7 3
1532260980155451 -4 65 -6 -4 2 26 -1 -7
1532260980176395 2 -33 0 -1 27 -18 11 -4
1532260980195345 2 36 -6 -16 -21 9 8 1
1532260980206315 -1 -30 -13 -4 -2 18 1 9
1532260980229263 -2 -13 -4 -2 -3 10 -6 -11
1532260980249200 1 4 4 0 20 -19 24 4
1532260980294080 2 -1 -1 2 8 11 16 4
1532260980324000 5 3 10 11 25 21 0 1
1532260980369878 4 3 0 -9 -2 1 7 6
1532260980526459 -2 -3 -3 -11 30 -4 -6 -3
1532260980566353 -1 2 7 32 2 17 3 -1
1532260980811696 -6 -10 -5 -3 -67 1 -16 -6
1532260980835632 0 9 -7 -6 39 22 -1 -2
1532260980873531 1 10 -8 -10 -30 20 -10 -1
1532260980933371 2 1 1 2 43 -6 3 4
1532260980999195 -2 2 5 2 13 -1 9 1
1532260981022133 -23 -18 6 -7 -20 -4 0 -7
1532260981090949 0 26 3 -1 -15 21 5 0
1532260981096933 0 1 -6 -6 -1 -3 4 -1
1532260981151787 0 12 -9 -3 -3 4 10 -2
1532260981165750 -4 -9 -3 2 31 6 1 0
1532260981225590 -2 11 -1 1 9 -15 -3 -1
1532260981245536 -2 -6 -2 -6 -24 -9 4 -2
1532260981306374 -3 -2 -1 -3 -2 -5 -12 -6
1532260981347264 -3 -4 -4 0 8 -7 -2 -3
1532260981406107 -2 -5 -4 -2 -1 -5 -7 -3
1532260981448992 0 -2 0 0 -4 48 7 1
1532260981525787 -1 -33 -7 1 41 3 -3 -2
1532260981549733 1 1 -3 2 -43 8 0 0
1532260981599590 4 5 -2 0 10 19 4 10
1532260981659436 1 -2 0 3 1 5 7 5
1532260981816011 1 7 4 4 12 19 0 -6
1532260981872859 5 7 6 13 1 1 12 7
1532260981917739 1 1 6 6 -5 3 -2 0
1532260981930704 3 2 -2 -2 -7 2 6 1
1532260981968603 -1 -2 -3 -1 -22 -21 2 1
1532260982019467 1 1 -2 -4 -18 12 3 -3
1532260982078324 -2 2 -5 -6 -14 -14 -1 -3
1532260982133163 -2 3 4 0 -11 4 -1 -1
1532260982155117 -1 -3 -3 -3 -2 8 -1 0
1532260982192005 -2 -4 -2 0 13 -7 -9 0

1532260982274784 -2 0 2 1 5 4 -2 -1
1532260982290741 2 -4 -1 3 -6 -50 2 1
1532260982334624 -2 7 3 -1 -10 -25 -4 -1
1532260982356565 -1 0 -4 -6 -31 -12 0 0
1532260982378507 -2 -4 -2 -9 -2 -26 -1 -2
1532260982411419 0 -3 0 8 3 13 1 -1
1532260982454319 -1 0 -2 -2 -9 30 4 -1
1532260982505168 0 -1 -1 -3 -8 -10 -1 -2
1532260982529104 0 -2 -2 -12 -14 -2 0 0
1532260982565008 -1 2 0 0 5 -3 0 -1
1532260982574981 -1 -1 0 0 6 8 -1 -3
1532260982611882 -1 0 -1 7 10 7 0 -2
1532260982649784 -1 -2 -1 3 4 0 -2 -1
1532260982678721 -2 -1 0 0 1 0 -2 -1
1532260982769461 -1 -2 -1 1 1 0 -1 -1
1532260982852239 -1 0 -2 -2 1 0 -1 1
1532260982875179 -2 -1 -1 4 3 -1 -1 -1
1532260982956960 -1 -1 -1 1 -1 -2 -1 -1
1532260983031760 0 -2 -1 1 2 0 -2 -2
1532260983114589 -1 -1 -3 -3 -2 1 -1 -1
1532260983129550 -1 0 0 -1 0 0 0 -1
1532260983174430 0 -3 -3 -1 -1 -2 -1 -1
1532260983203354 -2 0 -2 0 -2 -2 -2 -2
1532260983271171 0 0 -1 2 0 -1 0 -3
1532260983323033 -1 -1 -2 -1 -1 0 -1 -1
1532260983375891 -1 0 -1 -3 -1 -2 -1 0
1532260983451689 -1 -2 0 -2 -2 -2 -1 -1
1532260983525492 -1 -1 -2 -2 -1 -3 0 -1
1532260983585332 -2 -2 -1 -1 -2 1 -1 -1
1532260983811737 -4 0 0 -1 -2 -2 -2 -1
1532260983863598 0 1 -2 -1 -2 -2 0 -1
1532260983916457 -1 0 -1 1 0 0 0 -2
1532260984076030 0 -2 -2 -2 0 -1 0 -1
1532260984155818 0 -1 -1 -1 -5 -2 1 1
1532260984456030 0 0 -1 -1 -3 -1 0 -1
1532260984532808 -1 0 -1 2 -4 -3 1 -1
1532260984584670 -2 -3 -3 1 -2 7 11 1
1532260984628553 0 0 -3 -8 14 13 1 1
1532260984675427 -3 -3 -11 -9 -4 -5 -5 -2
1532260984696371 -1 -2 -5 -8 -1 10 -3 -1
1532260984741251 0 0 -2 -2 -2 0 1 -1
1532260984816051 -1 -4 -3 -4 0 0 1 -1
1532260984842979 -3 -6 -4 -4 -1 0 -3 -3
1532260984855950 2 16 -3 -3 4 -1 2 -1
1532260984913790 -1 -7 -6 -7 1 3 -2 0
1532260984952686 -1 -2 -3 -4 -5 -5 0 -3
1532260985020504 2 4 4 3 13 1 -5 4
1532260985110264 -3 -1 -2 3 -4 0 -15 -2
1532260985133203 -1 0 -1 -5 -5 -23 -7 2
1532260985209000 -2 0 0 -1 -1 6 -8 -11
1532260985262856 1 2 -1 -4 1 6 -7 -19
1532260985305741 2 0 1 -4 -2 24 -37 30
1532260985431412 0 3 0 -6 5 -9 38 -18
1532260985479278 18 5 0 -5 -4 -32 -1 -3
1532260985507203 -24 -4 -4 3 -4 37 62 -32
1532260985559065 -12 -18 1 14 16 -6 3 -53
1532260985582003 4 6 1 9 -5 7 4 52
1532260985633864 1 -3 -5 -10 3 10 -15 -8
1532260985711670 8 -33 -1 8 2 7 -36 21
1532260985837320 -2 -13 -2 -5 -3 3 8 10
1532260985957000 -16 -3 2 13 -5 -19 -3 17
1532260985970963 -5 2 -1 -5 3 -12 -43 -42
1532260986000882 -5 -10 -5 -2 6 6 -16 26
1532260986016840 -7 -9 -3 -1 -22 -18 28 -16
1532260986075683 28 -11 26 50 5 -13 -20 37
1532260986122558 10 21 5 -8 -7 -17 -2 32
1532260986206334 -10 4 6 -2 20 -36 -44 32
1532260986228275 0 -16 10 6 1 -38 -76 -23
1532260986340974 -7 13 -2 -2 6 11 6 -3
1532260986353938 -1 32 5 -3 5 -5 -14 -2
1532260986375880 4 1 4 -1 1 35 -6 -2
1532260986519496 -2 3 3 2 2 -2 3 0
1532260986565374 0 -9 -1 1 1 9 0 -3
1532260986621224 -1 1 1 2 0 10 -8 -1
1532260986641171 -1 1 -3 -1 0 3 0 -2
1532260986676083 -3 -1 -1 5 -3 2 -7 0
1532260986694029 -3 -1 -2 -7 0 4 -3 0
1532260986931395 0 0 -2 -6 -2 -9 4 0
1532260986948349 -1 -1 -2 -11 0 -7 -12 -3
1532260987172751 -1 0 0 -9 -5 0 4 0
1532260987196686 -1 0 1 4 4 0 0 0
1532260987239571 0 0 0 0 -1 -1 -2 -1
1532260987336312 -1 0 1 7 2 1 -1 0
1532260987569688 -1 -1 0 4 1 -11 0 0
1532260987741229 -1 -5 -9 -12 23 6 -7 -3
1532260987773144 1 -3 5 -7 -94 -2 -12 -3
1532260987846946 0 -6 0 5 -3 -7 -1 -1
1532260987983581 -4 -3 0 -4 -1 -5 -4 -1
1532260988104258 5 -11 23 14 -7 6 5 3
1532260988171079 -4 -30 1 4 -4 4 1 -1
1532260988215960 1 -4 19 -6 2 -22 2 -2
1532260988238915 2 -12 -4 4 9 0 0 -6
1532260988282781 0 -2 -3 18 35 1 13 3
1532260988295747 3 3 -1 -4 0 -5 -5 2
1532260988394483 -1 -5 2 -2 4 -3 5 -2
1532260988439363 -4 -7 -2 2 -3 11 0 0
1532260988491224 1 -5 2 4 -5 -6 -1 -2
1532260988575000 4 24 17 8 -4 -4 1 -1
1532260988716621 -4 3 5 -3 0 -17 4 0
1532260988769479 -7 -3 -5 -7 0 -40 3 -2
1532260988801394 -3 -22 12 8 -13 -31 -7 -2
1532260988836300 -2 0 -5 0 7 -17 3 -4
1532260988905119 0 19 1 0 -4 11 2 -2
1532260988929062 -3 -4 4 1 7 8 -1 -1
1532260989093613 -3 30 -10 -1 -16 8 -2 -4
1532260989115554 -4 -16 -10 -6 -7 -4 -5 -4
1532260989166418 -2 -20 -1 -3 2 2 -6 -3
1532260989296071 -5 -11 1 -6 -5 -10 -4 -1
1532260989466615 0 2 -3 12 -16 0 -4 -2
1532260989564353 0 -22 -5 -7 0 -1 -1 -1
1532260989594273 -13 30 -29 -8 -5 -9 -1 -4
1532260989639154 -14 -47 -2 -10 0 -4 -3 -6
1532260989692012 -1 -9 -1 1 1 -2 0 1
1532260989901453 9 13 2 2 -7 -27 -20 -6
1532260989924392 -5 -73 5 0 0 -18 -2 1
1532260990043074 -14 -1 -2 -1 9 8 -8 -3
1532260990291410 0 2 -2 -14 -8 -1 -12 -1
1532260990391143 -6 -31 -6 -9 -11 -52 0 -2
1532260990555736 -2 -4 -2 -3 -5 3 14 1
1532260990660460 -4 -12 -3 -5 -49 2 -11 -3
1532260990781126 0 -2 -2 1 -54 10 5 -2
1532260990803067 -2 -12 1 -3 -12 -48 -16 -4
1532260990838971 4 5 1 -6 5 6 -7 6
1532260990968625 -2 -5 7 0 0 -11 -1 -2
1532260991123211 -2 0 -2 -4 11 12 -1 -2
1532260991139169 1 5 -1 -2 7 4 0 1
1532260991169088 7 1 -1 4 -13 -19 -4 0
1532260991222944 0 8 3 5 23 10 1 -1
1532260991290763 0 -3 -2 -4 -1 4 -4 -2
1532260991312704 -1 -3 1 -4 -4 0 -3 0
1532260991334646 1 4 0 -2 6 7 1 4
1532260991379526 -4 -1 -1 -2 -5 6 -3 -3
1532260991447353 4 16 4 8 1 -22 -19 0
1532260991582981 2 2 -1 3 2 10 -20 -5
1532260991612902 -3 -9 -5 -6 1 -2 -7 -1
1532260991633845 0 6 2 -5 -17 -2 -6 -9
1532260991680720 -1 1 5 12 4 2 2 1
1532260991716624 -1 -4 -5 -13 -51 -5 1 2
1532260991746544 1 -2 0 4 6 0 1 3
1532260991755521 -3 -1 -3 -8 5 -4 -3 -2
1532260991792423 -1 -1 0 -4 8 -3 -3 0
1532260991845281 -3 -2 -3 -5 15 0 -1 0
1532260991882181 2 2 2 11 -5 -1 0 -1
1532260991904123 -1 -2 0 -7 -3 1 -1 1
1532260991934043 0 -1 1 4 2 0 1 0
1532260991965957 -1 -1 -1 5 6 -1 -1 -2
1532260991986901 -2 -7 -5 2 6 -1 -4 0

1532260992023815 0 0 -1 -10 -4 -2 2 1
1532260992053723 2 0 2 2 -4 -4 0 -1
1532260992114566 -1 0 -1 -1 -2 -1 0 0
1532260992144485 -1 -3 -1 -2 -1 -1 -6 -3
1532260992166427 0 0 3 9 0 2 -4 -1
1532260992219286 -2 -1 -1 2 6 -2 1 0
1532260992309045 -1 0 -1 -7 -12 0 -1 -1
1532260992368891 -1 -1 -1 -3 1 -2 -3 -2
1532260992435707 0 0 -1 0 1 0 -1 -1
1532260992564363 0 -2 -1 -1 0 -3 -2 1
1532260992649156 -2 1 0 14 -6 1 0 -1
1532260992656127 1 1 -2 -5 0 -1 0 -1
1532260992715957 -2 -2 -2 -1 -3 -2 -2 0
1532260992773803 -2 -4 -1 2 -4 -2 0 -1
1532260992855587 1 0 -1 -3 -11 -2 0 -1
1532260992902459 -1 -2 -1 -2 1 0 -3 -1
1532260992916421 -2 0 0 -2 -9 -1 1 0
1532260993014160 -1 0 1 10 2 0 -1 -3
1532260993074001 -1 -1 3 2 1 2 -1 1
1532260993127856 -3 -1 -2 -9 -1 -2 -1 -2
1532260993277456 -2 1 -4 -1 -1 -1 -3 -2
1532260993299437 -2 0 4 1 -2 -7 -2 -4
1532260993337335 0 2 -1 3 3 0 -4 -1
1532260993352295 -1 4 3 4 1 -1 0 0
1532260993508876 -2 -6 -7 -1 -2 -2 0 0
1532260993538797 -1 0 -7 2 3 7 0 0
1532260993557746 0 -6 -2 -4 -2 1 -3 -2
1532260993743250 -6 -2 0 3 2 4 -20 -18
1532260993809074 1 3 3 8 -5 -13 6 25
1532260993892850 6 3 2 2 13 13 32 0
1532260993908821 28 6 2 1 0 35 15 32
1532260993991586 5 11 -4 -3 -3 -6 -18 -8
1532260994034471 10 -10 -2 -2 -5 -2 -10 -28
1532260994081346 6 -10 -6 -3 14 31 2 11
1532260994124231 14 7 6 12 -5 -10 -4 9
1532260994171106 -10 -8 -3 -3 0 36 27 6
1532260994313725 3 -13 -2 -6 13 29 18 3
1532260994401490 -25 -13 -2 -7 0 15 9 2
1532260994431410 13 -14 -6 -4 -1 17 -27 -15
1532260994500226 -46 6 5 7 20 -9 -3 -4
1532260994567047 -13 54 10 10 -8 -1 -27 -34
1532260994611927 -34 3 4 2 10 10 4 38
1532260994633868 10 25 8 0 5 23 22 28
1532260994664785 48 -18 -6 -6 -43 -25 0 -14
1532260994700690 6 -8 -5 -17 -6 29 -4 -6
1532260994828358 8 -6 2 -5 -12 3 -3 12
1532260994855279 5 -18 -7 1 -15 -7 -43 29
1532260994876237 -5 12 3 0 -6 12 4 -10
1532260994921100 -8 48 20 1 -6 -8 14 -2
1532260994958001 -2 2 3 -2 0 4 -3 -6
1532260995017841 -1 2 -1 -1 0 -12 3 1
1532260995038786 2 5 0 5 12 23 1 1
1532260995113585 0 1 2 -2 -7 -3 -3 -2
1532260995169436 -2 -2 -1 -2 -2 -4 -1 -2
1532260995189384 1 0 -2 8 10 -8 -1 -1
1532260995212321 1 -1 -2 -6 4 6 -2 0
1532260995257201 -1 1 1 1 -4 1 -8 -3
1532260995319036 0 0 4 6 -17 0 1 0
1532260995437719 0 -1 0 -3 8 -5 -2 0
1532260995527479 -3 0 -4 -4 3 -4 -2 -2
1532260995573372 0 -1 -1 4 7 -1 0 -1
1532260995595298 -2 -1 0 0 -1 -1 -2 -1
1532260995640177 1 -1 -2 -8 -4 -1 -2 -2
1532260995686054 -1 -1 -1 1 -4 -3 -1 -2
1532260995728939 1 -1 -2 1 -3 -2 -1 -1
1532260995790774 0 -1 0 -6 -2 0 -2 -1
1532260995872560 -2 0 -2 -3 -1 -2 -1 -2
1532260996069031 -1 1 -1 0 -2 0 -2 -2
1532260996119894 1 0 -2 -4 -4 -1 -2 -2
1532260996149815 -2 0 -3 -16 1 12 -2 -1
1532260996240572 0 -1 3 4 -12 -11 -2 -3
1532260996323351 4 -40 3 8 49 9 2 0
1532260996346293 -1 -15 34 41 -25 -12 -1 0
1532260996555729 1 19 -3 -7 12 -29 0 -1
1532260996683388 -4 -20 -14 6 98 14 -1 -5
1532260996748214 -5 19 9 -5 11 56 0 -5
1532260996890833 1 18 -10 5 3 -7 3 2
1532260996902801 -5 -25 14 1 -42 -15 -15 -5
1532260996981590 0 24 1 -4 3 -1 2 0
1532260997005526 1 0 0 0 -51 -21 2 1
1532260997179062 0 0 -1 1 -41 -8 -2 -1
1532260997201003 -3 -2 -5 -3 -13 -43 -8 -7
1532260997216961 -1 -16 -8 2 -21 -18 2 -1
1532260997325670 3 24 3 -4 -6 -20 3 -1
1532260997455323 -1 -1 2 7 46 15 2 1
1532260997462305 -10 -69 -12 -5 -30 -29 -7 -5
1532260997505192 2 0 5 -18 -20 -5 7 4
1532260997576001 -2 -13 -2 2 29 15 4 -3
1532260997693686 -2 5 -1 14 -62 -28 0 -3
1532260997718619 -3 3 -1 -19 -40 41 -1 -1
1532260997754523 11 69 24 7 -18 -25 0 -1
1532260997793419 -2 66 -36 -9 7 4 -1 -2
1532260997912102 -6 -27 1 4 -17 -4 -2 -3
1532260997927062 -3 6 -3 -5 -17 3 3 1
1532260997993883 -10 -27 -2 4 -3 -4 -9 -5
1532260998031782 1 -5 7 -2 -2 9 8 0
1532260998184374 -8 -32 -14 -14 -33 -54 -4 -7
1532260998205318 -2 -3 0 9 -29 -7 0 2
1532260998273136 1 45 25 -7 -7 -43 -1 -1
1532260998287098 2 51 15 -7 -9 -18 -6 -1
1532260998317019 -6 -23 -13 -19 2 3 0 -4
1532260998429726 0 2 0 -5 -9 -12 -5 0
1532260998572343 1 -5 -5 -1 -7 -4 1 1
1532260998843611 5 -19 -6 -23 7 -3 2 3
1532260998879515 -2 3 -6 -2 -8 12 -1 -3
1532260998961296 -3 -16 -1 1 -3 13 14 -2
1532260999072998 19 54 6 6 6 8 -7 0
1532260999121883 -6 -30 -9 -7 30 11 -1 -4
1532260999143814 -13 -32 -4 -3 -4 10 4 -2
1532260999195676 5 44 -2 2 -2 2 -4 0
1532260999292417 -1 9 3 13 -13 -9 -2 6
1532260999360235 -7 -10 -1 0 15 24 14 -2
1532260999399132 0 10 10 7 49 15 -3 2
1532260999411099 3 5 -2 -3 -13 -2 15 2
1532260999478919 -2 2 -6 -21 -3 11 10 -3
1532260999615554 -3 2 -4 -13 3 1 -1 0
1532260999631510 2 0 3 7 11 11 4 0
1532260999952651 1 -1 1 -7 -22 -7 0 3
1532261000141147 -2 -3 2 16 46 4 -1 -3
1532261000187041 -5 -8 -10 -14 33 21 -3 -3
1532261000207975 1 -12 -1 4 22 22 -1 0
1532261000265814 0 -8 -2 -8 -46 -10 -2 1
1532261000379509 1 0 -1 -4 -77 -46 -13 -2
1532261000424389 1 -2 -1 0 15 -4 -2 0
1532261000468272 0 0 -2 -3 -19 -5 -3 0
1532261000491211 -3 -3 -2 -5 -9 -10 2 -2
1532261000552048 -2 -2 -2 2 8 10 -1 0
1532261000568005 -3 0 -2 -1 -1 14 3 -2
1532261000620864 -2 0 0 3 11 -23 -2 -4
1532261000633829 0 -3 -1 -3 1 18 6 1
1532261000655774 0 0 0 2 -1 -22 2 1
1532261000681702 0 1 -3 -4 -3 -16 2 2
1532261000770464 1 2 0 0 -5 -6 4 4
1532261000843269 2 8 -2 0 1 -4 0 0
1532261001025781 1 11 7 5 1 2 -1 -2
1532261001047723 0 0 -1 1 -3 -1 -1 -1
1532261001063687 -2 -4 -4 -4 -6 -3 4 2
1532261001099584 4 2 -3 -4 6 3 1 1
1532261001136485 -3 0 1 -1 2 1 2 0
1532261001203306 -1 -3 -3 -7 -10 -1 -1 0
1532261001258160 1 -1 2 -4 -6 0 0 0
1532261001286086 -1 -1 0 -4 7 0 -2 -1
1532261001325979 -1 -2 -1 -5 8 0 0 -1
1532261001341937 -3 0 3 2 1 -2 -2 -1

1532261001375845 -1 -1 1 -3 3 -3 -1 -1
1532261001421723 3 9 -3 -4 -1 -1 -4 0
1532261001435685 -4 -5 -8 -6 -4 -2 0 0
1532261001466602 2 0 -4 -1 2 -2 0 2
1532261001511483 -1 13 0 -4 -2 -4 -1 -8
1532261001534421 -12 -28 5 3 -1 1 6 9
1532261001556363 7 -10 -7 -3 -4 -2 0 -2
1532261001602240 -7 15 -6 -1 3 3 9 7
1532261001639141 -2 -38 -14 -9 -1 -5 -14 -9
1532261001812677 9 7 13 1 7 4 8 4
1532261001895455 -9 27 -13 -3 -1 -8 -3 -5
1532261001918394 -18 -74 -34 -7 10 6 7 -5
1532261002133819 -23 -10 -5 -7 26 1 -2 -2
1532261002175713 4 -3 6 13 20 -10 -4 13
1532261002240533 9 12 -10 -7 -5 -5 -8 6
1532261002463936 -10 5 9 11 11 5 6 -2
1532261002511876 -4 6 -7 -21 -26 0 -2 -6
1532261002554772 3 -5 -5 -9 -2 -5 6 1
1532261002726302 -18 -74 -20 -1 -19 -22 -15 -34
1532261002773177 37 56 9 4 -3 -12 8 28
1532261002899838 3 -39 5 10 -2 -5 -1 17
1532261003005556 80 19 24 1 4 -13 2 -30
1532261003028496 22 10 4 0 1 -8 6 7
1532261003133214 6 4 -5 -25 -23 1 3 -1
1532261003199038 2 2 3 13 31 0 -3 3
1532261003321715 -1 -2 -10 -32 -7 3 5 -1
1532261003731636 1 -4 7 -2 -3 -1 -5 1
1532261003912156 -2 -1 -3 -11 -10 -5 -6 -7
1532261003966009 -5 -1 -9 -30 -21 4 6 -1
1532261004033839 -4 -10 -11 -12 -3 -5 4 2
1532261004474714 -3 -24 -26 -6 -4 1 9 -5
1532261004496656 3 -28 -14 -5 -4 -3 20 4
1532261004589408 -2 5 -1 -11 -11 1 0 -9
1532261004610351 7 35 61 4 -2 -8 3 -4
1532261004752970 -1 0 -11 2 1 -1 18 -1
1532261004909551 0 -1 -4 1 0 1 0 -1
1532261004994324 1 5 0 2 -7 -24 -5 1
1532261005007290 0 -1 -6 -1 16 12 7 1
1532261005052169 4 0 -5 -11 -1 13 4 4
1532261005143924 -4 -6 -3 18 60 42 -9 -5
1532261005166863 -11 -11 -8 -2 20 51 -3 -6
1532261005187807 -2 -1 1 3 57 32 3 -3
1532261005222714 0 -2 -1 2 12 28 -1 -1
1532261005254628 -3 -3 -1 0 18 9 1 -2
1532261005299509 1 0 0 -8 -13 -22 -9 -3
1532261005352367 -2 0 3 3 0 -2 2 -2
1532261005464068 1 -2 0 0 0 -13 -7 -6
1532261005508949 -2 3 -1 1 1 -2 1 -5
1532261005539866 -7 -3 -2 0 0 2 5 -11
1532261005630622 -3 -2 0 1 -1 1 0 -6
1532261005720382 2 -2 -2 -1 -1 2 1 -7
1532261005765263 -1 -1 -1 0 -1 0 -1 -9
1532261005883945 -1 -3 0 -1 -1 -3 3 11
1532261005975718 1 -1 1 -1 -1 0 -5 -3
1532261006021577 -2 -2 -3 -3 -2 -2 -4 -12
1532261006058493 0 -1 0 -1 -1 -3 -2 -1
1532261006163199 0 0 -2 -3 -3 -3 1 2
1532261006298836 -2 0 1 0 -1 -2 -3 -6
1532261006335737 -3 -2 -1 -1 -1 -1 -4 -5
1532261006371641 -2 -1 0 0 -1 -1 0 3
1532261006395578 -1 -1 -4 -3 -5 12 -3 0
1532261006431481 1 0 2 -1 21 9 -1 2
1532261006484340 -1 -1 -3 3 -15 -3 -3 0
1532261006545177 0 -2 -4 -13 -15 3 -1 1
1532261006576095 -1 -3 -1 -11 -6 11 -2 -1
1532261006598036 -1 0 -1 4 -1 -3 4 -2
1532261006656879 1 0 5 26 8 -2 -1 0
1532261006686812 0 3 0 -3 -6 -1 -1 1
1532261006730681 -1 -2 -2 -2 -6 -3 4 4
1532261006761599 0 0 -1 -6 -2 -1 -4 -2
1532261006799497 -3 -1 -1 -4 -6 -4 -2 0
1532261006810469 0 -1 -2 4 -7 -3 -6 -5
1532261006843380 0 0 -1 -1 12 2 -1 -3
1532261006875295 -1 -1 3 -1 -1 -1 -1 3
1532261006897235 0 2 0 3 2 0 -1 -2
1532261006911198 -4 -4 0 -6 -6 -8 -10 -13
1532261006956079 3 1 1 3 9 2 8 18
1532261007085731 -3 -1 -2 -2 -3 -18 -4 3
1532261007167513 -1 -7 -3 -6 -10 -3 5 -1
1532261007174494 1 4 0 3 4 0 10 5
1532261007198430 0 5 -2 -1 0 -7 -6 -24
1532261007243310 5 0 2 5 -3 10 -1 5
1532261007295171 -2 2 -1 -4 -12 6 9 19
1532261007318122 1 13 1 -3 -9 -8 -25 10
1532261007362990 -17 -23 0 -7 -14 20 -16 -13
1532261007407871 -9 -2 1 3 4 12 18 16
1532261007430813 -15 -13 -9 -10 -4 -28 -45 -3
1532261007450756 21 -3 -5 -16 -6 -3 4 -26
1532261007496633 15 5 2 1 11 -2 3 12
1532261007526553 14 -8 5 8 -10 12 12 -27
1532261007572443 12 9 5 -3 7 2 -21 19
1532261007639252 0 -16 3 -2 -3 5 16 34
1532261007662193 -7 -3 -3 -4 -1 -15 -12 -32
1532261007723028 -11 -12 -9 -6 -18 1 -4 -18
1532261007729011 7 -13 -6 -4 7 4 -11 -15
1532261007774889 -32 35 1 -5 5 -15 -44 -20
1532261007797828 8 -29 -2 2 -7 -23 -10 63
1532261007826750 -9 -30 -4 16 1 8 -18 -10
1532261007917508 -5 37 28 -17 6 1 -8 -7
1532261007932468 1 29 -11 -8 -1 -9 -36 -24
1532261007953412 -6 -32 -5 4 2 4 1 14
1532261007999289 3 16 -6 -7 6 -3 -20 -8
1532261008066110 -15 25 10 -2 -20 2 -32 -66
1532261008085059 -26 9 -8 -6 19 -21 -34 -20
1532261008128951 -9 -32 -18 -10 6 -3 1 6
1532261008149885 1 0 -35 0 18 -13 -24 -29
1532261008194766 9 0 -5 -4 3 -18 -7 12
1532261008261587 13 23 2 0 -6 0 -5 2
1532261008287518 -19 -16 -7 4 5 -2 -11 -4
1532261008329406 5 2 13 2 2 11 -4 -4
1532261008375284 0 4 3 2 2 13 8 0
1532261008452077 0 9 1 -1 -1 23 0 1
1532261008556798 2 3 1 -3 -1 4 -1 -1
1532261008600681 0 -1 -2 -2 -2 -5 -2 -1
1532261008635587 -2 -4 -2 -16 -9 2 -2 -2
1532261008659524 -4 -4 -5 -10 2 8 1 -1
1532261008796158 -2 0 2 10 -4 -7 0 0
1532261008819097 -1 1 -2 -9 3 -4 0 -1
1532261008835054 0 -1 -4 -10 4 0 -1 -1
1532261008883923 0 0 1 -1 -1 0 -2 1
1532261008906862 -2 -2 1 7 1 -1 -1 -1
1532261008929801 -3 -1 -2 -4 -3 -3 -3 -2
1532261009110318 0 0 0 -2 -2 0 -1 -1
1532261009134257 -3 -3 -2 -6 -4 -2 0 0
1532261009200082 -2 -1 -4 -13 -2 -2 -2 -1
1532261009389585 1 0 0 -2 -6 -5 -2 0
1532261009455409 -1 0 -3 -5 -3 -2 1 2
1532261009498280 -1 0 -1 1 -2 -1 1 -1
1532261009668831 0 -1 0 1 -2 0 -1 -1
1532261009710712 -2 0 0 -5 -7 -18 -5 -4
1532261009896216 0 2 8 11 18 22 1 -1
1532261009929128 -3 -5 0 -1 8 -11 -13 -6
1532261010023876 5 20 7 5 -49 43 8 1
1532261010128595 0 11 5 3 14 -18 -3 1
1532261010161506 -2 -15 -5 4 38 -11 0 1
1532261010326067 3 -18 -5 0 -2 27 0 3
1532261010372942 -4 -51 7 4 -2 -12 -8 -1
1532261010394890 1 -9 -8 -2 7 13 3 0
1532261010438766 -10 -9 -12 -12 4 -19 -1 -4
1532261010460707 3 -23 14 7 10 0 -4 0
1532261010669150 -2 -35 -10 -5 2 8 3 2
1532261010688110 1 10 -8 -4 -12 -10 0 -1
1532261010879587 -4 -39 -18 -5 -4 -4 -5 -2
1532261011045161 0 -9 7 0 -3 0 -3 -1
1532261011054119 27 26 -2 -2 -6 6 -3 3
1532261011330380 2 -5 0 -2 2 -33 -6 -5
1532261011367294 11 80 2 2 3 -6 -1 0
1532261011502920 19 110 22 0 -4 -7 2 53
1532261011593677 -3 14 6 -3 -2 1 -6 -12
1532261011629581 -2 -10 -7 -5 3 -1 -5 1
1532261011733303 3 -6 8 -5 -8 4 0 -1
1532261011803117 -7 -17 -2 -12 16 -3 -7 -5
1532261011848994 6 -26 1 4 15 -11 0 3
1532261012055450 10 66 11 11 -2 -12 0 17
1532261012373592 6 3 0 -4 -4 -45 2 3
1532261012419468 0 2 -1 2 2 5 -4 3
1532261012672791 3 2 10 33 14 -3 1 1
1532261012695730 1 0 3 7 39 9 5 0
1532261012716673 -3 -5 -7 -8 8 18 -8 -5
1532261013002909 -1 -1 0 4 -4 3 -5 -2
1532261013016871 1 4 -3 -8 -3 -10 -4 2
1532261013235287 0 -10 -3 -6 14 2 11 -1
1532261013281164 -2 0 -5 -5 34 0 -5 -3
1532261013317068 2 -3 6 -1 21 0 -1 0
1532261013355965 -5 -40 -4 -5 -7 -7 1 -3
1532261013400845 -2 21 -10 -10 -8 -35 -6 -4
1532261013445724 1 -16 -2 5 15 16 -1 0
1532261013468663 -7 -23 -5 -5 -26 -16 -5 -3
1532261013558423 0 -3 -2 2 15 6 -2 -1
1532261013618263 0 8 2 -5 9 1 -4 0
1532261013656162 -1 -3 -1 -3 7 5 -3 0
1532261013701042 3 18 6 7 0 -9 -5 -1
1532261013722983 7 16 -1 4 4 6 -6 3
1532261013766865 0 -2 0 -3 3 -3 -1 -10
1532261013789804 -2 -17 0 -4 -4 0 -14 -11
1532261013812746 -10 -4 3 0 0 0 -14 -16
1532261013848647 1 -1 2 -1 2 12 -16 0
1532261013908487 2 -1 -8 -8 0 -2 -1 1
1532261013931426 -3 -5 -5 -1 1 -2 0 6
1532261014023181 4 5 2 4 4 12 -7 0
1532261014069058 -7 -6 0 -5 -8 -8 -3 -2
1532261014110946 0 3 0 -4 -3 -6 0 -1
1532261014156823 0 -2 -5 -2 -9 -1 0 -1
1532261014179762 -1 0 -2 2 7 3 0 -1
1532261014209682 -2 -5 -5 -12 5 16 -1 0
1532261014255574 -2 -3 0 -2 4 7 6 -1
1532261014293458 -2 0 2 -6 1 7 1 -2
1532261014298444 0 0 1 8 -5 -18 1 0
1532261014314402 -2 -3 0 2 -2 -3 -2 0
1532261014344322 -2 -2 -2 -5 -8 3 -5 -3

1532261014411143 -3 -1 -1 1 -7 9 3 -3
1532261014441474 1 1 -2 -1 1 2 1 -2
1532261014502312 -1 -2 1 0 -3 8 1 -2
1532261014533229 -2 -2 1 -5 -8 8 5 0
1532261014554188 -1 -1 0 -1 -2 -9 -5 1
1532261014615026 0 5 0 5 -5 -16 -1 -1
1532261014650930 -2 -2 0 3 1 -7 -3 -5
1532261014696807 -1 -1 -4 -9 -19 16 2 1
1532261014734706 -2 -1 -4 1 37 21 1 -1
1532261014808508 -1 1 -1 2 3 -3 -1 -1
1532261014870349 0 -2 -1 -2 -4 -5 1 -1
1532261014878328 -1 -1 -1 -3 1 -1 0 0
1532261014899272 1 -1 0 -7 -3 -2 0 0
1532261014937170 -1 -2 -2 -5 2 -2 -2 -1
1532261014950135 -1 -2 -5 -4 -2 -1 1 -2
1532261014959111 -1 0 -1 1 0 0 -1 -3
1532261015019949 -2 -1 0 -3 -2 -1 -1 -2
1532261015041890 -1 -2 -2 -7 -1 -2 -3 -3
1532261015086770 0 -1 0 5 0 0 1 0
1532261015124669 -1 0 2 1 0 0 2 0
1532261015145626 1 -2 -2 -4 -2 -2 0 -1
1532261015177543 0 -2 -1 2 -2 -1 -1 -1
1532261015199484 -1 0 0 -2 -2 -3 -2 -4
1532261015250348 0 -2 -2 0 -3 0 -1 0
1532261015274284 0 0 -1 -1 -1 0 -3 1
1532261015319163 1 2 -1 0 -2 -3 -2 -1
1532261015364044 -1 -1 -1 1 -2 0 1 -1
1532261015425878 -3 1 -1 -1 -1 -3 -1 0
1532261015455799 2 -1 0 -1 -1 0 -1 -1
1532261015499681 -2 -1 0 1 0 -1 -1 0
1532261015513644 1 -1 -2 -1 -1 -2 -2 -3
1532261015597420 -1 1 -2 -1 0 1 -2 -1
1532261015619384 0 1 -1 -5 -2 -1 -1 -1
1532261015642323 -1 0 -1 -1 -1 -1 0 0
1532261015664266 -2 -1 -1 1 -1 -1 -2 -2
1532261015749039 -2 -2 -2 0 0 -1 0 -1
1532261015798955 0 -1 -1 -6 0 1 -2 -1
1532261015872763 0 -1 -2 -4 0 -3 -1 -1
1532261015921619 0 -1 2 10 14 4 -1 0
1532261015989443 -1 -2 -4 -10 -7 -4 -2 -1
1532261015993427 0 -1 0 7 0 -3 -1 -1
1532261016032323 -1 -4 -4 -2 1 -5 -3 -1
1532261016069237 -2 1 5 5 -2 -1 -2 0
1532261016092162 -1 -1 -2 -6 -6 -4 -3 0
1532261016122091 0 2 3 0 3 1 0 1
1532261016190898 0 1 8 9 -1 0 0 -2
1532261016221817 -1 -1 -4 1 3 0 0 1
1532261016266697 0 -1 2 5 -8 -1 2 0
1532261016287640 -1 0 2 1 1 2 -2 -2
1532261016309581 2 3 10 34 9 3 3 1
1532261016348477 -2 -1 -2 -12 6 10 2 -9
1532261016375405 -1 -5 -5 -19 -6 -2 -2 1
1532261016407320 -1 1 -6 -12 -1 -1 7 -10
1532261016585843 -1 -6 -6 -9 -5 -4 -8 -1
1532261016633715 1 3 1 1 3 2 5 6
1532261016661640 11 6 4 2 1 12 22 23
1532261016729458 -4 0 -2 2 12 -24 -63 -40
1532261016775336 6 5 2 3 -13 -25 -31 14
1532261016866092 -1 -4 7 8 -7 10 35 47
1532261016889040 16 12 10 27 13 14 9 43
1532261017007716 -2 7 3 9 1 -6 -27 -21
1532261017053591 11 -3 -1 8 8 11 -42 -40
1532261017076531 -2 2 -4 -10 13 29 -12 -58
1532261017098472 5 0 2 -3 6 3 24 80
1532261017144358 11 2 -10 -17 17 -39 -19 4
1532261017178258 -9 -19 -13 -18 -2 0 -49 -29
1532261017209176 -4 -5 -3 3 10 6 -16 -9
1532261017239096 -63 -4 -1 -20 -20 -18 -27 -45
1532261017263042 -31 2 -2 -3 -11 1 -6 -102
1532261017366754 -8 55 4 -10 -8 1 51 68
1532261017374733 -2 9 -1 5 -23 -8 -5 4
1532261017448536 11 10 -14 -2 -24 -23 -40 -17
1532261017519350 -20 -7 0 11 31 -22 -26 -12
1532261017608110 -14 33 11 -9 -15 -3 -2 -8
1532261017673932 6 26 8 3 5 14 -34 7
1532261017758706 -8 -31 -11 -3 -5 2 7 3
1532261017823533 2 -7 -5 2 2 -5 0 -1
1532261017955180 -3 -14 -2 -3 -3 -2 7 0
1532261017976125 1 -2 3 -4 -3 1 -8 0
1532261017996072 -4 -9 -4 -3 -12 -2 1 -3
1532261018034968 -1 -4 -2 -2 4 -4 6 0
1532261018268343 1 1 1 -12 -3 15 4 0
1532261018335164 -2 1 2 12 10 5 -1 -2
1532261018380044 -1 -2 -2 -4 -2 -3 -1 1
1532261018560562 -3 -1 -2 -4 -3 1 -1 -1
1532261018581505 0 2 -3 -1 2 -4 -2 -2
1532261018671266 -2 -3 0 1 0 -1 -1 -2
1532261018764018 2 -1 -2 1 4 0 0 0
1532261018874722 0 2 3 -2 -2 -2 0 0
1532261018995400 -1 1 2 0 2 1 1 -1
1532261019188882 -5 -23 -7 -6 -31 -4 -2 -2
1532261019249718 0 35 7 1 -19 -3 2 0
1532261019340477 -3 -6 -3 1 -26 -15 5 1
1532261019354439 -4 -22 -3 -11 -52 -12 -1 -2
1532261019451181 -2 -21 -7 -5 -30 -3 -8 -4
1532261019550914 0 26 2 14 -6 -11 -6 -4
1532261019596791 -3 -19 2 -1 8 11 2 -2
1532261019706498 0 -22 -10 3 -11 10 -5 0
1532261019826178 -3 -34 -7 -6 6 5 -5 -3
1532261019918930 0 -7 -1 3 -5 -6 0 -2
1532261019945858 0 -16 -2 -2 7 -8 -1 1
1532261020054568 1 30 2 -10 -7 -3 -1 0
1532261020106428 0 -43 -4 5 -1 -10 -1 2
1532261020150311 1 10 -4 -5 -2 6 -13 -4
1532261020172253 -13 25 -21 -19 -14 -8 5 -5
1532261020254034 0 7 -3 -1 -1 14 -3 -2
1532261020329831 0 -4 -1 0 20 -5 -3 -1
1532261020397649 -2 -18 -2 -3 -9 -4 -9 -1
1532261020485414 0 4 4 10 4 -5 -1 -1
1532261020547250 1 -23 2 7 -17 -5 -1 1
1532261020719788 -4 -22 2 1 30 12 2 -2
1532261020736743 -11 -48 -19 2 -2 22 0 -1
1532261020774642 47 3 -21 2 2 9 -2 10
1532261020801569 -8 41 12 -5 -1 -1 -1 -3
1532261020831489 -8 -44 0 -2 0 -6 -9 -5
1532261020884348 -5 -23 -10 -2 -1 5 4 -2
1532261021027976 -4 1 -3 -8 -2 6 0 -4
1532261021043925 -2 13 3 17 5 -19 -1 0
1532261021110743 -4 -29 -4 -6 -14 -35 -2 -1
1532261021357083 -2 -14 5 -4 -5 1 -1 -1
1532261021423905 1 1 -1 -8 -1 9 0 -3
1532261021493719 0 4 2 0 -1 -48 -2 -3
1532261021560540 7 16 0 -3 5 32 -3 2
1532261021611415 1 13 -3 -7 -4 -20 -10 -6
1532261021741057 -3 -44 -5 -7 -33 -21 10 -3
1532261021769991 2 24 0 -5 -20 -30 2 1
1532261021813862 -3 2 -1 -3 5 18 -3 -11
1532261021996374 -2 0 -8 -28 -28 -7 -5 -6
1532261022121041 -1 1 1 -3 -19 -2 3 0
1532261022153953 -2 1 4 20 33 34 10 1
1532261022453152 0 3 1 3 5 -10 -18 -3
1532261022518978 3 3 7 3 -55 -33 -21 -3
1532261022715451 -3 1 -5 -17 -21 -8 0 -5
1532261022894971 -1 26 5 0 -20 3 4 6
1532261022970769 1 4 -4 -7 -19 -10 19 -1
1532261022992710 -3 -8 -3 -1 11 0 -8 -4
1532261023052550 -2 -2 -2 6 51 11 1 -1
1532261023157270 0 -9 -1 -4 -4 2 2 1
1532261023262008 -1 -5 -5 -4 2 5 -3 0
1532261023270966 -2 1 -1 -3 -15 3 3 -1
1532261023382667 -5 0 -3 -7 -20 -1 -19 -42
1532261023435526 1 4 0 2 -2 -1 -4 -5
1532261023526283 0 2 0 -5 0 3 -3 5
1532261023553211 -3 -10 -9 -8 7 -32 -5 -1
1532261023592107 -1 2 3 -4 4 18 2 2
1532261023704806 0 -2 0 -22 -12 14 4 2
1532261023756667 -1 -5 -6 0 1 12 -1 -1
1532261023839446 0 -1 -2 0 -1 3 -2 0
1532261023876347 0 -3 2 5 2 -1 0 1
