1532331411861273 0 -1 -15 13 1 4 2 2
1532331411917119 -3 -5 9 2 10 1 -1 -2
1532331411929088 -2 -1 -4 -7 -7 -5 1 -3
1532331411951029 5 3 -6 -18 -18 -5 -2 2
1532331411970975 1 2 8 17 13 5 3 5
1532331411995908 -20 -17 -5 -8 -7 0 -1 -9
1532331412020841 15 5 10 -5 5 2 18 18
1532331412048767 6 -5 -13 -3 2 -1 -16 -13
1532331412086666 21 3 -1 -9 -2 3 15 13
1532331412108607 -22 -11 -1 -1 -7 -2 18 -8
1532331412138527 22 8 -3 -16 -1 -9 -13 -6
1532331412168446 24 18 -2 -5 -4 0 -3 -8
1532331412198367 -12 5 6 -12 -3 0 17 -8
1532331412221306 9 1 7 2 -4 -3 7 10
1532331412243247 -2 4 -26 -3 -3 -6 7 2
1532331412274164 -7 -1 18 9 -3 -7 -15 7
1532331412296106 17 9 22 5 1 9 17 4
1532331412311066 12 6 -5 7 2 5 6 5
1532331412340985 -8 9 1 -2 3 2 18 6
1532331412355945 4 -1 -10 7 0 -1 -1 -2
1532331412370906 -20 -3 10 -1 0 12 27 -2
1532331412408804 14 8 1 1 1 2 -9 13
1532331412430751 6 7 9 4 -1 -3 -9 5
1532331412453685 -4 9 5 -5 1 10 -1 2
1532331412491583 8 -6 3 1 -1 -2 -5 2
1532331412521502 -27 -1 0 3 4 8 17 -29
1532331412558404 37 24 -16 11 4 0 27 11
1532331412573364 -37 -10 1 -10 -4 -6 -12 -9
1532331412611262 -41 -11 -3 -2 -1 -12 -1 9
1532331412626223 -7 -2 22 6 3 -3 21 15
1532331412649161 23 6 -18 3 -24 -2 -36 1
1532331412679082 -60 -5 -5 -3 -2 -14 -5 -5
1532331412694041 49 12 -12 -7 4 7 16 20
1532331412723960 35 6 -2 3 12 3 0 5
1532331412738921 -19 1 -3 0 1 19 6 -20
1532331412753881 -9 7 10 -3 -4 2 4 8
1532331412775822 18 -1 0 -1 -2 -9 -5 1
1532331412813723 -8 3 2 -2 -6 -17 -3 -4
1532331412843641 1 -4 4 3 1 0 3 0
1532331412881540 0 -10 2 1 -1 2 2 2
1532331412903481 1 -12 -41 0 -7 -19 -3 -1
1532331412956339 -3 -18 89 6 4 21 2 1
1532331412978280 -7 9 116 -6 -7 18 -2 -5
1532331413016179 0 34 61 4 -6 -19 -7 -2
1532331413054078 0 6 -10 0 -10 -27 -5 -1
1532331413069038 1 -11 15 13 1 14 3 -1
1532331413090979 0 4 7 0 3 6 -3 0
1532331413150819 -6 -11 -30 -1 10 44 2 -1
1532331413165779 0 -20 -37 -3 -12 -21 -12 -2
1532331413188718 0 17 26 12 -5 -37 -4 -1
1532331413218638 5 16 12 10 13 35 20 6
1532331413248557 -2 -15 -46 -13 6 35 -8 -2
1532331413271507 1 -1 -51 -6 3 -34 -7 -2
1532331413308398 -4 1 21 1 -2 -15 -9 -2
1532331413331336 1 2 9 -1 -15 -50 -1 0
1532331413353277 2 -7 -28 -7 -6 8 5 2
1532331413376217 -1 15 26 4 -7 -11 -2 2
1532331413406136 0 6 -1 -3 -1 -3 -1 0
1532331413429075 0 -7 -7 -1 -5 4 7 -1
1532331413465976 2 0 25 9 18 38 0 2
1532331413510856 -5 2 -22 -2 1 -2 -6 0
1532331413533795 -2 -9 21 -4 2 30 3 -1
1532331413548755 2 -8 -25 -2 9 26 17 4
1532331413608595 -1 29 39 0 9 5 -4 3
1532331413631533 -12 -45 -40 -17 -12 -8 13 -7
1532331413676413 7 2 32 1 -1 27 8 6
1532331413706333 -7 34 -8 -6 -7 -11 -1 2
1532331413736253 3 3 -32 -7 -2 5 -5 0
1532331413751215 -3 -7 0 9 8 15 0 -2
1532331413789112 3 20 19 7 9 4 5 2
1532331413819037 -15 -32 4 -7 -7 21 1 5
1532331413878871 0 8 -28 -9 -11 -38 -26 -9
1532331413931730 -11 -23 -71 -12 -9 -18 0 -17
1532331413976610 1 -10 -46 -8 -4 -2 12 1
1532331414006531 -2 -13 -22 -7 -7 -31 -25 -10
1532331414036450 -3 -10 19 -1 -4 18 2 -1
1532331414066370 0 10 -13 -6 -3 4 3 1
1532331414112248 0 -25 10 2 -3 0 2 -1
1532331414186050 9 2 11 5 2 1 -11 4
1532331414253869 -1 6 6 6 5 2 7 -12
1532331414283789 -8 -9 -2 0 1 -1 21 18
1532331414313747 -128 -70 17 1 -1 -1 -5 -18
1532331414328668 38 2 -6 101 4 1 2 17
1532331414343628 127 -29 -7 127 2 -4 -6 20
1532331414373548 -128 -104 -24 -72 -6 -3 -2 -39
1532331414388508 -85 -22 -8 -46 -11 -3 -3 59
1532331414411447 70 2 -71 -17 6 0 3 50
1532331414426407 24 -5 3 -11 9 8 10 -18
1532331414449346 45 41 17 3 -2 -1 -6 7
1532331414471287 5 11 -24 1 -3 0 7 -81
1532331414494225 -97 28 -16 -16 -6 -3 1 16
1532331414516167 44 17 -29 -18 -2 -2 -12 27
1532331414539105 11 5 -5 -6 -11 -3 -4 -24
1532331414561047 -7 -7 39 10 6 3 2 2
1532331414590967 -16 -1 -22 16 11 1 -4 -18
1532331414628866 -13 -35 6 1 -3 0 3 -2
1532331414650806 -9 -5 -7 7 10 4 -2 -7
1532331414681724 12 34 2 -7 -2 5 0 7
1532331414711644 -13 -27 -10 -2 -6 -11 1 -2
1532331414733585 -11 -14 -8 0 -1 6 51 2
1532331414748545 7 -16 8 1 -1 -1 -19 2
1532331414763516 4 3 -6 -6 -7 -19 7 20
1532331414786444 2 4 19 4 2 -9 -14 -2
1532331414801403 -17 11 -5 4 5 2 3 -3
1532331414838305 -6 -29 -8 -2 0 -5 -7 6
1532331414853265 11 12 -29 -1 -3 -5 -3 7
1532331414868225 -5 -53 -23 -9 -4 -10 5 8
1532331414899143 -7 -18 -33 -9 -5 -4 -23 3
1532331414914118 3 21 -11 7 5 -2 8 5
1532331414958983 3 58 12 0 -2 3 -7 -14
1532331414988902 -13 0 1 5 2 -4 7 -7
1532331415010843 -25 -31 -40 -7 -8 -7 -5 21
1532331415063717 -1 -7 1 3 -1 0 10 -20
1532331415094619 14 2 18 -1 1 -2 2 -5
1532331415116561 3 14 58 -5 -2 1 0 -7
1532331415138502 -9 15 13 -4 -3 -3 0 -14
1532331415168422 28 25 -19 -3 0 -18 -12 3
1532331415236241 8 17 -13 -1 2 13 16 2
1532331415274139 0 -24 -16 2 0 -3 14 7
1532331415289099 -18 -11 -11 -1 0 -3 -7 -5
1532331415311041 -10 -2 -35 -5 -1 1 4 -1
1532331415348939 -8 12 5 -1 -2 -17 -13 -10
1532331415387835 1 0 8 5 4 0 6 1
1532331415423739 3 11 25 3 3 4 0 6
1532331415453659 0 2 -4 -5 3 2 5 0
1532331415491558 -5 7 6 5 1 1 -4 0
1532331415513499 4 12 15 9 3 2 -2 0
1532331415528459 -2 2 4 4 8 2 -2 -3
1532331415573339 1 7 -6 8 10 6 2 2
1532331415596278 1 4 2 4 0 2 1 -1
1532331415611237 -2 2 -2 -3 4 -1 -2 -2
1532331415641157 -3 -8 7 2 -1 -2 -3 -1
1532331415671078 -1 19 34 23 13 5 2 2
1532331415686038 -2 -4 0 -24 -7 0 1 1
1532331415715957 3 2 -8 0 3 4 3 3
1532331415738896 1 2 -1 3 2 -15 -9 0
1532331415768816 3 2 3 -1 -4 -7 -1 7
1532331415790757 -1 5 4 -2 -3 -3 17 0
1532331415813702 -3 -2 32 5 4 -5 -1 -2
1532331415836634 0 -4 37 8 3 -4 -5 5
1532331415881515 -4 5 -9 -15 -12 -4 1 -1
1532331415896474 -5 3 45 -2 3 8 3 0
1532331415911434 1 20 60 9 2 1 4 -1
1532331415948336 -1 -15 -26 14 12 8 2 2
1532331415963296 -2 5 23 -8 -11 1 2 -6
1532331415986234 -1 16 26 -2 4 1 -4 -15
1532331416009172 4 -12 -15 1 -2 0 2 -10
1532331416031114 0 14 15 -8 -11 -4 -3 3
1532331416054053 0 -9 -52 -7 -1 2 0 -4
1532331416083973 3 8 -4 5 4 3 -1 5
1532331416105914 -3 -11 -39 0 6 4 0 -1
1532331416128852 -3 -2 -34 -5 2 0 1 -2
1532331416143813 -2 -4 14 7 -7 -1 0 0
1532331416165754 -1 0 58 5 -12 -10 -1 -1
1532331416196671 -2 -7 4 0 -2 -2 -2 2
1532331416211639 -1 -12 -48 -39 -12 17 2 -1
1532331416241559 -3 -17 9 -10 3 -4 4 0
1532331416271478 -6 5 13 -8 -10 -8 -6 -2
1532331416316359 1 4 18 0 -7 -6 -5 1
1532331416331324 -3 20 72 -3 2 47 -6 -10
1532331416361239 -6 -1 9 0 -8 -32 -4 2
1532331416384177 4 17 -2 2 10 25 5 1
1532331416406119 1 -4 13 2 9 -15 -9 1
1532331416444017 3 -8 -22 -1 7 40 2 3
1532331416480918 -1 -23 -55 -5 -13 -56 -25 -11
1532331416510839 -2 7 -7 0 5 26 9 -2
1532331416571675 5 3 23 10 3 7 0 -3
1532331416593617 3 14 8 5 9 14 -4 6
1532331416616556 -2 5 25 4 6 -4 -1 0
1532331416631515 -4 -4 37 4 0 -11 2 -2
1532331416661435 0 -5 -15 2 -1 -1 -2 1
1532331416683377 1 -9 -31 3 8 17 1 0
1532331416721275 0 4 18 0 6 33 10 -3
1532331416743217 -5 11 4 1 -5 -7 -6 0
1532331416759174 -4 -2 7 -3 3 5 5 -1
1532331416781116 0 15 39 5 6 -3 -15 -1
1532331416819014 -2 1 -38 -8 -2 -2 -1 1
1532331416834005 2 3 -5 7 13 29 4 2
1532331416870906 7 -3 8 -1 9 23 3 3
1532331416885866 3 -11 3 7 -2 -18 -7 2
1532331416923765 -4 4 -13 12 8 9 7 -6
1532331416938725 2 0 -4 11 18 48 10 3
1532331416976623 1 -11 -63 -24 -14 -12 -14 0
1532331416991583 2 7 16 -1 -4 -1 -2 0
1532331417006543 3 2 8 6 5 -1 2 0
1532331417028485 3 3 -24 -5 0 -2 10 0
1532331417111264 -4 -13 -65 -9 -7 -11 -6 -6
1532331417126223 3 -3 -4 -1 0 -18 -9 3
1532331417156143 -2 -14 -16 0 -2 4 -11 -3
1532331417171103 2 2 -7 2 0 8 11 10
1532331417194041 2 11 33 3 -3 -21 -18 -6
1532331417215983 -4 15 44 1 2 6 -8 -4
1532331417238922 3 5 8 4 3 10 2 -3
1532331417253882 -2 -1 -19 -5 -1 1 14 5
1532331417283802 6 8 4 1 -2 -7 12 -4
1532331417313723 1 -12 -29 -9 -7 -22 12 -4
1532331417328682 -1 3 -8 3 7 13 2 -13
1532331417358602 7 0 26 4 0 -17 -1 7
1532331417396508 1 11 14 -2 -1 -6 2 1
1532331417441381 7 35 6 5 1 -8 -1 -1
1532331417456340 5 8 32 3 0 -13 10 1
1532331417509199 -3 -38 -15 2 4 -3 1 15
1532331417524169 -8 -5 -11 -9 -2 -5 -8 -6
1532331417561060 2 -12 15 -3 1 -18 7 10
1532331417583999 -1 9 -10 -1 1 0 4 5
1532331417613919 -9 -29 -29 5 -3 3 -6 -13
1532331417628878 -2 -9 21 1 -3 0 3 -4
1532331417650820 2 0 -36 -7 -3 -7 -15 5
1532331417673759 6 10 -33 -5 -2 5 13 -1
1532331417703679 2 40 7 0 0 -2 -7 -3
1532331417718639 3 -9 14 2 6 6 4 5
1532331417763518 -1 18 -33 -5 -3 -10 -6 2
1532331417778479 8 -9 -28 -1 -1 3 15 -1
1532331417808399 -1 7 -7 -5 -3 -2 1 1
1532331417823359 -1 7 9 1 -3 -11 -9 -2
1532331417870233 2 18 18 3 1 -9 -7 -2
1532331417899155 -7 -34 -16 -5 -4 -3 -3 1
1532331417929076 -3 -26 -25 -7 -4 -4 -11 -2
1532331417944036 3 22 27 8 2 4 4 6
1532331418010857 -8 -10 -28 0 2 1 -4 -27
1532331418055737 -1 -40 -56 -4 -1 -1 -3 2
1532331418070697 -2 15 19 0 0 -1 4 -1
1532331418108595 -2 -13 0 -2 -3 0 4 5
1532331418138516 6 7 14 2 0 -2 1 9
1532331418162451 -1 -17 -2 -4 -4 -3 2 -3
1532331418183395 -4 -2 0 -1 -2 -1 -1 -3
1532331418213316 3 5 -1 2 -2 -2 -1 -1
1532331418236254 1 -7 -5 -4 -2 -2 3 5
1532331418258195 -5 -7 -1 1 0 -2 -2 1
1532331418281149 -8 -6 -3 2 0 1 1 -4
1532331418304072 -1 -24 -12 -5 -1 1 1 -2
1532331418326014 -9 -29 -34 -3 1 -1 -1 0
1532331418340974 -1 -6 -13 0 1 -1 4 -1
1532331418363914 10 29 17 4 -3 0 -3 -1
1532331418385854 -1 -23 20 -7 -3 -5 -2 0
1532331418400814 -4 -22 -47 2 5 4 2 3
1532331418438712 -7 6 41 -1 -2 -1 -2 -6
1532331418468633 6 64 24 2 -1 -1 -1 -5
1532331418498553 -2 -13 -6 0 -2 -2 -10 -1
1532331418521491 -1 -9 -23 -7 -2 -3 -6 -6
1532331418543433 4 11 4 -2 -1 1 4 6
1532331418566371 5 47 25 0 0 2 1 -3
1532331418619232 -6 -34 -8 -5 -3 -4 -1 -5
1532331418633193 -4 -25 -32 0 -2 -2 0 -4
1532331418671104 6 17 30 5 1 -1 -5 -2
1532331418694029 -2 4 21 0 -1 2 7 2
1532331418723950 -2 -3 0 -3 -1 -3 0 -1
1532331418753870 2 -11 -14 -1 -2 2 3 0
1532331418775811 -3 -25 -16 1 3 2 0 -4
1532331418805730 -3 14 -13 -1 -1 -1 1 0
1532331418828669 2 34 26 1 -1 -3 2 4
1532331418881528 1 13 15 1 -2 -1 8 0
1532331418941368 -5 -26 -9 0 0 6 -3 -3
1532331418971288 -6 -25 -54 -9 -3 -6 -8 -7
1532331419001208 1 -3 9 0 -3 -3 -7 -2
1532331419032125 0 2 0 -6 -1 0 -2 -3
1532331419061047 -1 -5 20 4 1 -1 -1 0
1532331419090968 1 -11 27 2 -1 -1 0 -2
1532331419128866 -7 18 35 2 2 7 4 -18

1532331419173746 -7 -19 -9 2 -3 -3 26 10
1532331419211651 5 18 39 4 0 -7 -3 0
1532331419241565 -3 -43 -42 -13 -2 -6 -4 -10
1532331419278466 7 52 31 2 -2 -3 8 -10
1532331419301405 3 22 1 2 -2 -2 -2 2
1532331419346284 -1 31 60 5 -2 -3 3 -1
1532331419384196 0 -19 17 1 1 0 -4 -1
1532331419406125 -2 -11 -14 0 1 0 3 -5
1532331419465965 0 9 -8 0 0 0 1 -3
1532331419488903 -1 2 1 -1 0 -1 -12 -1
1532331419525804 0 4 9 1 -1 -3 -4 -2
1532331419540764 -3 -6 -10 -3 1 0 -3 -2
1532331419555724 -4 8 22 -4 -1 -1 -4 -2
1532331419586642 0 -4 4 -3 -2 -2 -7 -11
1532331419616562 -4 -21 -14 -1 -1 0 -1 3
1532331419638503 -3 10 8 -1 -2 0 3 -3
1532331419668423 1 -1 -2 2 0 -1 1 9
1532331419691361 1 -3 -3 -1 0 -2 -2 -5
1532331419721296 0 -4 -13 -6 -4 -2 2 2
1532331419737239 0 4 -2 1 -1 -1 6 -4
1532331419758183 0 8 -1 1 0 -1 5 -3
1532331419789100 -1 12 -2 -2 -2 -2 1 -1
1532331419819020 1 -7 -17 -2 2 0 -7 2
1532331419848940 2 3 7 1 1 -2 -14 -2
1532331419878860 1 -1 29 -2 -2 -2 1 -3
1532331419908780 0 -3 -4 -1 0 3 17 1
1532331419930732 1 -14 -15 -2 -1 -1 0 0
1532331419945681 2 5 1 3 1 0 6 1
1532331419961639 0 5 8 3 0 -2 -8 -4
1532331419983579 -1 -4 -37 -1 -2 -1 2 3
1532331420006518 0 1 10 -1 -4 0 -4 -2
1532331420021479 -2 -9 -22 -3 -2 -1 -5 -4
1532331420043420 3 0 2 1 -3 0 6 8
1532331420066358 0 0 -3 0 2 1 -10 -4
1532331420088299 -2 -1 -8 0 -2 1 2 0
1532331420111238 -3 0 3 -2 0 0 -1 -5
1532331420134177 -1 -11 -6 -2 1 2 3 -4
1532331420156119 2 14 11 -1 -1 0 -2 -2
1532331420186038 -2 -9 -5 -3 -2 -2 -19 -6
1532331420200998 -1 -7 -5 -1 -1 -1 5 0
1532331420230918 -3 5 -2 -1 -1 -1 -6 -2
1532331420253857 -2 7 10 2 0 0 -1 -2
1532331420268817 -1 -2 -13 0 -1 0 0 -4
1532331420290758 -5 -11 15 0 -1 0 13 -2
1532331420313698 2 -2 -2 3 0 -1 2 -6
1532331420381515 0 10 12 0 0 -5 -31 -9
1532331420433377 -3 1 -5 -2 0 -4 -6 -9
1532331420456315 1 -3 -3 -1 -3 -7 4 -6
1532331420486236 -1 5 1 1 1 2 1 -5
1532331420524134 2 1 3 13 3 -2 1 -1
1532331420546076 -6 6 7 -3 -8 -5 -3 -2
1532331420583975 -1 2 -4 -6 -3 1 -1 -1
1532331420598934 -4 -3 3 4 7 3 0 -5
1532331420620875 -5 -1 -8 -8 10 3 2 -3
1532331420658774 13 11 9 2 0 -6 1 -7
1532331420673734 -2 -5 3 6 2 5 -2 -5
1532331420696672 -10 2 -2 -11 -17 -2 7 1
1532331420726592 3 15 -11 -1 -2 3 3 21
1532331420748533 -29 -40 -18 -7 -1 5 -8 -3
1532331420778454 18 -1 -2 9 4 0 -4 17
1532331420801392 -6 9 -5 -7 -10 -3 -15 11
1532331420816352 19 -11 5 6 0 4 5 -1
1532331420838294 22 12 1 -6 -6 -3 -21 -9
1532331420861232 -9 0 -8 -8 -4 -3 -32 -8
1532331420899130 -11 7 -2 -6 0 1 32 -1
1532331420929051 14 16 -8 9 1 7 -14 0
1532331420973931 -29 -10 -17 3 1 3 -25 1
1532331420988891 31 -6 -7 2 -1 9 27 16
1532331421003851 14 4 28 13 -2 -9 -1 8
1532331421025805 -24 11 15 0 0 -4 -1 -17
1532331421040752 6 -9 -9 -9 -2 0 -6 0
1532331421086629 5 -7 4 0 0 7 -3 9
1532331421108570 11 -16 -2 8 6 6 5 9
1532331421138491 -4 -4 9 -3 -1 -13 -3 -3
1532331421161429 13 8 13 -1 3 13 -7 2
1532331421191349 7 4 2 8 -1 -4 6 5
1532331421206309 -6 -1 9 0 2 18 8 -6
1532331421236229 -19 -15 2 7 10 17 -15 -22
1532331421266149 6 -3 12 -7 0 6 3 -6
1532331421289088 -3 49 9 -10 0 14 2 -3
1532331421311030 18 -40 -4 -2 27 88 2 14
1532331421340948 4 10 -1 -12 0 9 3 5
1532331421363889 10 -9 -2 11 -4 -15 -3 -3
1532331421393808 -9 8 -27 -6 1 -11 -2 3
1532331421408768 -2 -5 4 10 2 -1 4 -4
1532331421423727 6 -5 -10 -9 -2 2 2 0
1532331421446667 -10 -10 4 19 8 7 -2 -7
1532331421498527 0 -3 0 -9 0 0 -4 3
1532331421513488 1 9 16 8 -1 -3 -6 -1
1532331421573328 3 1 18 9 -1 -10 0 0
1532331421603248 3 -3 -8 3 1 -6 4 0
1532331421634165 -2 22 -2 0 -1 -8 -3 0
1532331421649125 -10 6 -23 -9 -10 -10 -2 -6
1532331421679044 -2 4 17 -6 -3 -4 -5 0
1532331421723925 6 29 19 -9 -3 0 -3 2
1532331421753844 -3 -16 -58 -6 -8 -11 -5 -3
1532331421775798 3 -9 -73 -9 9 22 3 2
1532331421790745 -5 -4 -60 -1 12 83 15 -1
1532331421806703 -2 -6 -73 -20 6 35 9 -3
1532331421828644 -3 -21 20 10 -10 -28 -4 -3
1532331421851583 3 6 43 11 8 15 -5 0
1532331421866542 1 14 34 16 12 24 -7 -1
1532331421888484 -3 -1 -3 2 -10 -29 -5 -1
1532331421926383 0 8 56 -4 -15 -11 -1 -1
1532331421941343 -4 -23 6 -8 -8 19 8 -1
1532331421956303 -1 6 34 2 5 13 -9 -2
1532331421986223 0 -17 -44 -11 -9 -41 -11 -3
1532331422009163 -2 -13 -27 -9 -15 -27 -9 -5
1532331422031103 -4 15 45 3 8 -26 0 -1
1532331422054041 -5 -13 -33 -13 12 48 4 -3
1532331422090943 -1 3 -43 -5 -3 -28 -13 -2
1532331422113884 -3 12 21 2 -7 -11 0 -3
1532331422135839 1 11 65 7 2 -3 9 0
1532331422158761 -2 -11 13 18 18 65 -7 2
1532331422196660 2 6 23 11 8 8 0 1
1532331422218601 -3 -10 -25 -1 -8 -45 0 -1
1532331422241540 -2 11 32 5 6 19 -2 0
1532331422263481 2 12 26 15 -8 -17 -2 1
1532331422286420 -3 -22 5 -14 -9 6 -4 -4
1532331422331300 -1 -4 -45 -14 -8 -4 -18 -2
1532331422346260 -2 -3 0 8 4 -11 5 -1
1532331422369199 3 1 21 14 9 1 6 2
1532331422458958 3 -3 -50 -8 -5 -2 -7 -3
1532331422473918 1 28 5 3 5 -3 5 0
1532331422496856 1 -3 7 -8 -12 -21 -3 5
1532331422525780 -14 -24 -47 -1 -5 -42 -33 -19
1532331422540740 11 18 -6 -7 -4 25 3 -4
1532331422563679 -12 -13 23 6 2 10 0 -1
1532331422593610 -5 2 -43 -13 2 7 32 6
1532331422616537 5 -18 -116 -17 4 0 -14 2
1532331422653438 0 6 22 4 -4 -4 -10 0
1532331422728237 -2 21 61 27 10 -1 15 2
1532331422805033 6 14 58 7 6 18 13 1
1532331422840937 -4 -7 0 1 -2 -13 -9 -3
1532331422893795 -2 -19 -42 -6 1 -5 -6 -1
1532331422946655 4 0 -23 5 0 -6 -5 0
1532331422976574 0 -10 -27 -8 -6 -4 -11 -1
1532331422991534 -3 -1 -7 -6 -4 3 3 -2
1532331423021454 1 4 0 3 5 -2 1 0
1532331423051373 -2 -6 3 0 6 2 0 -1
1532331423073315 -1 1 10 -4 -4 2 -2 -3
1532331423097251 -1 -2 16 4 6 4 3 -1
1532331423134152 -1 0 -3 -2 -5 -3 -2 -1
1532331423149112 -1 -4 -18 -6 -1 -4 -2 0
1532331423200973 -1 0 1 4 3 -2 -2 1
1532331423224910 3 1 -2 1 -5 -2 -1 0
1532331423245853 1 -1 0 1 -1 -3 -1 -3
1532331423268792 0 -3 -5 -3 1 -2 -1 0
1532331423290733 0 0 -2 1 -4 -1 -1 0
1532331423313673 -3 -4 -4 -3 -3 -4 -1 -2
1532331423343592 1 -11 1 16 3 6 4 2
1532331423366531 2 5 7 -14 -2 -2 -2 0
1532331423396483 -14 -3 -4 -16 -12 -6 -11 -9
1532331423411411 4 -9 -7 10 5 2 0 0
1532331423456290 6 12 12 3 16 11 5 1
1532331423478232 10 11 -40 -3 -10 -3 4 4
1532331423502184 -5 41 -11 -7 -6 0 -3 5
1532331423539069 6 11 87 15 20 5 4 -1
1532331423568989 -2 -3 20 9 3 5 6 3
1532331423590930 -19 -38 -33 -12 0 1 0 -19
1532331423605890 0 -16 14 -2 -2 -5 5 11
1532331423628829 -7 27 0 -10 -6 -7 -11 0
1532331423643789 -1 -17 -28 -9 -5 -12 -2 5
1532331423689666 -1 25 43 -3 0 -7 2 -2
1532331423718589 -5 -49 -13 22 8 4 7 0
1532331423786408 11 26 16 -15 4 4 0 -4
1532331423838269 -13 -10 14 -2 -6 -13 -8 -9
1532331423853229 7 -19 8 1 -5 -3 -5 -2
1532331423868189 -1 5 -29 -5 0 -1 -2 -1
1532331423899106 12 19 10 2 -3 -17 -2 13
1532331423929026 -10 -2 8 4 -1 2 1 -3
1532331423943986 6 -5 -16 -1 -1 -1 2 7
1532331423965927 -4 -14 -33 6 9 -3 -2 -15
1532331423988866 5 36 -32 -11 -7 -9 -6 -2
1532331424003826 -13 -16 -2 -3 -2 -3 -1 -16
1532331424025767 4 -19 11 -3 -6 -13 -7 -2
1532331424048706 -3 -19 -2 3 6 19 -12 -12
1532331424071645 -4 -19 -44 -10 -5 -9 -1 -2
1532331424093585 -1 -8 3 -3 -4 21 3 -5
1532331424116524 2 3 14 5 4 13 7 8
1532331424131484 -1 -11 18 -8 -2 -6 -3 -7
1532331424161404 -1 -3 5 0 1 0 5 -2
1532331424191324 -1 19 -3 -1 -1 11 -13 -6
1532331424228226 1 -9 55 7 0 1 12 -11
1532331424259143 -10 5 14 1 -5 -6 -19 -14
1532331424274102 -5 -2 -21 1 2 -6 -57 -38
1532331424289063 -13 -12 -15 -1 -2 -20 -60 -27
1532331424318983 -7 -19 5 15 -1 -1 -18 1
1532331424333943 -2 -20 -13 13 6 6 44 18
1532331424363866 -11 -42 -67 -9 0 -6 -20 -40
1532331424385804 4 -49 -75 -2 -3 5 40 -3
1532331424408742 -7 -4 20 -9 4 -7 5 -6
1532331424431681 -7 4 -8 -12 -5 -5 -3 1
1532331424446641 12 32 60 3 2 2 -28 -16
1532331424483543 -7 -25 14 1 2 3 17 10
1532331424506481 -3 18 5 -4 3 2 8 6
1532331424536401 -3 5 47 7 1 -7 -5 -3
1532331424566321 -7 6 15 -4 -7 -2 -11 -8
1532331424603222 8 12 21 -1 -16 -10 7 9
1532331424619179 -13 -22 -38 1 10 11 6 -10
1532331424641125 -7 -7 3 -7 -7 -1 22 -1
1532331424686001 -2 -42 -29 -11 -6 -5 2 5
1532331424715921 -1 -9 10 10 16 4 0 4
1532331424760801 0 4 34 -6 -11 -3 -2 3
1532331424790721 -3 -5 14 0 11 3 3 -2
1532331424805681 2 2 -17 -1 2 -4 -3 -2
1532331424828619 4 5 15 -15 -18 -8 1 1
1532331424851558 3 2 28 15 21 -2 2 4
1532331424873500 0 -9 -28 21 25 7 3 5
1532331424888459 -4 -10 -26 1 -1 30 4 -1
1532331424926357 -8 -7 -35 -9 0 36 2 -2
1532331424948299 2 5 9 1 -3 0 0 2
1532331424971237 -7 -19 -13 -7 -16 -23 -12 -5
1532331424994177 -1 21 25 12 -3 -31 -17 1
1532331425016118 4 10 3 -11 -24 -54 -14 -1
1532331425046038 -2 -1 1 1 13 40 -10 -4
1532331425105877 5 13 13 4 -10 -33 -7 5
1532331425120838 0 17 9 9 13 37 -4 4
1532331425143776 -5 3 -8 -4 -13 -51 -7 12
1532331425158736 4 22 63 11 9 -37 -18 3
1532331425211594 2 0 -11 1 2 24 23 8
1532331425248496 -12 -15 -6 -8 -20 -29 -5 -9
1532331425279418 8 -1 11 5 3 4 7 17
1532331425293376 1 -21 -4 -12 -26 -31 -24 0
1532331425323296 1 -3 1 -3 -2 -38 0 6
1532331425361195 3 24 -5 -11 0 56 3 0
1532331425391114 0 -6 -18 -3 2 -11 -9 -3
1532331425443974 -8 -8 -9 -4 2 33 15 -8
1532331425458933 -1 -28 -27 8 8 -19 -4 9
1532331425495835 9 18 -6 -8 -15 -26 13 7
1532331425518782 -8 -13 -5 -5 -7 19 -3 -3
1532331425548693 0 15 -5 0 1 6 -6 5
1532331425623493 5 5 -12 -2 -13 6 2 15
1532331425661392 5 36 44 0 0 -16 -6 -6
1532331425676352 -2 4 -20 -5 2 11 1 -1
1532331425698293 -4 20 6 3 -7 -49 -22 4
1532331425728213 3 -4 -1 -5 -4 -35 -9 -4
1532331425751152 4 18 20 0 -8 -14 4 4
1532331425774089 1 -8 5 2 2 11 2 -4
1532331425804010 -1 -16 -19 -5 -11 -4 -5 -2
1532331425833930 -4 -35 -13 0 7 19 6 -2
1532331425863875 -6 -9 -16 2 -4 -6 -3 -3
1532331425885792 -2 -2 18 -3 -5 0 -1 1
1532331425916709 3 -13 -6 4 -3 5 12 0
1532331425931669 -2 0 -7 3 -3 -31 -9 -5
1532331425953610 -4 -21 -22 -6 -1 2 -7 -5
1532331426028410 -1 10 13 7 0 4 -1 -2
1532331426043370 1 -5 -21 4 -6 -11 0 -5
1532331426081269 2 28 29 -5 -5 -6 0 -1
1532331426103209 2 18 26 4 8 11 -3 -5
1532331426141109 -2 -14 7 -3 -5 -6 2 -3
1532331426164048 -4 14 6 1 5 24 1 -2
1532331426215909 -4 -40 -40 -5 1 10 3 -2
1532331426245828 -1 9 19 -2 2 4 -1 0
1532331426298687 -3 -3 14 0 -2 -3 -5 -4
1532331426336585 0 -12 -5 0 0 0 -3 0
1532331426358526 -8 -4 -24 5 4 1 3 2
1532331426396432 -3 -13 -34 -4 -2 0 -1 1
1532331426448286 4 9 32 -3 -5 0 0 7
1532331426478207 7 20 45 4 -3 -4 -2 2
1532331426524084 -6 3 18 -6 0 1 0 -14
1532331426568964 4 -24 -65 -5 -3 -2 -2 -2
1532331426590905 -2 2 9 -2 0 0 -1 0
1532331426620826 -4 -4 19 0 -3 1 -1 -6
1532331426643764 0 13 5 -4 -2 -4 -3 0
1532331426681663 -1 -12 -26 -2 -1 2 -1 -1
1532331426711583 0 10 12 -3 -2 0 2 3
1532331426741502 -2 1 13 -1 -3 -2 -1 1
1532331426756462 -3 10 22 4 0 -1 -1 -1
1532331426786383 8 0 0 4 3 5 11 5
1532331426801342 0 -11 2 -8 -2 -3 -3 -3
1532331426816303 12 -11 6 1 0 -1 8 7
1532331426846222 -4 14 6 2 0 -4 2 -2
1532331426861183 7 6 2 2 1 0 -5 1
1532331426884121 1 4 -2 -1 -4 -2 -1 -2
1532331426906062 -14 -36 -2 -5 -2 -1 -5 -5
1532331426921022 1 6 3 1 1 1 2 1
1532331426958927 -2 2 2 2 2 1 -1 -4
1532331426988841 -2 2 -10 0 -3 -2 -5 2
1532331427018762 4 18 -12 -9 -4 -1 -5 -2
1532331427040702 -1 -12 -25 -6 -6 -2 2 3
1532331427063640 -7 -6 19 -2 5 1 0 0
1532331427116515 1 6 -24 -5 -5 -1 6 6
1532331427146428 3 -6 43 4 2 -1 -26 5
1532331427183321 -7 -36 14 -1 2 0 3 2
1532331427213241 8 32 -21 8 2 -1 4 2
1532331427244158 3 16 18 5 3 2 4 -1
1532331427259118 -11 1 2 -3 -3 -2 -1 0
1532331427296019 1 8 15 5 3 3 1 -1
1532331427340914 1 6 -3 -2 1 -2 0 -3
1532331427355859 -4 7 8 5 3 1 4 0
1532331427385779 -2 -9 0 2 3 1 3 1
1532331427417693 1 -7 20 1 1 2 5 -2
1532331427461576 -2 -10 -20 -7 -3 -2 2 1
1532331427483517 -4 10 12 -1 1 0 -1 0
1532331427498478 1 29 -8 1 0 -1 1 -1
1532331427543357 -6 -9 -13 -4 -2 -3 -2 1
1532331427573277 3 10 0 -1 -2 0 1 0
1532331427619155 1 6 19 -4 0 -4 -15 -3
1532331427649075 3 18 44 -1 0 -5 -3 -5

1532331427678995 -3 31 7 5 3 0 -9 -10
1532331427708914 2 10 17 4 1 -3 -1 -2
1532331427723875 -2 -3 -16 -3 -5 -21 -5 -1
1532331427738834 -5 0 7 3 -2 -1 4 -15
1532331427753794 -3 13 10 1 3 -1 2 -3
1532331427783714 -3 12 -31 -1 3 4 -1 -2
1532331427806653 3 0 -5 2 1 2 -18 -10
1532331427828595 7 30 35 4 0 -2 2 -2
1532331427881453 -7 -5 -7 2 1 -2 -34 -11
1532331427896413 -1 6 1 -2 -2 1 11 5
1532331427942290 3 11 5 2 1 0 6 9
1532331427994152 1 15 -10 -4 -3 -4 2 -4
1532331428016093 0 10 -15 2 0 2 3 3
1532331428046012 -8 -1 3 -2 2 -1 -1 -4
1532331428084922 -5 -29 -23 -2 0 -1 -3 -10
1532331428113832 -2 -6 -7 4 2 0 -6 -3
1532331428143751 1 -6 -9 -1 1 0 1 -4
1532331428165693 -1 -4 9 -1 0 0 10 3
1532331428211570 5 37 -4 0 -2 -1 -1 2
1532331428226530 -1 -5 8 -2 -2 0 2 1
1532331428241490 1 11 7 0 -1 -3 -7 -1
1532331428263431 3 -14 -11 -5 -4 -4 -7 5
1532331428286370 -5 -21 -9 2 -1 -1 4 0
1532331428301330 1 -12 -8 -3 -1 -1 2 1
1532331428323272 4 36 3 2 2 1 0 1
1532331428346210 1 -2 -4 0 -3 -2 0 -4
1532331428369148 -5 -29 20 0 0 0 3 2
1532331428428988 -3 4 6 -1 -2 -1 2 -3
1532331428443948 -6 -14 -4 -1 1 1 1 0
1532331428465890 1 24 16 1 4 4 -11 -14
1532331428480878 3 9 10 -1 -1 0 8 0
1532331428510769 0 -27 -16 -4 0 1 14 1
1532331428563628 0 -13 -33 0 -1 -1 -3 -14
1532331428586567 8 7 -1 3 2 -2 -6 4
1532331428631447 1 4 -19 -3 -1 -4 -2 1
1532331428668348 1 -2 -8 -2 -2 -2 10 0
1532331428683308 -3 1 -14 0 -3 -2 0 6
1532331428698268 3 7 -23 0 -2 -1 4 3
1532331428736167 6 28 -1 -1 2 -3 3 -2
1532331428759105 0 1 -17 0 0 1 10 4
1532331428796007 -3 2 19 3 -1 0 3 -2
1532331428810967 -1 4 -14 -1 0 0 -2 -4
1532331428825927 -6 -11 13 0 2 0 -3 -1
1532331428848865 0 2 -14 -2 -1 2 -10 -4
1532331428863826 2 8 9 -1 -2 1 4 0
1532331428893745 -2 0 -9 -1 0 -1 -3 -2
1532331428915687 2 -12 -28 0 -1 -2 -8 1
1532331428931643 -9 -13 -17 -2 -1 -3 -21 -11
1532331428961564 -7 3 -2 0 -1 -1 -1 -4
1532331428991484 -7 -11 -24 -5 -3 -3 1 1
1532331429013438 1 0 2 -1 0 1 0 -1
1532331429028385 3 17 -5 2 0 1 -1 -2
1532331429043345 4 5 21 0 0 2 2 -1
1532331429066284 -1 5 7 0 0 -3 -2 -1
1532331429088225 13 8 12 0 -1 2 2 19
1532331429104182 -1 3 -5 -2 -3 -1 5 0
1532331429141084 4 6 1 2 0 1 0 1
1532331429171003 -1 -8 -49 -3 0 -2 -1 -6
1532331429193942 -4 -3 11 1 -1 -2 1 3
1532331429208902 -2 -7 1 -2 1 4 -9 4
1532331429238823 0 6 -32 0 0 3 -1 -5
1532331429268742 -1 -8 -3 -2 0 2 2 -2
1532331429315616 -9 0 -8 -2 -4 -3 -9 -14
1532331429343542 1 24 0 -2 -2 -2 0 -1
1532331429433302 1 33 30 5 3 10 9 4
1532331429471201 7 15 14 3 4 15 -5 9
1532331429540016 -2 -16 -27 -6 6 -2 -5 -4
1532331429560960 1 -9 3 -2 -5 2 -2 -1
1532331429575920 1 -7 -20 -5 -2 -3 -1 1
1532331429605841 0 -2 -10 3 8 -1 -1 3
1532331429620800 -3 -11 -15 9 -2 0 -3 -5
1532331429650720 -16 -12 6 1 -27 -7 -8 -3
1532331429673659 0 -4 -3 -8 -4 0 -2 3
1532331429703579 -4 -3 0 1 -1 -2 -2 -2
1532331429741477 5 19 24 13 -6 2 3 12
1532331429771398 -5 -5 9 -5 10 -4 -3 -12
1532331429786358 5 -1 8 21 17 6 5 0
1532331429808301 -20 0 5 -7 -5 -6 -3 11
1532331429839216 -8 5 6 1 21 1 10 -5
1532331429861157 -5 -5 11 9 13 -1 -6 -9
1532331429906037 -3 2 -12 -9 5 -2 -8 5
1532331429928976 8 4 -4 -10 -11 -3 -10 7
1532331429958896 5 3 20 12 0 3 0 3
1532331429980838 3 -1 -14 5 1 -1 -7 1
1532331430018736 2 -1 -6 -4 -5 0 4 4
1532331430048656 4 -6 -18 -6 0 -3 -7 -4
1532331430086554 -7 -2 3 0 -4 -1 -2 1
1532331430108496 -4 5 8 5 -2 0 6 1
1532331430138416 6 -3 -3 -1 1 0 2 10
1532331430161354 0 -5 -4 1 3 3 2 -2
1532331430198255 13 9 4 -6 -1 0 8 9
1532331430221194 2 -1 -8 -1 -4 -5 -12 -5
1532331430266074 4 -7 -24 1 5 17 4 1
1532331430295994 -11 8 22 -3 -3 -7 6 -5
1532331430333893 4 0 12 15 8 5 6 -2
1532331430363814 2 4 -11 -5 -5 -2 -5 -5
1532331430416672 -1 -11 -5 4 -1 -4 -7 -1
1532331430468532 5 -5 -23 4 7 5 0 3
1532331430498453 2 1 0 -5 -1 -2 1 -3
1532331430528373 1 -1 9 0 1 10 6 0
1532331430588213 -1 8 0 1 -2 -10 -10 0
1532331430634090 0 8 6 -1 1 -1 3 2
1532331430656031 -5 -5 -8 -2 2 1 -5 -2
1532331430685950 2 4 4 0 -3 -1 1 7
1532331430738809 1 0 -1 2 0 8 8 -2
1532331430775711 -7 -2 -2 -1 -1 1 8 -9
1532331430821588 -2 4 3 -1 2 3 -1 0
1532331430858489 2 2 2 -1 0 1 -3 0
1532331430881428 0 3 3 -2 -1 -3 0 -2
1532331430918330 6 26 28 3 0 -4 -1 2
1532331430942265 -2 17 0 3 6 14 2 -2
1532331430986148 -14 -50 19 -24 -19 -39 -12 -8
1532331431009087 0 -31 -38 3 -3 -13 1 2
1532331431039006 5 2 55 14 5 14 -5 4
1532331431060948 3 1 -11 -6 0 -1 4 4
1532331431105828 0 -1 -28 -4 -3 7 2 -2
1532331431158687 -4 22 58 11 1 -32 0 -6
1532331431181625 5 2 -34 3 15 11 6 6
1532331431218526 0 21 63 -1 -2 -6 -4 -2
1532331431241465 -6 -30 -38 -20 -12 -16 0 -6
1532331431286346 -1 29 2 9 4 -8 -6 -1
1532331431346185 -3 -1 17 -2 -1 -8 -9 -3
1532331431361144 1 5 18 2 0 -8 1 1
1532331431399044 -4 -9 -4 4 4 -4 -3 1
1532331431420984 2 -12 -46 -5 0 -12 -4 1
1532331431458884 -3 -21 12 7 13 12 -4 -3
1532331431480825 -1 -2 1 -4 -2 -3 1 0
1532331431518723 1 3 -36 -5 -3 -5 -10 0
1532331431541677 -3 1 -43 -13 -1 21 0 -1
1532331431586556 -1 4 19 3 -4 4 -1 1
1532331431616462 1 17 -10 -2 -1 21 -3 1
1532331431661342 3 6 12 4 -1 0 -4 1
1532331431707219 -4 -4 -22 -1 0 -8 -6 -9
1532331431736142 4 25 39 5 0 0 -2 0
1532331431766062 5 9 20 0 3 5 9 2
1532331431789001 -1 2 -16 4 0 -5 10 -2
1532331431825902 0 5 16 1 1 9 -3 2
1532331431848840 -2 -19 -51 -7 1 9 16 4
1532331431863801 0 -1 17 7 1 -5 -13 -2
1532331431878760 2 4 6 -6 1 -5 -6 -1
1532331431893720 4 5 -6 -6 0 10 0 0
1532331431923640 -2 -1 36 6 1 2 1 0
1532331431938600 -1 8 25 5 -1 6 -19 -18
1532331431961539 3 -3 -8 2 6 12 -1 -2
1532331431976499 -6 -6 9 -9 -9 -16 8 0
1532331431998440 -14 15 -38 -11 -6 -14 -4 -7
1532331432013400 2 8 18 -2 -5 -6 -8 -2
1532331432036339 0 -13 -3 -3 -3 6 -7 -14
1532331432051298 -2 3 11 10 11 26 -5 1
1532331432073240 0 7 12 -2 -4 -12 2 -4
1532331432104157 3 2 26 3 2 -11 -5 3
1532331432119117 -7 -34 -20 -3 0 -6 7 -14
1532331432141059 -1 -14 -55 -2 1 6 -6 -1
1532331432163997 2 -2 -17 0 -3 6 -11 3
1532331432185939 -5 4 31 -5 -5 -5 -1 -3
1532331432215859 0 4 26 1 1 5 -3 0
1532331432245778 2 -8 -20 -4 -3 1 0 3
1532331432275699 -1 -6 1 -2 -1 1 -2 -1
1532331432291656 0 0 2 1 1 -11 3 -1
1532331432313596 -1 -3 -9 -1 -1 6 4 0
1532331432336535 3 -9 -6 -2 2 2 2 2
1532331432351502 0 7 3 1 -2 1 8 0
1532331432381416 -2 -7 4 -3 -3 -2 1 0
1532331432403357 2 0 10 1 -1 -1 1 -2
1532331432426296 1 -2 -4 -6 -1 0 1 1
1532331432441257 -3 -9 -25 -5 4 0 4 -1
1532331432464194 -1 1 7 1 1 0 1 1
1532331432479154 0 -1 -25 -6 -1 -2 -2 1
1532331432501096 1 0 4 1 -1 -2 -1 -2
1532331432516056 -3 -7 -36 -1 -3 0 -1 -3
1532331432538994 -1 -2 9 -1 -4 -3 -2 2
1532331432560935 2 -3 -5 0 0 0 1 2
1532331432583874 -3 3 6 0 0 -1 -2 0
1532331432613809 -2 -2 0 -6 -5 -2 -2 -1
1532331432643714 0 3 -4 4 7 0 0 -1
1532331432666653 -5 3 -2 -5 2 0 0 -2
1532331432681613 -3 -5 -20 -9 -8 -2 -7 -1
1532331432718514 -1 -2 11 0 -1 -1 6 4
1532331432733474 0 1 -1 -1 -7 -5 -8 -1
1532331432763394 2 -2 -5 2 -4 3 0 1
1532331432786333 1 4 20 8 4 0 -4 -3
1532331432808274 -2 -6 15 0 -5 9 6 -1
1532331432831214 1 1 -4 3 0 -4 1 -3
1532331432846173 0 1 -6 -7 -2 -3 0 -1
1532331432861133 3 -3 -28 -15 -7 -5 -2 0
1532331432884071 -1 1 6 -4 -3 2 1 1
1532331432906012 4 7 16 3 1 -16 -1 0
1532331432920973 1 -3 5 9 4 -7 -1 0
1532331432943911 2 -4 -10 0 -1 -4 2 -1
1532331432958870 0 1 1 0 -4 9 4 -1
1532331432973831 -5 1 -1 -10 -6 -4 -6 -3
1532331432995772 -1 1 12 5 -4 -18 -7 -2
1532331433018710 2 0 6 3 -2 -2 0 0
1532331433033671 2 5 16 7 5 -11 -3 3
1532331433056609 1 4 15 13 3 7 -1 -2
1532331433078550 0 0 -10 6 13 -3 1 2
1532331433101490 -3 -2 -11 2 3 -14 -4 0
1532331433123431 -9 -4 -4 -20 13 0 -1 -3
1532331433153350 6 21 18 23 10 12 2 0
1532331433168310 -1 -4 -9 4 4 -5 -1 -3
1532331433191249 -7 1 11 -4 5 0 -2 -1
1532331433214189 3 1 25 13 34 6 0 5
1532331433236129 4 -8 0 -25 -30 8 7 9
1532331433259067 12 9 9 9 13 17 2 13
1532331433274028 -13 20 -44 -19 -26 -31 -17 -5
1532331433295969 10 -21 -89 -3 -3 -2 -3 4
1532331433318908 0 -88 -126 24 32 8 4 -10
1532331433333868 110 -85 92 -27 -57 -7 -2 10
1532331433363789 -106 -128 109 9 -66 13 -2 90
1532331433385729 -72 -128 127 12 -125 -102 1 -92
1532331433401687 -112 -53 75 104 -40 -52 -59 12
1532331433431607 127 9 -71 -35 -59 33 17 -9
1532331433453547 16 22 -24 21 67 10 -10 6
1532331433476486 -15 -19 25 30 48 5 -1 39
1532331433491447 -15 8 -18 2 -21 -3 -6 4
1532331433521366 2 4 1 19 16 13 4 -2
1532331433543307 -11 3 -44 -18 -7 6 3 9
1532331433573228 -1 -2 -21 1 8 62 17 -5
1532331433604145 8 6 7 -22 -9 -13 1 16
1532331433619105 0 4 -4 8 -15 -46 -9 -1
1532331433663985 -5 2 -2 -8 -6 -3 0 4
1532331433685926 -6 4 -32 -3 4 -14 -4 -6
1532331433708864 -3 -10 -17 -2 -3 -15 -10 -31
1532331433723825 8 6 11 2 2 -2 -6 5
1532331433738785 -8 9 10 -2 -5 0 3 -4
1532331433768705 1 -3 -16 -4 -1 -1 -1 1
1532331433783665 4 27 24 2 1 5 11 18
1532331433806603 7 0 -8 -1 -1 -2 -6 6
1532331433836524 -9 -46 -20 -8 -4 -2 -3 -12
1532331433858464 -4 7 17 5 0 0 3 -5
1532331433881403 -12 -22 -39 -2 -3 1 16 18
1532331433896363 -1 5 -20 4 -1 -4 14 -12
1532331433941243 14 18 -7 6 4 -2 -20 0
1532331433964196 9 10 6 3 3 -3 0 10
1532331433979142 -12 -48 9 -2 -3 -8 2 5
1532331434001099 7 44 35 9 1 2 14 4
1532331434024022 -2 23 -2 3 1 2 -9 -3
1532331434053942 -16 -3 21 -1 3 5 12 -13
1532331434090843 -11 -4 46 -9 -4 -3 -2 -13
1532331434105803 3 11 -101 -10 1 -2 -7 5
1532331434120763 -10 4 38 5 -1 1 -20 -9
1532331434143701 3 -15 -3 5 1 0 17 3
1532331434173621 14 28 -10 -4 -2 -2 3 -1
1532331434203542 7 11 -21 -4 -3 1 -7 -2
1532331434226480 -4 2 -9 2 0 -1 -18 -2
1532331434241440 20 19 10 0 2 1 10 -1
1532331434256400 -4 -25 -4 -1 6 2 1 4
1532331434278342 4 13 3 3 6 1 2 3
1532331434308261 2 5 1 -6 -2 1 1 -2
1532331434324219 0 -18 -2 -8 1 -1 -2 -1
1532331434354139 3 -3 15 -2 7 -3 0 4
1532331434384059 -4 -17 -3 10 0 -1 -1 -1
1532331434405999 -3 7 -2 10 4 3 1 -2
1532331434428939 0 -3 -22 -2 3 1 0 -2
1532331434443899 -5 1 10 -7 -4 -3 -4 -4
1532331434465840 4 21 28 1 -3 0 1 1
1532331434488779 -3 -8 -14 -5 -10 -2 0 -1
1532331434533659 2 7 23 15 11 1 0 0
1532331434571557 6 -5 5 10 11 9 6 10
1532331434586516 5 12 5 -3 -3 8 1 0
1532331434601477 7 13 22 8 10 6 -3 4
1532331434623419 8 2 12 5 2 -14 0 4
1532331434661317 -4 -7 20 -6 -9 -20 0 -13
1532331434692234 1 -3 -1 -3 -5 1 0 -2
1532331434721156 -11 20 -1 4 -1 -1 -34 -10
1532331434774016 -15 7 -3 -2 -7 -2 8 5
1532331434795957 44 45 14 4 -3 11 13 32
1532331434818895 1 -42 2 2 4 -15 -5 12
1532331434840837 7 -13 -1 -7 3 26 2 8
1532331434863791 2 5 0 -5 -30 -43 -5 -3
1532331434878736 17 -37 5 2 -1 17 -10 13
1532331434908655 3 35 -24 -8 -28 -43 -24 0
1532331434938575 -10 -17 -4 -3 15 40 9 11
1532331434983455 16 -13 5 1 17 31 -7 -2
1532331434998415 -4 -3 5 0 -6 -32 18 19
1532331435043295 3 -8 -20 -12 -16 6 36 -12
1532331435081194 1 -2 -7 -3 -17 -39 -9 3
1532331435096154 5 19 10 16 -2 -59 5 -1
1532331435111114 2 -10 -1 -4 -24 10 -7 18
1532331435126073 -7 -10 -9 5 26 -48 -6 7
1532331435141034 8 -2 -1 -8 -21 -33 8 1
1532331435163973 2 -2 3 8 70 13 -1 -6
1532331435178932 -6 26 -5 -9 -26 34 2 -2
1532331435208853 -9 -4 -4 2 19 -50 -4 -17
1532331435238773 -6 -2 10 -9 17 11 -1 -2
1532331435268692 9 14 -22 0 7 -54 -24 25
1532331435292628 5 29 20 15 38 48 4 6
1532331435306591 3 6 9 2 1 30 -4 5
1532331435321551 0 -1 7 5 6 0 15 -1
1532331435343492 -8 -55 -14 -9 2 38 -9 -3
1532331435381391 -2 -7 -55 -15 -33 -21 -12 -5
1532331435403332 -4 -2 -12 -1 -8 -11 3 11
1532331435433252 -4 -11 -5 -3 11 31 2 1
1532331435457188 0 -12 -21 -24 -19 -46 -13 -2
1532331435486110 0 6 23 17 5 -20 -8 -2
1532331435501071 -6 -11 5 -4 0 15 -9 -5
1532331435524009 -4 3 51 5 0 -32 -52 -2
1532331435553947 -1 -2 12 -1 -8 -18 -2 3
1532331435568889 0 3 -9 -1 5 30 3 -5
1532331435590830 -1 0 -3 5 -5 16 7 1
1532331435620750 2 8 18 5 14 20 15 3
1532331435643689 -5 -22 -17 -10 -6 -1 3 1
1532331435666628 -4 -19 -8 -6 -13 -66 3 -2
1532331435681599 1 -5 -17 -2 -3 3 0 0
1532331435703529 0 23 26 -3 10 10 -1 -1
1532331435726468 2 5 -10 -6 -10 2 5 2
1532331435741428 0 -4 -8 6 5 -22 -14 6
1532331435763370 2 8 27 3 10 20 3 -6
1532331435786308 2 -6 10 7 4 19 16 16
1532331435801267 -8 -21 -50 -6 -10 27 -7 -11
1532331435823209 1 -8 14 4 7 -19 -9 -3
1532331435846147 2 8 -12 2 9 27 0 1
1532331435861108 -3 -7 -25 -5 3 -3 18 10
1532331435891028 3 5 8 7 -1 4 10 6
1532331435928926 -1 11 52 8 7 14 -2 -2
1532331435950867 -2 0 19 4 3 29 15 -5
1532331435965828 1 -5 -32 -5 -2 -23 8 -2
1532331436011705 -2 6 -1 -3 2 0 -1 4
1532331436041624 -4 8 -5 -1 -3 -17 3 4
1532331436056585 1 19 33 -1 -6 0 0 0
1532331436086504 3 -5 24 4 6 17 -7 1
1532331436123406 -6 -16 -43 -5 1 -1 2 -3
1532331436147342 1 1 -22 -8 -2 -8 -3 1
1532331436162301 -2 1 33 -1 -3 3 0 1
1532331436183246 -2 1 20 -6 -8 -15 -1 -5
1532331436198206 -1 -3 48 0 -2 -22 -47 -9
1532331436251064 2 -14 -24 -7 -2 7 4 5
1532331436281002 -7 21 83 -1 3 1 -9 3
1532331436303922 -4 -27 -67 -8 -5 -7 3 3
1532331436325864 -3 -19 -30 -3 4 4 2 -4
1532331436340824 -8 13 -7 10 4 2 -1 -3
1532331436378723 0 -4 -22 -6 -4 -6 -8 -6
1532331436424600 2 0 -6 -5 -2 8 3 2
1532331436453523 8 -4 -3 -4 -2 1 2 6
1532331436483443 -2 15 29 1 2 12 7 -3
1532331436513364 0 8 -41 -28 -7 -5 -11 -5
1532331436536302 -3 -31 -30 5 4 -1 3 -3
1532331436558243 -1 -11 18 4 4 6 3 -2
1532331436582179 2 31 -2 1 1 5 17 2
1532331436619081 1 8 14 0 -4 -2 -11 -3
1532331436670941 -1 21 37 -7 -6 2 1 1
1532331436700861 -2 -4 -5 -4 0 1 1 1
1532331436715820 3 3 20 3 0 2 -1 4
1532331436753720 1 0 -26 3 3 4 -2 2
1532331436783640 6 27 15 0 -2 1 -1 -2
1532331436806579 -3 -12 -11 0 0 -1 -3 -2
1532331436821539 5 10 -7 3 -1 2 1 1
1532331436866418 -4 -14 -11 -3 -1 -3 -4 -3
1532331436881379 -9 -24 -4 0 -1 0 0 -3
1532331436903319 2 12 -4 -4 -1 0 -1 -1
1532331436934245 0 1 -2 0 0 2 1 -1
1532331436956178 -3 -15 -42 -7 -3 -3 -2 -1
1532331436986097 -6 7 11 2 4 1 1 -2
1532331437016018 -1 -16 -35 -4 -1 -3 0 -1
1532331437030989 1 10 29 0 1 2 -8 -17
1532331437075858 7 6 -6 2 -1 -1 2 6
1532331437113756 -2 1 -12 1 -1 -3 0 -8
1532331437188557 3 14 10 4 -3 3 -22 -9
1532331437301255 -9 -5 2 -4 0 0 -1 -1
1532331437346135 -21 -6 -26 -2 0 1 -2 4
1532331437413954 -6 -23 -28 -10 -5 -4 -5 -20
1532331437435894 11 61 55 6 1 -13 -1 -3
1532331437450855 -1 -1 17 -1 -3 1 22 7
1532331437496732 1 3 -18 -4 -1 3 6 1

1532331437518674 -6 -3 8 -5 -5 -3 6 2
1532331437593473 2 -8 -6 1 -1 2 1 2
1532331437623393 0 -4 6 -3 -4 -3 -1 -2
1532331437669208 4 -8 -33 -3 1 0 1 1
1532331437691168 -6 -16 -13 -6 -4 0 -2 1
1532331437744027 0 -5 27 -3 -3 -2 -2 -2
1532331437825808 0 4 -6 2 2 1 0 -1
1532331438006324 4 12 9 3 -2 -1 -1 1
1532331438133983 -1 13 1 1 2 -1 -1 0
1532331438178864 0 -11 -6 -4 -4 1 1 -1
1532331438208783 -2 -6 -17 0 -1 -2 1 -1
1532331438230725 1 -1 -2 1 0 0 -3 -1
1532331438261642 -1 2 -8 -2 0 1 0 -1
1532331438283584 0 7 -15 -1 3 -2 -1 -2
1532331438306522 -1 -2 12 0 0 -2 0 1
1532331438321482 0 6 -4 1 -1 -1 0 0
1532331438343423 -5 -13 -6 0 -1 -2 -2 -1
1532331438381322 -1 10 18 -2 -2 -1 -3 -2
1532331438411242 0 -4 1 -2 1 -3 1 2
1532331438434180 0 1 -5 -1 -1 0 -1 -1
1532331438471082 1 3 -7 0 0 -1 1 0
1532331438486041 -1 9 0 0 0 -1 -1 -1
1532331438501002 0 3 2 3 1 1 -1 -2
1532331438530922 -6 -10 5 1 -2 0 0 -1
1532331438560841 0 0 7 0 1 0 -1 -3
1532331438575802 4 -2 -6 -2 -1 -1 0 2
1532331438598740 1 -6 -4 0 1 -1 0 -1
1532331438628660 3 4 7 -2 0 -1 5 3
1532331438651599 -1 -6 -7 -3 0 -2 -4 -3
1532331438681519 2 -1 -1 -1 -1 -3 -4 -7
1532331438703460 -2 -25 -11 -2 1 1 7 -2
1532331438741375 0 13 5 -1 -2 -1 0 4
1532331438756335 -1 -6 4 0 -2 1 2 0
1532331438771295 -2 -8 -4 -1 -2 -1 -12 -5
1532331438793236 -6 14 7 -2 0 -1 0 -1
1532331438809194 -3 -1 -2 -2 -5 -1 1 -2
1532331438831135 0 5 4 0 -1 1 2 3
1532331438853355 1 4 6 1 0 1 2 4
1532331438868314 -1 2 -6 -1 0 -1 3 2
1532331438891253 8 14 -8 1 -1 1 0 0
1532331438914192 -6 -15 -6 -3 0 -2 0 -7
1532331438936134 1 -12 -1 -1 -1 -1 -1 -2
1532331438951093 0 1 4 0 -1 -3 -1 -3
1532331438981014 -1 -25 -5 -2 0 -2 5 1
1532331438995973 2 11 17 0 -1 -1 0 1
1532331439018912 -2 -15 -12 -3 -2 0 0 0
1532331439048832 0 4 1 -1 1 0 1 -4
1532331439070774 -1 -1 1 4 0 0 -2 2
1532331439101690 -8 -9 5 -2 0 2 -5 -3
1532331439123632 6 33 16 -1 -2 -2 -2 8
1532331439146570 0 3 4 0 2 13 9 0
1532331439183472 7 14 11 0 -4 -11 15 6
1532331439221370 -5 17 25 -1 -3 0 1 -6
1532331439236346 -2 -13 -49 -6 0 12 -3 -2
1532331439258272 5 8 1 2 1 6 1 -1
1532331439289194 0 -2 -5 5 1 -2 -2 -4
1532331439319109 1 5 -8 7 4 -2 1 -1
1532331439349040 -2 0 -9 -7 -4 -4 -1 -1
1532331439378948 -3 8 3 -18 -25 -3 -2 -3
1532331439438788 2 -2 -8 10 8 -2 -1 0
1532331439453749 10 1 7 7 2 0 1 5
1532331439483669 -19 -5 -7 -2 -15 -11 -3 -12
1532331439498628 17 5 1 4 14 1 -4 15
1532331439521567 10 0 4 0 5 -1 -11 -4
1532331439543508 -16 -18 -5 1 -19 -3 3 -41
1532331439558469 -17 -21 -5 18 11 0 -3 -7
1532331439588389 -18 -10 -6 -6 -5 -3 2 -10
1532331439603349 5 -2 -5 -4 -6 1 0 11
1532331439634266 -3 -9 -9 5 10 2 -4 -4
1532331439656207 16 -1 -11 -6 -6 -5 -5 19
1532331439671167 -4 -5 -8 -1 -2 -3 -7 7
1532331439694106 -4 2 9 -10 -1 3 4 -6
1532331439716047 -5 -1 -5 7 -4 -3 -14 -4
1532331439753945 8 7 5 0 0 -1 7 15
1532331439783866 2 8 -3 -8 -5 -6 3 15
1532331439798825 7 2 -3 -7 -5 -4 3 11
1532331439820767 3 -1 -12 -11 -2 3 3 -6
1532331439835727 9 4 33 15 6 2 8 -2
1532331439858665 4 -4 -4 -2 -4 -2 -3 -3
1532331439873626 -5 -3 4 -1 -1 -5 -3 -2
1532331439896571 0 9 -1 -4 -2 3 1 5
1532331439911524 -4 3 5 -6 -3 -2 1 4
1532331439933465 -9 -4 -7 -11 -3 -7 -6 -13
1532331439956404 -7 -4 -23 -5 0 -9 -3 0
1532331439978345 7 5 -6 -3 7 13 8 1
1532331439993305 6 20 11 8 1 1 4 11
1532331440016244 -4 14 7 -1 0 8 4 -4
1532331440031206 20 21 1 11 6 -1 -2 5
1532331440061124 -15 -37 -12 4 -9 -10 1 -7
1532331440076084 -5 -5 -1 -22 -9 -7 -8 -9
1532331440091044 -11 30 -1 -5 -2 0 0 -8
1532331440113983 -3 -46 3 2 0 3 -1 8
1532331440135924 -9 8 -8 1 -2 -3 8 0
1532331440158862 -2 -1 5 6 4 1 1 -8
1532331440173824 6 15 4 0 1 7 5 0
1532331440195763 -8 -9 8 5 0 -4 6 3
1532331440218702 0 4 -6 -4 -2 0 -3 6
1532331440233662 -3 -4 4 -4 -2 2 8 -2
1532331440256601 -1 6 6 0 -3 5 0 -3
1532331440278553 0 -4 -3 2 1 1 1 2
1532331440293503 3 1 -8 0 0 1 -2 -1
1532331440316441 11 9 3 -1 -2 -2 3 0
1532331440331402 -1 -1 -3 -4 -3 -5 -8 -8
1532331440353343 2 -8 -3 -4 1 9 5 8
1532331440376281 -6 -15 -2 1 0 0 11 -3
1532331440391241 -3 -6 -1 -1 -1 0 0 -3
1532331440421161 -4 -9 0 -2 0 3 5 0
1532331440444100 -1 6 0 -1 0 -3 -3 0
1532331440488979 -1 -2 -1 0 -2 -4 0 -1
1532331440525881 2 3 -1 -2 -2 -4 0 1
1532331440555801 -1 0 0 -1 0 3 -3 1
1532331440578739 0 -3 0 -2 -1 -1 0 0
1532331440593699 2 -3 -5 -2 -3 -6 -1 -1
1532331440616638 2 0 5 6 3 -2 1 1
1532331440638578 -1 1 0 8 0 -2 1 0
1532331440653539 1 -1 -8 -8 -13 -4 -2 -1
1532331440676478 5 21 35 12 4 -6 -3 0
1532331440698419 -5 9 20 -12 -22 -26 -7 -7
1532331440713379 -3 -7 2 -10 -5 0 -2 -2
1532331440736318 -1 1 -7 -6 -7 -43 -5 -2
1532331440759257 2 6 77 -3 -8 -2 -2 2
1532331440774220 2 22 -73 9 21 12 3 1
1532331440804137 -2 -6 -27 -8 -14 8 -2 2
1532331440834056 0 -28 -64 -24 -23 -9 -7 1
1532331440863991 -1 -43 -126 -17 -8 14 -2 1
1532331440894894 -2 -19 -43 -5 1 15 3 1
1532331440915838 -1 -26 -31 -6 2 16 1 2
1532331440938776 -4 -5 32 2 3 17 -1 -1
1532331440953736 0 -4 11 0 -9 -8 -2 -3
1532331440976674 -2 31 17 0 7 9 2 -1
1532331440998626 2 -4 -8 17 7 26 7 1
1532331441013576 -2 11 8 2 -12 -4 -13 -4
1532331441036515 -2 4 -6 4 -8 -47 -2 0
1532331441073416 4 -9 -61 -1 10 10 6 1
1532331441103336 -2 13 10 -7 -7 -13 2 -1
1532331441143230 -4 -7 6 -2 -1 0 -5 -2
1532331441164174 2 -16 -12 8 11 -4 2 1
1532331441186115 1 6 -35 -8 -10 -18 0 -1
1532331441230994 -1 11 26 -5 2 -1 2 -1
1532331441261912 2 -2 1 -3 13 8 15 0
1532331441290834 0 -3 -9 -3 -6 -5 -12 0
1532331441320754 2 6 -31 -3 -5 3 3 1
1532331441343693 -1 0 -5 -8 -5 -8 -9 -3
1532331441358653 2 -3 -2 9 8 -5 -3 1
1532331441381592 1 3 -26 2 0 -2 0 -3
1532331441396551 2 1 31 6 14 -4 -5 1
1532331441418493 -8 -4 1 -10 -6 2 1 -4
1532331441441432 0 -4 -28 -18 -21 -20 0 0
1532331441456392 -1 -21 2 4 -2 -6 5 0
1532331441479330 -3 6 -4 1 9 4 -1 -2
1532331441501271 -5 -1 1 0 3 -3 -1 -3
1532331441516231 -6 2 -12 -4 -3 1 -1 -6
1532331441539170 -1 -3 7 9 3 7 6 4
1532331441561112 0 -14 -58 -9 -6 -4 -5 0
1532331441576072 -1 14 12 -8 -7 5 -2 0
1532331441599010 -8 -38 -79 -9 -8 -3 -3 -2
1532331441665832 -3 -2 -4 -4 -3 -4 -2 -11
1532331441680808 -7 -31 -1 -2 1 -5 1 -3
1532331441697752 1 3 -16 0 -3 1 -8 1
1532331441718690 -1 -12 -34 -2 -3 0 1 0
1532331441748610 0 -8 -38 -6 -5 1 7 -4
1532331441763595 0 30 -17 -5 -8 -1 12 -2
1532331441793490 -1 -5 -2 -5 -12 -3 -1 -1
1532331441823410 1 8 28 0 10 0 -5 -3
1532331441846348 1 3 -1 -8 -4 -7 -6 0
1532331441861308 -6 2 -19 -1 -4 1 3 -2
1532331441883250 -2 -4 1 -3 -6 1 0 1
1532331441921148 2 12 2 2 -2 3 2 1
1532331441953064 -2 4 -33 0 6 -4 -6 -2
1532331441988967 -1 -8 -1 2 3 -7 -5 2
1532331442018886 2 -2 -1 1 0 3 0 4
1532331442033848 -1 4 -2 -5 -1 1 -2 0
1532331442063767 1 5 4 1 0 0 1 1
1532331442078727 -1 6 2 2 -2 -1 -2 0
1532331442093687 -5 -15 -5 -2 -4 -5 -5 -5
1532331442131586 0 -4 -6 0 -6 1 0 -1
1532331442146546 -1 0 14 -1 0 0 0 -1
1532331442183446 4 5 -15 4 2 0 1 2
1532331442215361 -5 -4 0 -2 -3 -2 -2 -4
1532331442228327 11 25 -19 -2 5 0 1 3
1532331442243287 -2 -2 -10 -2 6 1 0 1
1532331442274203 2 -7 -2 4 3 -1 -1 2
1532331442289164 -11 -47 15 -1 2 2 -1 -10
1532331442326066 -1 6 2 -1 0 1 -2 -2
1532331442349004 3 1 9 3 5 3 0 2
1532331442378924 4 -6 -10 -3 -3 0 0 6
1532331442408844 2 2 16 1 2 5 -3 -10
1532331442430785 -12 3 -20 -3 0 7 -9 -3
1532331442445745 -3 -3 21 5 0 -5 -3 5
1532331442460705 -2 -20 -72 -5 1 -5 -5 -5
1532331442498604 5 14 6 -1 -2 -6 1 -2
1532331442528524 -6 -30 -3 0 -2 -5 7 -11
1532331442573404 -2 14 -23 -6 2 27 -1 0
1532331442694093 1 -7 -6 -2 1 -1 0 -1
1532331442760903 -2 6 35 -4 -3 -11 -4 3
1532331442775862 2 -4 -4 10 9 6 4 -1
1532331442798801 -9 -27 -32 -4 1 13 6 5
1532331442820741 1 -3 31 2 -2 -9 -7 0
1532331442858641 2 -6 10 5 1 -1 -1 -2
1532331442873600 3 -6 -17 0 1 8 0 13
1532331442918480 -6 -10 3 -3 -2 -5 -2 -1
1532331442941419 12 17 30 4 -2 -4 1 10
1532331442971352 -7 22 31 9 4 -1 3 -4
1532331442993280 -1 6 15 3 4 10 1 -4
1532331443031181 -11 9 -21 -4 -2 6 -5 -8
1532331443054117 -2 -11 7 -2 -4 -9 -3 -6
1532331443098998 4 -34 -23 0 2 4 2 10
1532331443135899 3 3 21 -1 -1 -5 3 3
1532331443173798 2 6 -41 -5 -8 -14 -1 3
1532331443241616 0 6 22 8 -2 2 -7 -2
1532331443293477 13 0 -37 2 1 0 0 9
1532331443391232 -6 -8 -59 -16 -8 -4 -2 2
1532331443421136 2 4 45 8 5 3 -2 7
1532331443503915 4 -6 11 2 -3 -6 -9 2
1532331443540816 -2 -12 1 5 -2 -6 -12 -3
1532331443593675 3 16 11 3 -2 0 6 2
1532331443608634 3 4 -5 10 4 2 -2 -2
1532331443668475 4 13 6 -8 -5 -4 0 3
1532331443713354 -5 3 2 0 -23 -3 -1 -4
1532331443751253 1 2 -29 3 0 3 4 -1
1532331443773194 -2 -10 -35 -22 7 -4 -2 -2
1532331443826053 2 -18 5 -18 0 -2 -1 3
1532331443848991 1 9 30 10 13 4 0 -2
1532331443893871 3 5 -3 -4 -5 -5 2 1
1532331443930772 4 -1 -11 1 -12 -7 -1 0
1532331443953712 3 8 5 14 20 17 9 -1
1532331444006570 5 11 -8 5 15 12 9 2
1532331444036491 1 -2 1 9 12 -7 5 2
1532331444081369 -1 -2 2 4 -1 4 -4 -2
1532331444118271 1 3 -10 -10 -6 -17 -3 -1
1532331444141210 0 2 -12 5 19 28 7 4
1532331444194068 -3 -1 1 3 6 19 0 0
1532331444230969 1 -3 -9 0 -4 -20 -6 -3
1532331444260890 7 21 30 0 -5 -24 1 -2
1532331444298788 2 6 -4 5 16 41 17 4
1532331444320730 1 -3 -24 -7 -8 -37 -1 6
1532331444366606 -1 -3 -11 -1 -13 -10 1 -4
1532331444381566 1 2 -21 -2 -1 3 -4 -3
1532331444418467 -8 -25 -53 -9 -5 5 -4 -9
1532331444441407 3 1 42 2 -6 -17 3 -1
1532331444486287 2 2 -6 0 9 21 3 11
1532331444508228 0 5 -10 9 0 2 -6 3
1532331444523188 -1 3 6 6 1 -28 -5 -4
1532331444554105 -8 -9 16 2 -5 -17 -8 -7
1532331444576047 2 -7 3 -5 -11 9 12 3
1532331444591006 1 -1 -23 2 11 43 -13 1
1532331444605966 -2 4 -12 10 6 -16 -2 -7
1532331444635887 1 9 28 4 -10 -14 -5 0
1532331444650847 0 2 -10 5 11 28 6 -2
1532331444680767 -2 12 46 8 -9 -32 -11 -18
1532331444695726 2 5 -2 4 2 -10 -2 3
1532331444718665 -1 -10 7 -7 -14 -45 10 2
1532331444748585 0 -13 16 -4 6 18 -16 -1
1532331444763544 -2 1 11 11 11 17 7 -14
1532331444786484 0 -7 -14 -3 7 0 4 8
1532331444808425 4 13 9 12 4 -18 0 6
1532331444823384 -1 -7 8 3 2 -1 -7 8
1532331444846323 3 -4 -30 -5 -1 -30 -18 -5
1532331444868265 -5 2 37 -2 -3 2 -2 -2
1532331444883225 -7 -31 -55 -4 5 -8 -18 -11
1532331444906164 -7 13 -15 -7 -1 22 22 -7
1532331444936083 6 10 14 4 12 18 11 2
1532331444959022 2 -9 -60 8 5 -4 3 1
1532331444973982 -4 -10 -2 -3 -1 -3 -14 0
1532331444988942 2 -4 28 8 -6 0 -3 5
1532331445010901 2 4 33 7 3 8 11 6
1532331445025843 2 9 16 4 8 21 2 0
1532331445055763 -3 -4 -7 6 -4 -15 -1 -4
1532331445078709 1 -6 -9 5 0 -5 0 -5
1532331445093662 -1 -2 -16 -2 -3 9 -9 -5
1532331445146520 -3 -11 12 0 1 22 18 3
1532331445161480 7 18 -1 6 1 -6 -2 5
1532331445183422 -5 -27 11 -2 0 2 -9 0
1532331445213342 5 1 7 -5 -5 -11 -5 -13
1532331445228302 -4 13 22 2 1 -3 -3 -5
1532331445251240 -2 -34 -6 3 -2 -8 -8 -5
1532331445266200 3 6 18 1 -4 12 10 2
1532331445289144 7 -14 -23 7 5 10 9 6
1532331445311080 3 -28 -27 -1 -1 1 4 3
1532331445334019 12 25 40 7 3 -3 -1 5
1532331445363953 7 16 7 4 1 8 6 0
1532331445393859 -2 -2 -8 -1 -6 -7 -6 0
1532331445438739 9 -10 20 20 2 5 6 1
1532331445468659 -3 -6 7 3 3 -6 -6 1
1532331445491597 4 -17 -14 -2 5 5 2 1
1532331445513539 -8 19 29 4 1 1 -5 -11
1532331445528499 5 11 47 4 1 7 8 -6
1532331445551437 0 -7 -6 -2 -3 -3 -2 0
1532331445573379 2 -1 -4 -14 -3 -5 -1 9
1532331445603299 -2 9 -11 -4 2 11 7 -1
1532331445634233 4 22 1 3 1 2 -3 0
1532331445648179 -10 -18 -3 1 -2 -12 -6 -4
1532331445679096 -1 0 5 -2 -4 -5 -1 0
1532331445694055 -3 3 5 -3 -1 1 -3 -2
1532331445730957 1 3 -5 -1 -1 0 -1 0
1532331445783821 -10 -26 -4 0 0 1 -4 -3
1532331445828696 -3 -17 -2 0 0 -1 0 -4
1532331445873576 2 15 1 1 -1 -2 -2 -1
1532331445888535 -7 -1 -2 0 0 -2 -2 -1
1532331445903496 -4 -12 -3 -2 1 -2 -1 -2
1532331445926434 -8 -1 -3 -2 -2 0 1 -2
1532331445948376 -5 12 8 1 0 -1 -1 -1
1532331445986274 -9 -24 -11 -1 0 0 -2 -1
1532331446008216 -1 -12 23 -1 0 -1 -5 -2
1532331446023176 -1 -15 -3 -3 -1 -1 -4 1
1532331446054092 8 17 5 2 0 2 5 -3
1532331446069052 -9 -19 -1 -6 -8 -6 0 -3
1532331446098973 -4 14 -50 -1 -3 -3 -2 -8
1532331446113945 1 7 6 -3 3 4 2 -1
1532331446128893 -1 -20 -15 -7 -2 -1 -2 -1
1532331446150834 1 1 22 2 -3 1 1 0
1532331446180754 -6 -19 -37 -6 1 1 -1 -3
1532331446196721 -3 33 40 4 -1 -1 0 -1
1532331446226639 1 -14 -28 0 0 1 0 1
1532331446256551 -6 -8 12 2 1 2 1 -2
1532331446273505 -4 -10 -45 -4 -1 0 -1 -4
1532331446293452 -2 38 27 5 2 5 1 -1
1532331446316391 -11 -45 -45 -4 -4 -11 -31 -6
1532331446331351 -4 3 5 1 -3 -7 19 0
1532331446353293 12 2 -55 -4 1 8 -33 9
1532331446368258 2 23 37 3 -4 11 -28 -2
1532331446399169 -11 -14 -55 -6 0 3 12 -3
1532331446421111 0 16 -3 -2 0 -9 7 0
1532331446436072 2 -19 29 2 -1 -2 -6 2
1532331446451034 -2 18 21 -1 -2 -2 1 -2

1532331446488930 2 7 13 1 1 -1 -5 -2
1532331446503889 4 2 0 -3 0 2 -3 1
1532331446533809 -1 14 13 -2 -1 -3 -2 -3
1532331446548769 3 5 -12 -2 1 -1 2 1
1532331446578690 5 21 32 3 0 -1 1 -1
1532331446601628 6 30 1 -2 1 1 1 -1
1532331446616588 -4 -3 0 -1 1 0 -1 -1
1532331446631548 -2 -10 -11 -3 -2 0 8 -1
1532331446653490 -1 -11 12 3 -2 0 6 3
1532331446668450 -3 -32 -14 0 -1 1 4 4
1532331446698369 0 -25 -24 1 0 0 3 12
1532331446721308 -1 -20 -8 -2 -2 0 0 0
1532331446751228 -1 -4 6 -1 1 0 -3 -4
1532331446774166 7 1 -8 1 0 2 2 4
1532331446804086 -4 2 3 -2 0 0 -3 2
1532331446819046 -8 -26 -9 -2 -3 -4 -15 -9
1532331446834007 -1 1 6 1 1 0 -1 0
1532331446848967 2 -1 -1 2 0 0 14 8
1532331446878886 -1 -1 8 2 0 0 0 4
1532331446900828 -1 -13 7 0 -1 0 -3 2
1532331446915788 2 20 16 0 -1 0 5 1
1532331446930748 -1 -5 -3 0 0 1 -1 -2
1532331446953686 3 9 -4 0 1 2 7 4
1532331446968646 0 -9 -5 -1 -1 -3 -2 3
1532331446991585 -6 -8 2 0 3 1 1 0
1532331447013543 0 -1 -17 -2 -3 -2 2 -1
1532331447036465 0 4 7 -2 0 -1 1 -2
1532331447051425 -1 4 -20 -1 1 1 -1 -4
1532331447073365 -1 4 3 0 -1 0 1 4
1532331447096305 -2 10 -16 -7 -3 -1 0 0
1532331447111265 -2 5 -4 -4 -3 0 -1 3
1532331447133205 -3 -11 -6 -3 -1 -1 -4 -2
1532331447156145 -9 -20 6 4 1 0 -4 -9
1532331447179083 2 8 9 1 1 1 0 2
1532331447209004 7 1 -10 -2 0 1 -2 3
1532331447230945 0 18 19 -2 -2 -1 -5 -14
1532331447245907 -3 1 4 -1 -1 -2 -2 -2
1532331447275825 0 8 8 0 -2 1 2 4
1532331447290785 -1 9 -6 2 -1 0 -1 -4
1532331447313723 -1 -3 10 -3 -1 -1 -2 -5
1532331447336344 0 -4 -22 -2 1 0 -4 4
1532331447351305 -1 -4 -12 1 -1 -2 1 -6
1532331447373245 -7 -6 -1 -2 -2 -2 -3 4
1532331447396249 -5 -7 0 -4 -1 -2 0 -5
1532331447411209 -1 1 13 -1 -1 1 -2 -4
1532331447434147 1 -2 -3 1 -1 -2 -4 0
1532331447456089 5 7 43 6 0 2 1 4
1532331447471049 -6 -12 9 1 -1 -1 -2 -4
1532331447500969 6 0 3 -4 -2 -1 2 -1
1532331447523907 2 17 24 1 -2 0 6 -2
1532331447538867 -9 -18 -8 -4 -2 -1 2 1
1532331447560809 0 13 4 -1 -2 -2 -4 0
1532331447575768 8 21 8 3 2 1 0 8
1532331447590729 -4 2 2 2 0 0 -1 4
1532331447613668 3 9 1 1 1 0 5 2
1532331447636606 -3 -7 -1 0 2 1 2 -4
1532331447651566 4 3 -16 -4 -4 0 3 5
1532331447673507 0 -10 0 -1 -1 -1 0 3
1532331447696482 1 -5 -2 1 0 -1 -10 -3
1532331447711406 -3 9 15 0 1 -1 0 -13
1532331447733348 0 13 -2 0 -2 0 7 -4
1532331447763268 4 8 7 -2 -2 -1 7 8
1532331447778227 -7 -46 -16 0 0 -1 -5 -4
1532331447801166 1 6 6 -3 -3 -2 -4 1
1532331447831085 0 2 0 -1 0 -3 -2 9
1532331447854024 -6 -12 -5 2 1 0 0 -4
1532331447875966 -3 -2 1 -2 -2 0 -8 0
1532331447890925 6 3 -12 1 0 2 3 5
1532331447913864 0 0 3 -5 -3 -1 -3 -4
1532331447943785 -1 9 5 0 1 1 0 1
1532331447966723 3 12 4 1 1 -2 -3 -7
1532331447988664 -1 4 5 -3 -3 -2 0 0
1532331448033569 -5 4 -7 -4 1 2 0 -8
1532331448056507 1 -16 6 2 2 0 0 7
1532331448093408 7 7 9 1 -1 -1 8 13
1532331448108367 3 -7 6 0 0 -2 -1 3
1532331448138288 -1 -2 -19 -2 0 0 -3 -4
1532331448153248 -1 23 22 2 -1 1 0 6
1532331448177184 3 2 0 4 0 2 5 5
1532331448214088 -1 -3 -5 -3 -2 1 8 18
1532331448229045 -2 2 22 -1 -3 -1 -7 -3
1532331448244005 1 15 11 0 -1 -1 2 0
1532331448280910 1 -15 17 0 0 -1 3 10
1532331448303861 5 14 1 1 -2 1 3 16
1532331448340747 2 2 -4 1 0 -2 -3 -1
1532331448363700 -4 -13 0 0 0 2 7 -7
1532331448401584 3 10 -4 0 0 -1 2 -6
1532331448423525 2 -11 3 -3 0 2 3 -3
1532331448453445 -1 7 -5 -2 -1 -2 2 -1
1532331448491343 0 -5 0 -2 -2 0 -1 7
1532331448513285 -7 -10 10 -2 -2 -3 -28 -1
1532331448529242 -5 -27 -12 -2 -1 1 4 -19
1532331448551183 3 0 -4 1 0 0 8 4
1532331448566143 3 13 7 0 -1 1 18 14
1532331448597060 -1 -3 1 -1 0 1 6 2
1532331448611024 -3 -5 10 0 -2 0 -2 -11
1532331448625984 -1 14 -15 1 1 -2 -16 1
1532331448640943 4 4 2 0 2 0 1 -3
1532331448655904 0 7 4 -1 -1 -2 -4 0
1532331448685823 -3 -7 -11 -3 -2 -3 -1 -13
1532331448700891 -6 -3 0 -1 0 -1 -1 -1
1532331448723830 2 16 -14 -1 0 -1 1 3
1532331448753750 -3 -7 -1 1 0 0 3 -1
1532331448783670 -4 -1 1 -3 -2 -1 -2 19
1532331448821569 -3 10 4 3 1 -2 2 -4
1532331448851488 2 1 -12 -4 -3 -1 -9 3
1532331448873430 1 8 10 3 0 -1 -3 7
1532331448888390 3 4 3 2 1 1 5 1
1532331448911328 3 12 -7 -1 -1 1 9 2
1532331448941248 0 1 -1 3 1 0 -2 1
1532331448964191 -3 -37 -29 -3 -2 -2 0 -8
1532331448986128 4 34 17 0 0 -2 -3 -1
1532331449009067 -3 7 10 1 3 -1 2 -1
1532331449031009 -2 5 25 4 1 2 -2 5
1532331449068907 -5 -13 0 -3 -1 -3 -4 -3
1532331449090848 3 8 4 0 0 0 -1 -4
1532331449121235 1 -6 -29 0 0 -2 -22 8
1532331449136195 0 5 21 2 1 3 5 -5
1532331449166115 1 2 11 1 -1 -2 1 6
1532331449204014 -2 -7 -10 -3 0 -1 0 -5
1532331449225955 0 -3 -3 0 -2 -2 1 -1
1532331449240915 1 11 -3 0 -1 0 0 1
1532331449278820 1 -4 11 1 -1 -1 -3 -4
1532331449308733 2 -6 -10 -3 0 -1 1 1
1532331449338653 -5 8 9 0 1 1 1 -7
1532331449353614 6 -3 -23 -5 -2 -1 -3 11
1532331449376552 5 2 9 2 -1 -6 18 3
1532331449399491 -14 -12 -16 -5 -7 -7 -10 -20
1532331449436391 -7 5 11 2 0 -4 2 -3
1532331449458333 2 -11 -3 1 1 6 0 0
1532331449504212 0 -10 43 0 2 0 4 -4
1532331449519182 -7 5 29 10 3 2 -2 -6
1532331449549091 -2 -5 -9 0 1 2 -4 -3
1532331449571032 1 6 -4 -3 -1 0 2 2
1532331449615912 -1 1 -4 0 2 -3 -1 -2
1532331449645832 5 10 16 0 -4 0 0 0
1532331449698690 -1 9 -15 -3 -1 0 0 0
1532331449736589 -1 -10 27 6 2 0 0 -1
1532331449751549 1 10 8 -2 -1 -1 -1 -2
1532331449803410 -3 0 -5 -2 -2 0 0 -1
1532331449826349 -2 -10 -10 -4 0 1 1 -1
1532331449909127 -4 0 8 1 -7 -1 2 -1
1532331449946029 0 6 11 9 7 5 6 -19
1532331449990909 11 0 -1 -19 -24 -6 0 7
1532331450050748 -5 7 15 10 1 4 3 -14
1532331450088647 5 6 4 2 -4 0 -1 1
1532331450111586 16 -20 -11 -1 7 5 -1 15
1532331450148487 -3 6 19 5 0 2 1 -4
1532331450171425 -7 3 -6 -14 -7 -3 2 3
1532331450216305 -6 -6 -8 6 -1 -4 -7 -5
1532331450238247 3 -15 -1 -2 0 1 -1 -3
1532331450269164 -10 -2 -13 -4 -2 -7 -14 1
1532331450291105 7 9 11 -1 -1 2 6 29
1532331450329004 4 15 1 0 0 -4 -15 -5
1532331450358924 6 -3 -5 -8 -2 2 23 12
1532331450403804 -6 -6 6 -6 -7 -7 -18 -13
1532331450418764 3 1 -1 4 -2 -5 -3 0
1532331450471622 -10 12 5 -3 0 6 12 -10
1532331450508523 -6 -22 -22 -8 -6 -5 -5 14
1532331450538444 5 14 4 -1 -2 7 3 -4
1532331450606262 -4 3 8 -5 0 0 -9 -1
1532331450636192 8 8 2 -1 1 1 -1 6
1532331450659121 -7 10 11 -3 -2 -1 -5 -1
1532331450696022 -1 2 1 -1 0 1 4 -4
1532331450725942 2 -2 -3 2 1 -5 -6 -1
1532331450770822 3 1 -3 3 4 14 -10 -2
1532331450802737 -1 -1 0 0 -1 1 -3 0
1532331450831660 -4 -3 -1 1 0 0 -4 -4
1532331450853601 -2 -2 2 8 3 -3 -2 -2
1532331450883521 0 1 -3 5 7 -22 -6 0
1532331450928401 3 -8 14 11 1 -3 -2 2
1532331450951339 3 17 -14 -4 4 14 1 2
1532331450973281 0 9 -2 -1 -2 4 0 0
1532331451011180 0 -9 -1 0 -10 -38 -4 -1
1532331451026139 -3 -6 -18 -3 -6 -4 -2 -3
1532331451041099 0 6 11 1 -10 -6 -1 -1
1532331451064037 -4 17 68 -8 -3 16 4 -3
1532331451085979 0 14 81 1 9 27 8 2
1532331451100940 -4 -21 -8 3 -6 -37 -6 -4
1532331451123878 -4 -29 -27 -6 -5 -11 -3 0
1532331451145819 2 26 -1 5 14 53 6 0
1532331451160779 3 14 10 -5 10 29 5 -1
1532331451191696 -1 11 73 9 11 11 -1 -1
1532331451213638 -2 -4 11 11 23 5 -2 0
1532331451228598 2 8 23 2 -2 16 5 1
1532331451251536 2 -17 -11 -8 -3 -10 2 2
1532331451290432 3 1 41 7 4 4 2 1
1532331451305392 -5 -9 -19 -4 -5 -9 0 -3
1532331451326337 3 17 8 9 4 4 1 0
1532331451341296 1 5 25 1 4 6 0 1
1532331451363242 0 3 -40 -3 1 6 1 -3
1532331451394155 0 8 -4 3 -5 -7 1 -2
1532331451416096 0 -16 -70 -12 -5 -7 -3 0
1532331451439034 -4 -13 -56 -21 -2 15 -3 -4
1532331451468955 2 9 19 10 7 18 6 1
1532331451483915 -2 0 -38 -7 -6 17 5 -3
1532331451513835 -3 5 6 1 0 19 2 0
1532331451528795 -3 -10 -28 -8 -2 -4 5 2
1532331451566700 3 1 6 10 -4 -20 -3 -3
1532331451588634 0 3 48 9 7 -11 0 5
1532331451618555 2 6 78 3 -10 -50 -4 -2
1532331451641494 3 1 -17 -6 4 35 5 0
1532331451663434 -4 -20 -17 2 19 30 3 0
1532331451686373 -6 -24 4 -5 11 36 -4 -5
1532331451716293 0 -19 -34 -5 -4 16 4 -1
1532331451731253 4 30 107 9 -5 -11 4 4
1532331451761173 -6 -24 -91 -19 8 39 10 -6
1532331451776133 -2 20 33 5 -3 -6 0 -2
1532331451799071 -3 -3 12 -4 1 3 5 -1
1532331451859909 6 -13 50 8 4 -16 8 11
1532331451873872 -8 6 9 0 -1 13 5 12
1532331451910773 17 56 100 15 0 -4 3 8
1532331451925733 -9 -9 18 4 -6 -23 -2 -9
1532331451948672 -3 12 -51 -9 5 9 -9 -8
1532331451971610 4 13 40 8 6 -4 -28 4
1532331451993551 0 -5 34 6 5 14 24 3
1532331452016497 11 8 12 4 -3 -37 -13 2
1532331452031450 -3 -16 -21 -7 1 7 -3 -18
1532331452046410 -2 57 59 13 1 -2 -16 2
1532331452068352 6 -18 39 9 5 8 8 10
1532331452083311 7 7 82 12 2 9 2 9
1532331452114229 0 9 -31 -6 -2 22 7 1
1532331452136170 6 -7 5 -7 -4 12 0 -1
1532331452151130 -6 -15 -26 -12 -8 -18 -6 -5
1532331452212965 -19 -23 -16 -18 -12 3 -5 -6
1532331452240889 1 -6 10 1 -8 -10 -4 3
1532331452255850 6 18 -35 -5 -14 -40 -11 1
1532331452293748 6 11 6 3 3 5 6 3
1532331452308708 -4 12 16 -3 -4 4 12 1
1532331452323669 -5 6 23 2 1 -1 1 -7
1532331452353588 1 3 12 5 -3 1 0 -1
1532331452383511 -1 -5 -6 2 3 1 0 -3
1532331452413428 3 -1 -3 1 4 4 -8 0
1532331452451327 0 18 -26 -7 -2 7 -4 -4
1532331452473268 -5 -14 -62 -10 -3 0 4 -2
1532331452504186 -2 -5 20 3 0 -1 6 0
1532331452534106 -1 4 -1 0 -2 -3 -8 0
1532331452564026 2 11 -8 -3 0 -7 -3 6
1532331452578986 -3 3 -46 -10 -4 -1 -6 -3
1532331452600927 8 9 39 1 1 6 4 -3
1532331452630853 1 13 23 5 0 -7 7 -2
1532331452653790 2 2 -3 -2 -2 2 8 1
1532331452675727 3 -6 16 3 -4 -5 -7 5
1532331452698665 -1 -7 -8 5 2 -2 2 2
1532331452728585 -3 5 10 6 4 1 0 -2
1532331452743545 -3 -6 1 -9 -5 2 0 0
1532331452781444 -4 -18 17 0 -1 -3 -3 -3
1532331452827338 -2 -15 2 -1 -1 1 -2 0
1532331452848266 2 5 2 0 -5 -1 1 0
1532331452879182 -2 -1 -1 -6 -6 -1 -1 2
1532331452903118 -9 0 2 -1 -3 2 -1 -1
1532331452916084 -3 20 -1 -6 -3 -3 -2 -5
1532331452931043 -3 -22 -1 -3 -1 -3 1 -7
1532331452946004 0 0 -3 7 9 8 12 -5
1532331452968942 -5 1 0 -6 -114 -4 -3 -1
1532331452990884 -6 -5 1 0 45 -1 -3 -5
1532331453005844 -5 -12 14 2 32 -1 -3 0
1532331453035763 -2 17 1 -1 13 0 1 -1
1532331453058702 -4 0 7 1 4 -1 -1 -2
1532331453073662 -5 -1 -3 0 6 -1 -1 0
1532331453096601 0 0 7 -2 1 0 -2 -2
1532331453111561 2 8 4 -3 4 0 -2 0
1532331453126521 -1 -12 -6 -1 2 -3 -1 -1
1532331453148462 -1 -5 0 0 3 0 0 1
1532331453178382 2 2 -3 -3 -2 2 2 0
1532331453193342 -6 -14 -7 -5 -4 -9 -2 0
1532331453216295 0 -13 -16 -7 -5 2 -1 -2
1532331453231241 -1 -4 -2 1 7 1 1 6
1532331453254179 -7 2 5 0 -3 -2 -1 -5
1532331453284099 0 9 15 -2 -1 6 1 -3
1532331453321001 -3 11 7 9 -2 -1 1 -8
1532331453350920 3 -11 -18 0 1 10 3 0
1532331453390814 -12 -11 11 -1 -3 1 -1 -8
1532331453404777 2 -1 0 1 1 -2 3 5
1532331453442675 -5 8 16 4 5 28 1 -7
1532331453463619 -1 9 7 3 -9 -10 2 17
1532331453508499 -4 0 -38 -8 3 -8 -2 -1
1532331453531438 4 2 0 0 -1 -14 -4 1
1532331453561358 4 1 5 3 2 4 -3 1
1532331453576317 10 17 22 5 1 -5 -4 8
1532331453606237 -3 -2 -30 -6 -2 -2 3 -9
1532331453629176 -5 -34 -1 3 -1 -6 2 -2
1532331453666077 -6 -17 21 9 0 -5 3 -9
1532331453689016 1 -1 4 0 -1 6 0 -4
1532331453718936 -8 -33 13 -2 -3 1 -2 2
1532331453755837 -5 0 25 1 -2 3 2 2
1532331453808696 -12 -2 9 -6 -6 1 -1 15
1532331453831635 -2 8 -4 1 -1 -17 -6 -27
1532331453876514 -13 -9 2 -2 0 10 -1 -42
1532331453898455 24 -18 -3 4 3 3 8 48
1532331453913416 6 35 27 6 1 0 -3 -27
1532331453936354 -2 -24 -19 -5 1 -4 -2 -3
1532331453951315 -6 -7 -18 -5 0 -4 -10 3
1532331453973256 -11 -21 6 0 -3 -5 -1 36
1532331453988216 2 25 -6 -1 -1 -5 2 10
1532331454011155 -2 -23 -10 -1 0 0 2 2
1532331454034093 -1 -2 -36 1 4 3 2 -2
1532331454049053 4 7 27 6 0 -6 4 14
1532331454070994 -5 11 16 2 -2 -10 -1 0
1532331454100914 4 2 -25 -19 -4 -7 -4 3
1532331454123853 -2 21 18 -2 0 1 -2 -4
1532331454176711 7 18 23 10 -1 -3 -1 5
1532331454198653 2 34 86 7 -2 -5 7 5
1532331454213612 -2 -19 -22 -2 2 14 5 -3
1532331454228573 -13 -17 -59 -5 -4 -3 1 0
1532331454258493 -9 2 12 -2 -2 -3 -4 -5
1532331454288413 0 -2 13 1 -2 -4 -2 20
1532331454303373 -6 -30 8 -3 2 19 -4 1
1532331454363215 -4 -17 -24 -3 -2 -8 1 5
1532331454394130 -4 35 66 7 1 0 5 10
1532331454416071 4 17 6 2 1 -5 -9 -9
1532331454431031 2 -2 41 1 1 -4 8 -3
1532331454468929 2 -13 -29 -5 0 -1 -5 4
1532331454505831 0 7 -39 -2 5 0 1 -4
1532331454528770 1 -5 -23 3 6 -1 -4 4
1532331454558689 -1 -2 -32 -9 -1 1 -1 -4
1532331454581628 0 -1 9 5 0 0 0 -2
1532331454611548 -2 -5 -35 3 1 0 -1 -2
1532331454633490 -2 -16 28 1 3 0 0 -2
1532331454693330 -1 7 9 13 20 -1 -1 -1
1532331454708289 1 6 37 -7 -13 0 -1 -1
1532331454731228 1 -2 -32 22 -2 3 3 1
1532331454754166 -3 -2 -24 -39 -19 -9 -4 0
1532331454776108 3 5 5 7 2 5 -1 2
1532331454791068 -3 1 -12 12 1 -9 -3 -1
1532331454814007 0 2 31 10 16 17 4 0
1532331454835948 -3 -1 47 6 -5 -2 -4 -2
1532331454850908 3 14 26 1 13 4 13 0
1532331454873847 0 -9 -26 -12 -5 16 -2 0
1532331454910748 1 -1 11 24 28 36 8 3
1532331454925708 -5 -1 -25 -18 -12 -2 -2 -1
1532331454948647 13 2 -24 -2 6 -10 11 5
1532331454971585 -6 -7 -30 -13 -20 -49 -21 -6
1532331454993527 3 -14 15 -6 -13 -24 -18 -3
1532331455016465 7 -5 -35 -3 3 16 14 -3
1532331455031425 8 8 18 5 7 17 -6 4
1532331455053367 14 19 13 7 3 -12 4 6
1532331455076305 -6 -5 -2 -9 -10 5 -4 13
1532331455106225 5 -4 -10 -4 3 -6 1 8
1532331455129164 16 22 11 8 8 18 8 16
1532331455151105 1 3 -15 2 9 17 -11 -1
1532331455181025 4 -2 0 6 6 -13 9 0
1532331455195985 1 3 9 3 -2 -1 -12 -16
1532331455248856 -2 6 -26 -2 -8 -22 -4 -6
1532331455263804 2 -10 -9 -3 4 13 -3 -11
1532331455294720 -2 0 -13 -4 2 17 9 3
1532331455316667 -1 -14 -11 -7 -22 -30 -4 1
1532331455338604 4 6 -4 2 -3 -8 -1 2
1532331455383488 1 0 -1 0 1 -2 -5 4
1532331455428363 0 7 -26 8 14 26 1 1
1532331455474241 -10 -29 -36 -11 -5 -10 6 -6
1532331455489201 -7 -6 -25 4 20 13 2 -6
1532331455511142 -2 -1 15 1 -1 -9 -11 -2
1532331455526102 -10 7 32 -6 3 29 4 -8
1532331455556022 7 0 -5 -19 -22 -18 9 6
1532331455570982 4 5 -5 5 15 -8 -3 -4
1532331455600902 3 10 30 2 10 13 -6 15
1532331455623840 -1 0 -6 -3 -8 -12 -3 -3
1532331455638800 -1 13 24 11 -18 -35 -4 -2
1532331455683680 2 13 -13 -4 -4 19 -3 5
1532331455706619 -7 -8 13 -8 0 -1 -5 -11
1532331455736545 0 -6 1 4 -6 -4 -3 -2
1532331455751499 3 8 26 2 -3 -19 13 -2
1532331455773440 -3 -3 -37 0 8 -17 -10 -5
1532331455796379 1 -11 -25 -10 3 11 -2 -1
1532331455811339 1 38 5 7 9 15 -6 1
1532331455833280 5 18 49 15 -12 -3 4 -1
1532331455848240 0 0 5 -8 9 -3 -6 5
1532331455871179 0 -20 11 -11 4 -3 -4 -1
1532331455886139 2 12 58 -7 1 7 3 0
1532331455909077 -7 -29 -41 -26 -7 4 6 0
1532331455931019 1 -17 19 11 3 -11 -7 -1
1532331455969915 0 22 4 10 -4 -5 -1 -1
1532331455998837 -5 5 -13 1 -2 -6 4 -11
1532331456013798 5 4 -35 -3 -3 18 -4 -3
1532331456035739 -6 -10 -38 -2 -4 3 -1 -5
1532331456066660 -3 -17 -20 3 5 0 0 -1
1532331456088597 3 20 -8 6 10 -8 -7 -3
1532331456133477 4 -3 5 -1 -2 -4 2 3
1532331456156416 -7 -2 20 -11 -4 -7 0 -2
1532331456186336 -1 -6 0 -6 -8 -3 1 -2
1532331456208277 -4 -11 -8 -8 -3 -5 -1 -5
1532331456246176 5 -10 30 -2 3 -1 4 5
1532331456276096 7 7 -3 9 7 -2 4 0
1532331456313996 2 -5 -55 -10 -5 0 0 3
1532331456328955 -5 2 -8 -3 -2 2 0 0
1532331456365856 -6 -28 -39 -8 -5 0 5 -4
1532331456388794 -6 -8 28 4 -2 1 -6 -4
1532331456433674 -6 -8 -3 -8 -3 -3 -6 -6
1532331456463621 5 3 17 6 2 0 5 10
1532331456493514 -4 4 26 2 0 7 -4 3
1532331456553354 -4 -13 -64 -10 -5 -6 -3 -5
1532331456576298 0 -14 2 4 2 -7 3 -6
1532331456614191 -2 -19 -23 -5 -1 -5 6 3
1532331456636132 -2 11 34 3 -2 -3 -5 -3
1532331456674031 0 3 12 -1 -3 -1 -3 4
1532331456695986 8 5 0 -10 -4 -3 -1 3
1532331456725909 -6 -5 -6 -5 -3 -7 -5 -8
1532331456749829 4 25 4 2 -1 4 -10 1
1532331456785732 0 -30 -5 -3 -4 -3 -2 10
1532331456808670 1 40 11 5 1 3 18 5
1532331456846572 -1 -1 7 -6 -4 -4 -9 0
1532331456891450 -2 3 -34 -2 -3 -3 -4 -7
1532331456913400 -7 -8 20 6 3 1 -5 -1
1532331456973231 -23 -51 9 3 2 2 -7 1
1532331457019107 24 39 -15 -5 1 -2 -2 1
1532331457063988 11 19 13 -5 0 2 3 8
1532331457085929 19 15 16 0 -2 -1 -14 5
1532331457124825 2 -4 -56 -3 0 -2 0 -1
1532331457138789 4 23 -13 2 4 0 -1 0
1532331457176696 -17 -29 38 -1 -1 0 -5 -3
1532331457198628 8 30 24 0 -1 -5 -14 0
1532331457228562 5 -71 -110 -12 0 2 3 2
1532331457258468 -1 14 22 -1 -4 -3 -6 -1
1532331457273444 6 29 28 5 3 4 10 6
1532331457296366 2 1 -33 -6 -4 -10 -2 2
1532331457326286 8 16 -2 -2 -1 0 -13 2
1532331457356207 -10 -28 7 -5 -4 -12 4 -6
1532331457379145 -3 0 -10 -3 0 5 19 -1
1532331457401086 -2 -7 -26 -6 -3 -2 -5 -2
1532331457424024 5 7 15 2 1 3 11 -1
1532331457438985 -2 -18 41 0 0 4 -9 -5
1532331457460926 -3 -16 -39 -5 -1 -2 -3 1

1532331457483865 -1 2 -6 1 0 4 7 0
1532331457498824 2 15 28 5 0 1 -3 1
1532331457528745 2 -7 6 3 -2 0 0 1
1532331457558667 -1 -12 -30 -4 -2 -1 2 -5
1532331457573625 -2 -3 -31 -4 0 3 3 -13
1532331457618505 3 9 43 3 -3 -2 -3 -2
1532331457641444 1 10 11 0 1 0 -1 3
1532331457663385 2 0 -16 2 -1 0 -15 -2
1532331457678345 1 -6 2 -2 1 -1 -1 9
1532331457701283 2 -4 -7 3 0 1 6 -4
1532331457723225 0 14 2 3 3 2 4 0
1532331457739182 6 -3 2 -1 0 2 3 4
1532331457769102 0 2 -21 -3 0 0 -5 -2
1532331457791043 -2 -1 12 0 0 2 1 -2
1532331457806003 -4 -11 12 3 3 -1 -4 2
1532331457820963 5 3 14 1 1 0 -1 -3
1532331457843901 2 7 28 1 0 1 -1 -4
1532331457858862 0 6 -4 2 -1 -1 3 1
1532331457880803 5 1 -27 -2 -2 -3 0 -1
1532331457903742 -1 -4 0 -1 -1 1 -2 -6
1532331457918702 -7 -14 -3 2 1 0 -1 -7
1532331457941640 10 11 3 -3 -2 0 -2 10
1532331457963581 0 -9 -6 0 0 -1 -1 -4
1532331457978542 -5 -3 -1 -1 -1 1 7 20
1532331458001480 0 2 0 -2 -3 0 -2 -8
1532331458023435 0 14 -5 -1 -2 0 2 -1
1532331458046370 1 -13 -6 -3 -2 0 -2 3
1532331458076280 7 2 8 -1 0 -1 -1 -4
1532331458106200 -3 13 4 0 -1 0 13 -1
1532331458121160 -2 1 3 1 -2 -1 3 -2
1532331458136120 0 -13 7 -1 -1 0 -6 1
1532331458159058 2 12 9 -3 -3 0 -8 3
1532331458180999 -3 0 -1 2 2 0 3 -2
1532331458203939 -7 -13 -5 2 1 3 5 -4
1532331458218899 -2 -13 8 1 0 1 2 3
1532331458240840 -10 4 1 0 0 -2 -3 -5
1532331458270759 -2 4 -4 1 1 2 -1 -1
1532331458286725 3 0 -3 -5 -2 -2 -14 -11
1532331458308659 13 8 16 1 0 1 18 16
1532331458338579 -5 -10 -26 0 -2 -2 0 -13
1532331458361517 5 14 20 1 1 -2 4 0
1532331458383459 1 7 -5 -1 -2 -7 47 20
1532331458398418 -12 -7 7 1 -2 -9 -13 -21
1532331458421359 -12 2 7 -1 0 5 8 8
1532331458443298 14 22 5 0 0 -6 -13 1
1532331458466237 4 6 3 0 -1 -26 -6 -11
1532331458481199 -5 2 3 5 9 -14 -2 1
1532331458504136 1 -3 -3 1 3 -9 -1 -6
1532331458534055 -2 2 7 -5 -5 7 1 1
1532331458556994 -2 -6 43 2 -3 4 4 1
1532331458585917 -6 -15 14 -9 -12 -1 -2 -1
1532331458600877 0 2 13 3 3 -2 0 -2
1532331458623816 -2 0 13 8 -2 2 2 1
1532331458653735 0 1 10 -1 -10 -4 -1 -2
1532331458668695 3 0 2 4 8 -2 1 3
1532331458698616 4 -6 2 1 -8 7 4 4
1532331458736514 -4 -5 2 1 -4 -7 -2 -4
1532331458766434 -2 -3 -13 -2 1 -3 11 3
1532331458781394 -4 6 13 17 22 8 2 3
1532331458826273 2 4 0 -2 -9 -1 23 -2
1532331458841240 5 -4 0 3 -6 0 -19 12
1532331458864172 3 0 1 -9 -7 1 -6 -11
1532331458901074 -9 14 31 8 -3 -1 6 5
1532331458924012 25 0 -29 -4 -1 -6 0 11
1532331458945966 -6 -3 -31 -8 4 -1 -1 10
1532331458968892 -16 -7 8 -16 -7 -5 -5 -15
1532331458990834 8 -4 -27 13 4 -7 -10 19
1532331459020754 -12 -2 1 -1 0 7 4 -29
1532331459051671 -8 -3 1 -13 -8 -6 -10 -6
1532331459066631 -2 -2 -33 -3 0 -4 -10 -19
1532331459096551 -14 -7 20 0 4 2 -2 5
1532331459118492 -9 -6 32 4 -1 -4 -12 5
1532331459133453 -5 -17 -3 14 5 -3 9 5
1532331459163385 13 6 -10 -13 -6 -4 -10 4
1532331459186310 11 10 25 9 2 -2 -2 5
1532331459208252 -2 2 -9 -5 -2 2 7 -1
1532331459223212 4 2 7 -8 -1 -1 -16 4
1532331459254129 -3 -17 -12 -7 -1 10 4 -19
1532331459276071 17 -5 -5 -5 -4 -14 -13 -32
1532331459291031 3 44 29 7 -3 0 12 32
1532331459305990 4 33 7 -9 -2 -12 -24 -18
1532331459343889 -48 4 4 6 -1 2 -7 0
1532331459358849 32 3 1 -5 0 -2 7 17
1532331459380807 1 -10 -2 3 1 -1 -1 -4
1532331459403729 -14 -14 3 3 1 3 3 4
1532331459433649 -4 -14 -6 -2 2 -3 -1 4
1532331459456587 -10 2 2 -4 -5 -3 -7 -11
1532331459478529 -1 1 0 6 2 1 -11 1
1532331459508449 9 3 1 5 5 11 -1 -4
1532331459531388 -4 8 9 1 0 -1 -7 -6
1532331459546347 -7 3 -2 1 0 -1 5 -1
1532331459568289 9 -12 -2 -3 -4 -3 4 9
1532331459583249 5 8 -2 0 5 9 7 5
1532331459606188 1 1 0 -4 -4 -10 1 -3
1532331459638102 0 0 0 5 4 3 -4 2
1532331459651067 -2 1 -4 0 1 12 2 5
1532331459666028 -5 -5 1 -6 -8 1 0 1
1532331459688966 2 2 -10 -5 -5 3 1 -1
1532331459710907 -3 -5 -9 2 -6 -24 -4 -3
1532331459725879 2 -27 24 7 -9 -26 -2 1
1532331459748806 -4 -18 -39 -12 -24 -53 -7 -5
1532331459770747 0 3 -15 -6 -12 -11 -6 4
1532331459785707 -3 -16 0 2 6 13 -7 -8
1532331459824604 -5 -26 -74 -16 9 17 3 -8
1532331459853526 -2 -37 -49 5 9 11 6 -6
1532331459876465 -5 -7 -17 2 1 12 1 -1
1532331459898406 -3 -8 -73 -16 -3 3 -1 -2
1532331459913370 -2 -17 -22 6 8 27 6 1
1532331459928326 -4 -21 -9 -9 -6 -20 -4 -4
1532331459943286 -1 9 -39 -10 -6 17 0 2
1532331459966225 3 7 35 7 7 -15 -8 2
1532331459989163 2 18 96 6 9 18 -2 2
1532331460004123 -1 -4 34 -4 -8 -17 -1 -1
1532331460026064 -4 7 -30 -5 -13 -37 -4 -2
1532331460049002 -3 5 -30 -9 -2 -6 -2 -1
1532331460063978 -3 0 0 -9 -10 -30 5 -3
1532331460085904 0 -6 -30 4 2 1 2 -3
1532331460115824 0 1 13 1 4 5 -7 -1
1532331460145744 1 10 7 1 0 7 4 -2
1532331460161702 1 -1 -23 4 2 -4 -1 1
1532331460213563 0 -8 -6 0 3 11 -2 2
1532331460236502 -4 -17 -86 -16 -9 -3 -11 -2
1532331460258443 1 -5 -21 3 1 -28 -5 -3
1532331460273403 -2 -2 -15 2 -4 -8 12 -2
1532331460296342 1 16 46 2 -11 -6 -2 -3
1532331460318283 -1 27 65 9 2 -5 -16 -2
1532331460333243 0 5 11 -5 -5 25 15 1
1532331460371141 2 0 -16 -1 0 -12 3 -2
1532331460394080 4 0 -14 -5 -7 -5 -11 2
1532331460424000 -7 -32 -63 0 0 1 0 0
1532331460445941 -4 -11 -24 -4 -1 36 -7 -3
1532331460468879 -1 13 52 11 3 -26 -8 -4
1532331460483840 -7 -9 -65 -14 -5 -6 -3 -2
1532331460498800 -3 3 -43 -2 -5 1 8 -6
1532331460521739 0 -15 -16 -8 -7 2 4 7
1532331460535701 -1 -8 33 7 2 -1 17 3
1532331460558640 -11 -18 47 2 -4 5 -6 -4
1532331460573600 -7 9 54 -1 -1 6 5 -3
1532331460596538 -2 15 7 -3 -2 -7 -2 -1
1532331460618480 7 27 68 -1 -11 -7 -4 6
1532331460633440 4 5 22 0 7 15 20 3
1532331460671338 -5 -19 -47 -14 -8 -2 -6 -5
1532331460686298 -1 12 7 11 7 8 0 -11
1532331460708240 -9 -4 1 5 3 -7 -14 -17
1532331460739157 0 7 15 -5 -1 3 -15 2
1532331460754116 -8 -5 -8 -1 7 7 0 -13
1532331460769077 -4 9 -8 -14 -18 -15 -9 -6
1532331460791018 5 13 -40 8 -6 4 9 7
1532331460805978 3 -23 -58 -9 -6 16 16 2
1532331460828917 -1 14 8 -1 -9 -23 -9 -1
1532331460865818 -6 -43 0 -8 -6 -5 6 -5
1532331460888757 1 1 -7 -7 -6 -9 -6 4
1532331460911701 4 7 -32 6 1 -4 -10 3
1532331460933649 -6 -7 -18 -2 3 18 8 0
1532331460964554 -1 -4 15 -3 -3 4 -1 -1
1532331461001455 -2 4 -1 -3 8 4 1 0
1532331461031380 0 7 28 0 -4 -7 6 -1
1532331461076255 -1 2 12 10 -1 8 -7 2
1532331461091215 -2 -1 5 -6 -9 -4 0 -1
1532331461129114 3 -2 17 12 4 4 1 0
1532331461151055 -7 -2 14 1 -2 0 1 -1
1532331461166015 -4 -19 -15 -2 -3 -4 -2 -2
1532331461188953 1 0 0 2 5 2 -1 1
1532331461210895 0 2 -10 -9 -4 -4 -2 2
1532331461225855 -2 12 1 -5 -5 -3 0 -2
1532331461248793 4 3 0 -1 -3 -3 -1 2
1532331461270735 2 6 5 6 0 3 2 -2
1532331461293679 1 -3 -4 -3 1 -2 -3 -5
1532331461308633 -4 -2 14 2 3 2 0 2
1532331461331573 2 -2 14 5 7 0 -2 1
1532331461353528 -5 -10 -3 -6 -8 -4 -2 -2
1532331461368477 -3 34 -17 5 5 1 3 -1
1532331461391412 -5 -16 -7 -7 -12 -2 -6 12
1532331461413353 4 -29 10 -3 3 21 0 2
1532331461428313 -8 5 17 -3 -10 7 0 0
1532331461451265 12 14 10 1 -7 -13 2 15
1532331461474191 -2 17 -9 -10 -6 -11 -1 -3
1532331461489151 6 8 -7 0 -1 -6 -2 -4
1532331461511092 -5 -12 37 -4 0 2 1 3
1532331461541013 -6 2 26 8 4 -7 -6 -5
1532331461563952 8 -1 15 -1 2 2 -4 23
1532331461585892 13 24 -23 -4 0 -1 2 -1
1532331461608831 6 -1 -13 11 4 0 5 11
1532331461646740 -1 26 70 7 8 6 -4 -7
1532331461691609 -1 -7 -50 -9 -5 -12 -4 15
1532331461728510 3 7 0 -3 -19 -10 1 -2
1532331461751449 -8 -34 10 2 1 -4 -1 -13
1532331461773391 -8 -14 29 2 1 -2 0 -7
1532331461788350 -2 7 15 5 6 25 1 -10
1532331461811289 3 16 -46 -13 -10 -13 2 18
1532331461833230 -1 12 4 2 0 7 0 -7
1532331461849187 0 -15 8 8 5 7 3 0
1532331461871129 -2 0 19 0 -6 13 0 11
1532331461901048 -7 5 10 -2 -5 -19 -6 -8
1532331461923987 5 -8 -1 -1 -5 -16 -3 4
1532331461968867 -2 -19 -2 -1 -1 -5 2 0
1532331461990809 3 -17 -35 -6 -5 -15 -3 15
1532331462020728 8 28 -7 -3 0 10 2 -8
1532331462051645 -14 -56 48 4 5 16 7 2
1532331462088547 2 47 4 -3 0 2 -3 7
1532331462111486 6 2 11 2 -4 -3 -2 2
1532331462126446 9 13 -8 -4 7 5 3 15
1532331462148387 0 -7 29 2 -1 5 -1 -4
1532331462163347 13 3 30 7 1 1 4 10
1532331462223187 -17 -4 -29 -4 -1 2 -4 -2
1532331462261086 -8 -21 61 6 0 1 -8 -7
1532331462305966 15 -18 -21 -2 -3 -5 0 0
1532331462335886 -16 12 5 0 -1 0 2 -5
1532331462410686 -2 35 76 10 7 31 14 8
1532331462478504 -5 10 2 -3 -2 -2 -4 -7
1532331462501443 -24 2 14 1 1 -5 0 4
1532331462584228 -2 -10 -25 -4 -5 -3 -4 -2
1532331462659021 -1 5 -20 -4 1 -4 0 -1
1532331462673981 1 14 22 2 0 -1 0 0
1532331462778701 7 4 23 5 10 3 2 4
1532331462861480 -4 -2 -15 -9 -13 -24 -10 -5
1532331462891400 -2 -7 -6 -7 -4 7 9 3
1532331462936279 7 3 1 21 26 22 5 -9
1532331462958221 -6 0 0 3 1 -10 -6 1
1532331463004099 1 5 2 10 6 11 -9 3
1532331463040999 -2 -11 19 -2 1 13 10 0
1532331463070920 -3 -8 6 1 -7 -28 14 4
1532331463108818 0 2 -6 0 -1 14 -1 -4
1532331463130762 1 4 7 -5 -5 -17 -4 2
1532331463153699 -2 -1 10 3 13 62 6 22
1532331463191597 6 22 18 7 9 26 25 -5
1532331463266397 -11 -16 -14 -8 8 0 -3 -37
1532331463303298 -2 2 12 1 7 17 -4 -2
1532331463356156 -6 -31 -20 3 3 -8 -1 4
1532331463371116 4 16 5 4 3 21 0 6
1532331463430957 3 7 -5 0 -10 -27 -6 7
1532331463490796 -2 9 20 1 -11 -12 -6 -4
1532331463520716 -4 -11 -9 3 -13 -25 -11 4
1532331463543655 -3 2 2 -2 18 62 16 -3
1532331463566605 0 4 -1 3 16 28 16 -4
1532331463581554 -6 0 2 -1 -8 -68 -3 -3
1532331463596513 -3 2 -2 -6 -11 -34 16 3
1532331463618454 5 13 29 -15 4 67 53 1
1532331463633415 -3 -2 -23 -17 -15 -27 -2 -11
1532331463663335 2 5 2 11 44 18 -14 23
1532331463693255 -6 -3 -23 2 11 5 -1 0
1532331463708214 -6 -5 4 -9 -19 -18 1 -11
1532331463739132 4 22 24 12 34 15 -13 1
1532331463769052 -4 8 -3 -7 -13 -19 17 -4
1532331463798972 -2 -28 -49 -8 -2 12 8 3
1532331463828892 7 7 -11 1 -13 -26 -16 7
1532331463843852 2 -9 12 8 2 3 18 -3
1532331463858820 -2 2 -20 6 -11 -38 -15 -6
1532331463895713 1 2 -14 -1 -22 -42 -9 6
1532331463918652 -1 -5 13 7 -17 -30 3 0
1532331463941590 2 3 13 9 -4 -7 -10 3
1532331463963531 -2 6 8 3 -6 11 -14 -5
1532331463986470 -2 12 -5 -4 -14 -57 -15 -8
1532331464016403 -1 -20 -35 -12 -4 14 -2 -1
1532331464038332 0 47 46 3 14 32 1 -7
1532331464061270 -2 17 7 -4 -4 13 -2 -12
1532331464076230 0 5 15 3 -5 3 -10 4
1532331464099178 -4 -18 -48 -10 -5 -18 -20 -18
1532331464121110 1 -3 -1 -1 -1 -3 -3 3
1532331464144049 3 30 49 -3 3 22 12 1
1532331464165990 -1 22 15 3 -2 11 0 2
1532331464188929 -1 -8 -22 -9 -9 -26 1 2
1532331464203888 -2 -2 -20 -4 -2 -21 3 4
1532331464218849 -4 -25 -38 -4 -6 -28 -2 -18
1532331464240790 -4 -5 44 2 -3 15 2 -8
1532331464255750 3 8 12 -3 0 21 6 5
1532331464286668 -3 -82 -47 1 8 22 11 -8
1532331464301627 0 -18 -5 4 -4 -1 -1 -1
1532331464316587 -3 -8 -10 -2 -2 -18 -8 -4
1532331464346507 -3 -2 -30 1 0 2 -11 -4
1532331464376427 -2 25 11 1 0 4 -5 8
1532331464398368 -6 7 -1 -7 -1 3 -34 -6
1532331464413330 0 3 -17 -6 3 23 5 12
1532331464443249 -6 -45 -55 -9 -8 -9 -4 6
1532331464466187 2 15 -7 -14 -1 1 -5 6
1532331464489126 1 -5 -24 -8 3 -5 3 4
1532331464511067 -3 -3 45 -9 -9 -22 11 4
1532331464540987 -1 12 37 0 -3 3 0 -3
1532331464563926 -2 -20 -26 -5 -2 -6 -4 2
1532331464578885 -1 7 12 10 5 -19 -27 -3
1532331464600827 6 14 -1 -1 3 1 -9 3
1532331464653691 1 13 33 8 3 0 5 7
1532331464698566 -5 -21 -1 -6 -1 -2 -2 6
1532331464751424 0 5 16 9 4 10 -18 -1
1532331464766384 -3 -48 -54 -12 -2 -5 3 1
1532331464783339 4 19 24 1 -6 -2 -8 8
1532331464811264 2 24 12 -4 3 -3 11 10
1532331464833206 -5 -13 14 2 1 0 -2 -4
1532331464872102 2 6 20 5 1 -2 2 -1
1532331464901024 0 11 -2 -2 -1 -2 5 -4
1532331464923969 -6 8 4 -2 -2 0 0 -2
1532331464938922 -8 -2 -2 8 4 1 -4 -3
1532331464960864 -3 -17 8 -3 -2 -2 -1 0
1532331464983802 -3 -18 -36 -4 -2 -1 0 -1
1532331465005744 1 12 0 2 -2 1 -2 -1
1532331465028683 4 4 1 0 0 3 -1 -2
1532331465051621 2 20 9 1 0 0 3 0
1532331465081541 -5 2 -21 -1 5 2 0 7
1532331465111461 4 4 -21 4 3 2 1 5
1532331465133402 -11 -21 -28 -6 1 -2 2 -1
1532331465171301 0 -14 24 -2 -4 -1 1 4
1532331465201221 4 -9 -32 1 1 -1 -2 -3
1532331465216181 3 4 -17 -2 0 0 -5 -1
1532331465246100 -1 1 36 0 1 0 3 -18
1532331465269039 -8 26 107 16 3 1 -4 -4
1532331465283999 -2 -33 -41 -5 -2 -1 -3 2
1532331465305941 -6 4 -4 1 -1 1 0 0
1532331465328879 1 -18 -5 3 3 2 -1 2
1532331465365781 3 9 58 4 1 2 5 -1
1532331465388719 -4 -12 -5 -7 -2 -3 -4 -3
1532331465403683 -2 -4 -27 1 0 0 4 -1
1532331465418639 -7 -17 -6 -4 -4 -5 -2 -2
1532331465441578 -4 5 -2 -6 -6 -2 -1 4
1532331465463519 9 8 8 6 -2 -2 0 2
1532331465495434 2 -25 -19 -1 -1 0 -1 -2
1532331465516378 1 -8 7 -2 -5 -1 -2 1
1532331465546298 -4 0 -7 -3 -1 -1 -1 0
1532331465561258 -4 -11 -2 -6 -2 -2 -1 -3
1532331465599157 -3 -28 -19 -2 0 0 0 -1
1532331465621098 2 19 15 -1 -1 -3 -1 2
1532331465651017 -1 -7 -41 1 -1 -1 -3 2
1532331465673956 1 11 -30 0 0 -1 -2 -1
1532331465695897 1 2 2 1 0 -3 1 0
1532331465718836 4 -3 3 1 2 13 7 15
1532331465733796 -5 7 -31 4 6 -10 6 6
1532331465755738 4 -4 19 3 2 40 51 9
1532331465786669 -4 -16 -1 1 -1 -10 -16 -5
1532331465801615 -5 -23 -24 -16 -4 -9 -8 -13
1532331465823556 -11 -6 23 10 5 4 -2 2

1532331465853475 2 3 -28 2 -3 -7 -7 -3
1532331465868436 1 3 -16 4 0 5 -1 -5
1532331465898356 4 -7 -12 3 3 1 2 -1
1532331465921294 -1 18 14 -1 -1 -1 -4 -2
1532331465951214 -4 -9 7 -1 1 -1 -2 -3
1532331465966175 1 -3 5 0 2 1 -3 0
1532331465989113 1 -10 1 -1 0 -1 0 -3
1532331466004073 -2 -5 -1 3 1 0 -2 -2
1532331466026014 1 1 15 -5 1 0 -1 1
1532331466048953 2 5 5 2 -2 0 -1 0
1532331466070894 -6 2 4 -2 1 -1 -1 -1
1532331466100815 -4 4 8 4 1 -1 0 -1
1532331466115775 -1 -6 0 -6 -1 1 0 -1
1532331466138713 3 3 -13 -3 -1 -2 0 0
1532331466161652 0 -3 -32 -5 0 1 -1 -1
1532331466191572 3 -5 -10 -3 -1 -1 -2 3
1532331466213513 2 3 5 2 1 1 1 0
1532331466228473 -4 -13 2 -6 -3 -1 -1 0
1532331466243433 -3 -14 10 0 -3 -1 -2 0
1532331466266372 1 -5 -14 -2 -2 -3 -2 0
1532331466288312 0 -2 1 -2 0 -1 -1 1
1532331466311252 1 5 6 -3 -1 -1 -1 -2
1532331466334190 -6 10 15 0 -1 -1 -2 -3
1532331466349150 1 -4 3 -1 2 2 3 2
1532331466371092 4 -3 11 2 -1 2 0 -1
1532331466386052 -8 -16 -13 1 -2 -1 -1 -3
1532331466408990 -3 7 -30 -5 -2 -1 -1 -1
1532331466446889 0 2 4 -2 -1 -1 0 2
1532331466460851 -1 -3 9 1 0 1 2 -3
1532331466483790 -2 -6 -1 -1 0 -1 -2 -2
1532331466505731 -6 -10 8 3 1 -1 -2 -3
1532331466521694 3 8 22 2 0 1 -1 -3
1532331466543629 0 4 14 0 0 -1 -3 -2
1532331466566568 5 23 3 -2 -2 -1 4 16
1532331466581529 -2 -2 -5 -2 -2 -2 -2 -3
1532331466603536 5 19 12 5 4 1 0 3
1532331466633457 0 4 11 3 0 0 -4 -3
1532331466657394 -4 7 4 -2 -1 0 2 -1
1532331466686317 -3 14 7 0 -1 0 -4 -4
1532331466724215 -2 -3 -1 1 1 1 1 -5
1532331466738177 2 -3 -2 0 -1 0 -2 1
1532331466769094 0 -11 -2 -1 1 -2 0 -3
1532331466784055 0 -5 9 1 0 2 0 0
1532331466805997 -1 0 -5 -3 -2 -3 -1 -2
1532331466820957 1 10 19 0 -2 -1 2 -1
1532331466843895 0 14 39 0 -4 -3 -4 -1
1532331466865836 -2 -5 7 -2 0 1 3 -1
1532331466880800 -2 5 -12 -1 0 0 -2 -1
1532331466903735 0 -1 -1 -1 1 -1 -2 -2
1532331466926682 4 -4 -7 0 -1 1 8 12
1532331466949229 -1 0 0 0 0 -1 4 0
1532331466963194 2 -3 -41 -6 -3 -2 -1 -1
1532331466986132 0 -15 -6 -1 -3 -3 -2 -2
1532331467016052 -2 -3 -4 0 -1 -1 -9 -13
1532331467038991 -11 -2 0 -2 -3 -7 -20 -7
1532331467075892 2 0 11 -2 -4 -6 -5 22
1532331467090852 -8 -25 -19 -2 6 0 -3 -21
1532331467113795 -1 4 16 1 -5 -10 -1 -2
1532331467135732 0 -7 -8 -3 0 3 4 6
1532331467158671 4 19 25 5 3 1 2 2
1532331467196569 -1 9 17 2 -3 -5 -7 -2
1532331467211530 -1 11 6 0 -3 -1 2 -4
1532331467226490 2 -8 21 2 -1 -7 3 2
1532331467263390 -2 -4 4 1 1 3 0 0
1532331467278351 -2 -5 13 7 5 4 4 1
1532331467301289 -1 -9 2 -6 -1 0 -2 0
1532331467323231 -1 -1 -6 -13 -14 -2 0 -2
1532331467354149 -1 -1 -8 -8 7 -2 -2 -1
1532331467384067 -6 -6 8 -2 -6 1 -2 -9
1532331467428948 0 -5 -4 8 -3 3 0 3
1532331467450889 -7 -3 0 -8 -7 0 -1 3
1532331467473828 5 -4 -7 -6 -9 -1 12 -5
1532331467488788 -14 1 0 2 4 0 2 -4
1532331467518723 -27 -9 -5 13 9 3 4 -14
1532331467541647 -24 3 2 -7 12 7 0 -9
1532331467587524 19 3 -3 -4 4 2 16 9
1532331467608468 -9 1 -1 12 4 -5 3 -5
1532331467638387 21 10 -7 -9 -9 -16 17 5
1532331467653347 0 2 11 14 8 3 -6 -19
1532331467668308 -9 3 7 7 0 -7 -18 6
1532331467691246 -4 -6 -29 8 5 4 -12 1
1532331467706206 6 -1 -8 -3 5 8 -2 -6
1532331467729145 15 -9 -11 1 5 -2 13 5
1532331467759065 -25 0 8 2 0 -6 -2 -6
1532331467774024 18 -15 -37 -1 2 0 -4 12
1532331467795966 -28 -19 10 1 -4 -3 4 -32
1532331467825886 7 11 19 5 0 1 8 -4
1532331467848825 18 8 2 4 6 11 29 7
1532331467870766 -28 1 11 -8 -4 -5 -8 -7
1532331467885726 -22 -15 15 -5 -5 -11 1 -5
1532331467908664 0 14 14 2 1 -6 -22 7
1532331467938585 2 4 5 -3 -2 1 13 -11
1532331467970499 8 -11 2 -3 -2 -1 -14 3
1532331467998437 -10 -13 -4 -7 -3 -13 -14 -9
1532331468028344 1 -15 -4 -4 1 -2 -1 -2
1532331468066243 0 -21 8 3 -3 -13 -6 2
1532331468089181 -7 13 12 -2 -2 -7 -4 -9
1532331468126083 -2 -10 -4 -9 -6 -4 -8 -2
1532331468141043 -9 -6 -27 -5 -3 -13 -12 -6
1532331468185923 -4 6 1 -2 1 0 -2 -3
1532331468215842 7 8 11 7 2 4 -13 5
1532331468245763 4 5 5 1 -2 2 -12 5
1532331468268701 6 3 2 -3 -4 -5 -6 8
1532331468313581 8 -3 -2 1 3 7 8 -1
1532331468328542 2 -2 -8 -9 -5 -8 -6 0
1532331468388381 1 -1 2 0 6 18 2 0
1532331468418301 -3 -1 -2 -1 -2 1 -1 -4
1532331468448221 -3 -4 -2 -1 3 6 -5 -2
1532331468516040 10 39 16 1 3 10 2 2
1532331468530999 -2 35 17 1 0 -2 -1 0
1532331468628739 0 -22 -22 -3 0 10 2 1
1532331468658658 1 11 35 1 2 -2 -1 -3
1532331468681597 4 41 81 3 -3 -3 0 1
1532331468718498 -3 -38 -40 -10 1 1 2 -1
1532331468748419 -1 -13 -25 -1 1 -9 -6 -1
1532331468786317 1 -18 -57 -4 2 6 2 -1
1532331468801277 3 30 21 -7 -5 -11 -2 0
1532331468839176 1 -6 -59 -1 5 32 3 0
1532331468861117 0 3 56 3 -8 -9 -1 0
1532331468913976 0 10 -8 -5 2 26 6 0
1532331468935921 2 7 -6 -3 -11 -29 -2 2
1532331468988775 -2 -21 -69 -4 7 8 0 -2
1532331469018695 2 -1 36 5 5 -7 4 1
1532331469048616 3 25 24 7 11 26 11 -1
1532331469086513 -5 -6 20 -4 -4 4 -1 -1
1532331469101473 -2 -16 -35 -1 0 -8 1 1
1532331469147358 -2 0 -2 0 -9 1 -3 -2
1532331469199218 3 2 6 -4 -5 -11 -5 1
1532331469221154 4 6 -12 -1 4 15 -3 0
1532331469259052 1 -2 41 8 2 -12 -9 3
1532331469288972 -4 -1 -3 -2 -4 -20 10 -2
1532331469325874 -1 3 28 2 -2 -3 0 -7
1532331469340833 0 12 19 2 2 3 0 -4
1532331469393692 0 -4 24 9 5 10 4 2
1532331469423612 1 1 -41 -6 -2 -14 -9 -4
1532331469506391 4 2 9 -6 0 10 0 0
1532331469528332 -2 17 -3 0 -5 0 -2 3
1532331469589169 -3 -7 -8 -3 -5 -8 -16 -2
1532331469619089 -5 -9 -5 1 5 2 -7 -7
1532331469641031 2 6 -5 2 1 9 11 4
1532331469678929 3 -3 8 1 4 -2 -2 13
1532331469700871 -1 -1 3 -1 -4 -10 -2 -4
1532331469745750 0 7 30 1 -5 -17 -3 -7
1532331469768689 7 -2 -46 2 6 4 0 0
1532331469821559 -1 10 35 2 -1 4 15 2
1532331469858449 -2 -44 4 6 1 3 -7 -1
1532331469881387 -3 -9 -6 0 2 -5 -4 2
1532331469926267 -7 -3 -32 -2 1 -5 -6 2
1532331469948209 5 -6 9 -5 -6 -1 -3 5
1532331469986107 4 18 25 5 2 8 3 3
1532331470016027 1 -6 6 -3 0 7 -2 0
1532331470046945 -1 -1 6 2 0 1 -3 0
1532331470075867 -9 -3 7 6 3 1 1 -5
1532331470090827 -3 -4 -5 -2 -4 -4 -1 -1
1532331470128726 4 7 2 0 1 -1 -2 1
1532331470166624 -4 -7 -6 0 2 1 -1 -2
1532331470188566 0 -1 -15 0 -1 1 1 -1
1532331470218486 -8 8 12 2 3 0 -2 -1
1532331470233446 7 46 60 2 -4 -1 1 3
1532331470256384 1 17 9 8 1 2 0 0
1532331470271344 -11 -18 -20 -6 0 1 1 -9
1532331470293286 4 -4 -6 2 3 1 1 1
1532331470324202 -5 -11 0 1 3 3 2 -2
1532331470339163 8 1 -7 8 3 -3 -1 1
1532331470361104 8 15 -1 -4 -7 4 -3 -4
1532331470376064 -1 -8 25 6 3 -14 6 -9
1532331470399003 -2 -5 -7 1 3 -4 -2 6
1532331470413963 11 27 -26 -3 -5 -7 0 4
1532331470443883 -1 7 0 4 7 27 6 0
1532331470458843 4 -7 3 0 -1 -10 -1 8
1532331470480784 -4 3 -16 -2 -3 -7 0 15
1532331470495744 -9 2 -5 -7 -3 -2 2 -1
1532331470518683 -6 7 21 6 12 6 3 -2
1532331470541621 5 -2 -15 1 11 5 4 2
1532331470563563 -6 19 0 -7 4 2 -3 -4
1532331470586501 -3 -1 17 -8 -11 -12 -2 6
1532331470623403 -5 -31 3 7 0 -7 -2 0
1532331470646341 -2 -5 -4 3 8 -4 0 -1
1532331470676274 -6 -10 12 3 8 -1 2 1
1532331470707179 -7 -23 -11 -6 -6 -6 1 -1
1532331470729120 -6 -33 61 11 5 7 -3 -12
1532331470759040 0 10 24 -7 -7 -23 -6 -1
1532331470774000 -9 -13 23 6 -2 -2 4 -6
1532331470795941 6 11 43 4 -2 1 -2 7
1532331470818880 16 5 -1 -3 -4 -10 -14 15
1532331470848799 9 -4 -3 5 6 4 4 16
1532331470870741 0 -4 -16 -11 -4 0 -6 -17
1532331470893680 -7 -27 -1 -6 -2 5 -1 -5
1532331470923600 7 21 54 15 -13 -2 12 10
1532331470968492 23 23 -39 -3 0 -15 -10 -7
1532331470998399 -3 8 30 7 -3 3 3 6
1532331471028319 3 -26 26 9 5 -8 -2 0
1532331471066218 -15 -7 27 2 -2 -4 5 19
1532331471089156 -6 -28 42 -4 -2 1 -2 8
1532331471111097 1 -12 -40 -5 -2 1 4 3
1532331471141018 0 -7 12 11 7 5 -1 -3
1532331471163956 10 18 -9 -2 -2 -1 0 9
1532331471185898 14 -2 18 -3 -3 -24 -7 -23
1532331471215818 -3 30 -17 6 6 2 1 -2
1532331471230778 -7 -9 59 2 -5 -2 9 -4
1532331471253717 7 -5 -88 -28 -3 3 -5 2
1532331471298596 7 27 31 6 3 -10 -1 1
1532331471328517 -6 -46 18 0 -2 -9 -3 6
1532331471358437 1 -24 5 -10 -2 3 -7 -9
1532331471433236 1 13 0 0 -6 -3 -2 1
1532331471479125 -7 -11 -39 -1 4 1 -5 0
1532331471523994 -4 -7 -34 -5 8 -2 -10 2
1532331471568873 -5 -23 -48 -12 -8 -8 2 5
1532331471598794 0 12 7 5 0 -5 6 -4
1532331471643674 1 8 23 8 5 0 -2 -1
1532331471666611 -4 2 19 -8 -16 -7 -5 -3
1532331471696532 3 5 -7 4 2 3 2 2
1532331471726452 2 -3 -36 -5 29 4 -1 -2
1532331471748394 0 -1 6 4 9 0 -3 -1
1532331471772330 1 -3 -7 0 -6 1 0 2
1532331471816212 0 -6 -2 5 -4 -2 1 -1
1532331471839165 -2 -5 -7 -17 -10 -14 -15 -5
1532331471869070 3 -3 -22 -6 -5 7 -1 0
1532331471891012 -4 10 5 -21 -11 0 -9 -5
1532331471920932 -1 1 9 0 -4 -5 0 -3
1532331471935892 -7 -18 -21 -22 -15 -10 -4 -3
1532331471950852 -15 -38 -77 -19 -9 2 -8 -7
1532331471988750 4 8 6 -1 -3 -12 34 41
1532331472003711 12 19 25 16 15 40 -14 -36
1532331472026649 13 18 20 3 0 -7 -11 25
1532331472056569 -8 0 2 1 -6 -25 21 20
1532331472078511 -3 -3 0 -4 5 2 -16 6
1532331472101449 -8 -12 -3 -3 -12 -18 -6 -8
1532331472123390 5 -2 -13 4 7 -28 8 32
1532331472153310 -8 -6 -22 -7 -7 13 -15 -14
1532331472199187 4 14 27 8 11 -12 -13 14
1532331472221129 3 2 0 3 3 -21 3 3
1532331472252046 -3 -16 4 -1 0 0 -14 0
1532331472295929 1 7 1 2 -5 -2 -18 -7
1532331472327843 2 9 -5 -2 -14 5 -2 -1
1532331472348788 -2 -4 -2 0 7 12 -6 -10
1532331472386698 -4 -16 -16 7 6 -14 9 -5
1532331472401646 1 -2 4 1 -11 -48 -5 0
1532331472431566 7 18 15 1 10 11 -20 -44
1532331472446526 3 -7 -43 -4 -4 -7 5 8
1532331472468467 -1 6 -3 -2 29 40 32 18
1532331472491406 4 11 -2 -1 -11 -3 0 15
1532331472506366 2 13 9 6 12 26 8 7
1532331472528307 -2 -12 -3 0 6 24 14 9
1532331472544264 -1 -4 -9 -3 -11 1 -3 0
1532331472559224 -6 -4 19 11 4 -9 -5 -4
1532331472581166 -6 -6 -47 -8 -2 9 4 -12
1532331472604104 -3 7 -6 2 -17 -31 -20 1
1532331472619064 6 -12 58 -3 -15 -27 -10 24
1532331472641006 -1 8 -1 0 4 19 3 2
1532331472663945 -3 -13 -14 3 -1 0 -1 5
1532331472693864 -1 13 -3 -3 -1 -45 1 0
1532331472730765 9 15 -36 3 18 26 8 7
1532331472745725 -3 1 14 0 -15 -14 -20 -13
1532331472761683 3 11 -7 2 7 -7 0 2
1532331472791603 -2 -4 3 -5 -3 5 -4 6
1532331472821522 4 14 -8 -1 2 23 11 -4
1532331472851443 2 31 124 10 7 -15 -5 -2
1532331472888344 3 12 -14 -2 -5 26 5 -2
1532331472918264 -1 18 62 9 6 -1 7 -6
1532331472941203 -2 -13 -30 -9 -14 -6 2 0
1532331472964141 4 13 22 0 -3 -9 -8 8
1532331472979101 -1 -15 -34 9 9 19 10 -7
1532331473001043 5 6 -20 6 4 2 0 6
1532331473023982 -1 -24 -2 6 -2 -2 0 -1
1532331473060882 -1 -14 -29 -2 -12 -24 -4 -1
1532331473083821 1 8 -10 -1 9 9 4 1
1532331473098781 -7 9 -26 -12 -11 -12 5 -9
1532331473120722 -1 -6 -7 0 5 15 -10 -7
1532331473143661 6 20 23 15 7 1 7 -1
1532331473158621 -7 7 8 0 -1 -2 -7 -6
1532331473181560 10 0 17 2 -4 -11 -25 7
1532331473211479 1 -13 -34 -8 -3 -11 -6 0
1532331473226439 -3 -25 -26 0 1 5 10 -1
1532331473256360 -4 -14 -27 -11 -10 -12 -11 -1
1532331473271319 6 -8 -5 2 -6 -9 -21 -1
1532331473286295 -23 -25 -69 -1 -1 -13 1 -5
1532331473308220 2 25 91 11 5 -5 8 7
1532331473339139 3 24 54 2 2 -3 -6 1
1532331473376039 0 -25 -24 -7 -1 -7 -2 -9
1532331473405959 -6 11 20 -6 -3 0 0 1
1532331473420920 -8 -17 45 3 -1 0 -4 -12
1532331473450839 7 12 18 -3 -1 1 -11 -6
1532331473480759 3 3 3 -7 -3 11 -1 1
1532331473495719 9 40 46 -1 5 5 4 7
1532331473541596 -17 3 -13 -1 -2 2 11 -4
1532331473571516 -8 -6 28 -1 -5 -2 -3 8
1532331473625373 -2 13 -3 -3 0 -9 -20 1
1532331473647329 2 8 4 -10 -4 -6 -11 1
1532331473661276 4 -1 -14 -7 -2 6 0 1
1532331473684215 -5 -7 -17 2 0 -3 2 1
1532331473729095 -3 -5 -9 3 2 0 -3 -1
1532331473773975 -1 -8 -14 -7 -4 -2 -4 -2
1532331473795916 -1 -12 -66 -2 1 1 2 1
1532331473848775 11 40 15 1 -1 -1 0 3
1532331473878695 4 -12 13 2 1 -3 -1 2
1532331473902631 0 -1 6 1 -2 0 0 -1
1532331473931559 2 6 -5 -4 -5 -3 1 5
1532331473946515 -2 -2 26 3 -1 -1 3 -2
1532331473961473 -4 -23 -34 -4 -3 -4 -8 -5
1532331473983415 -11 -16 15 0 -2 0 -1 -8
1532331474013334 0 7 5 6 3 3 1 -3
1532331474028295 -1 -6 57 3 0 2 1 -5
1532331474051233 -19 -67 -59 -13 -6 -4 -6 -2
1532331474066194 -2 -11 2 5 2 -2 2 2
1532331474081153 2 -3 10 7 2 1 1 1
1532331474111073 2 -4 6 -1 0 4 6 -1
1532331474126033 -3 24 63 5 -3 -2 1 -2
1532331474140993 -5 15 -53 -2 1 0 1 0
1532331474163939 8 29 20 0 -7 -3 -2 -2
1532331474193851 -2 3 -5 0 0 2 -1 3
1532331474230754 -17 -25 36 -1 3 18 5 -22
1532331474253691 -4 -45 -9 -3 -1 0 3 -3
1532331474291590 -22 -32 -44 -5 -3 -4 3 -5
1532331474336470 7 -9 19 0 -1 -4 1 13
1532331474358411 1 19 -12 3 2 -5 16 3
1532331474403291 3 8 8 4 0 2 1 -1
1532331474433211 -2 -4 -8 -3 1 22 -21 -14
1532331474456150 1 -38 -17 -1 -3 -12 -1 2
1532331474479089 -1 31 -1 -4 2 13 -56 -8
1532331474523969 7 16 5 2 -2 -5 13 10
1532331474545910 0 -19 16 0 -2 -2 12 5
1532331474575830 5 21 -12 2 1 -5 8 6
1532331474590790 8 38 45 2 -4 -5 18 8
1532331474613734 4 -7 19 0 1 -2 3 3

1532331474636670 4 51 74 5 -1 0 6 3
1532331474666587 2 4 -32 -5 -3 -4 0 -2
1532331474688528 -1 -11 -31 -1 5 -1 2 1
1532331474733408 0 7 18 0 1 2 -1 0
1532331474756347 -4 -4 -8 -1 -4 -3 -2 -3
1532331474794246 -3 -11 -35 -3 -2 -1 1 1
1532331474809216 -1 0 4 2 2 3 22 1
1532331474854085 3 2 -11 -1 0 1 -2 -1
1532331474876027 8 12 1 -1 1 0 -4 0
1532331474905947 -5 -3 32 4 -2 0 -4 -2
1532331474928885 -3 -4 -7 -1 -2 1 -2 -2
1532331474965786 0 -3 -12 -4 -2 -3 2 -4
1532331474995707 4 3 -3 -3 0 0 3 1
1532331475026624 -1 12 5 1 0 -1 -10 -4
1532331475086463 -2 5 3 0 -1 1 17 -1
1532331475131344 0 3 2 0 0 -1 -10 1
1532331475146304 -8 -11 -2 -1 -1 -4 -8 -3
1532331475183205 0 1 3 -2 -2 -3 -16 -2
1532331475206143 5 18 -3 -2 -1 -1 1 1
1532331475236064 -5 -8 -4 1 1 3 1 -3
1532331475259002 0 0 -2 1 1 -2 1 0
1532331475310864 0 -15 2 0 0 1 7 16
1532331475334214 5 6 -12 -2 -2 -2 2 6
1532331475356155 -1 3 -4 1 0 0 2 -14
1532331475379093 -5 -17 -13 0 1 -3 -30 -14
1532331475423973 12 31 8 1 1 1 6 15
1532331475445915 -3 -17 -3 -2 -3 -2 0 0
1532331475475835 2 9 9 -1 0 1 -1 -6
1532331475498774 2 -5 -4 -2 -3 -1 15 8
1532331475558613 1 4 -17 -3 -1 -1 -2 -4
1532331475588534 -1 0 4 1 2 0 -7 -7
1532331475618453 -1 -3 5 1 1 -1 -7 0
1532331475641392 -3 10 6 -3 -3 -3 -2 -4
1532331475671312 3 4 -5 -4 1 8 0 -6
1532331475701233 5 5 3 0 0 11 0 13
1532331475739130 0 5 10 2 0 -5 -8 -9
1532331475790992 0 9 -6 -2 -3 -5 1 16
1532331475858811 -5 -27 1 2 0 -1 17 -1
1532331475882747 1 3 10 -1 -1 1 1 -5
1532331475911669 -8 -12 2 -1 -1 -1 -7 0
1532331475963530 0 14 -11 -5 -1 -2 -1 -4
1532331476008410 -4 -3 -15 1 1 1 -10 2
1532331476061269 5 -18 -6 2 3 5 20 -11
1532331476084207 -8 -4 -7 -2 3 15 -17 -7
1532331476114138 1 12 -13 1 -1 -6 -2 15
1532331476136069 -3 -11 6 1 0 -1 2 1
1532331476180948 -4 -3 8 -9 -8 -8 -3 -5
1532331476233808 0 -32 -4 6 -1 -1 0 0
1532331476255749 2 -15 10 9 1 0 -2 -2
1532331476293680 2 3 -2 -13 -2 5 11 -1
1532331476316586 -1 -2 -21 -4 -1 2 5 0
1532331476338528 0 0 5 -4 1 2 3 -2
1532331476361466 1 5 5 3 4 2 1 0
1532331476376425 2 9 -1 -4 2 -3 -1 0
1532331476406346 3 0 -3 -6 -13 -3 -1 0
1532331476421306 -3 1 -20 -4 -1 -2 -2 -3
1532331476436266 10 -3 -8 2 6 2 0 6
1532331476474164 -7 -7 -4 -5 3 -4 -2 -14
1532331476489125 9 2 -5 4 17 6 5 7
1532331476511065 13 3 0 -4 -3 3 23 10
1532331476563924 7 -1 -4 9 -3 -1 -4 1
1532331476578895 -14 0 3 -8 -6 -9 -13 -15
1532331476593844 -27 -2 -3 0 10 10 8 14
1532331476646706 -7 -2 -8 -15 -9 -7 -18 -5
1532331476668644 5 -12 1 13 3 2 -45 7
1532331476691583 22 4 18 3 -1 6 -6 3
1532331476713524 -28 -8 0 -15 -5 5 15 -1
1532331476728485 2 -12 -18 2 0 -4 15 -3
1532331476751423 -2 2 23 6 -1 1 -12 5
1532331476773364 -8 8 9 -13 -4 -2 -14 -2
1532331476796303 2 7 5 -1 0 2 16 11
1532331476826223 -7 0 -10 0 2 6 -6 1
1532331476856143 -16 -6 -4 6 1 6 -7 0
1532331476888057 4 14 -2 -8 -4 -8 -6 8
1532331476909001 12 1 -16 -2 2 -4 3 18
1532331476930953 -16 12 8 7 1 -1 5 -6
1532331476953881 -11 -5 -8 -2 1 -3 3 1
1532331476992777 12 9 8 -3 0 -6 -20 -15
1532331477013721 -16 -10 3 -3 0 5 18 4
1532331477043641 -19 3 -31 -2 0 -3 -24 -12
1532331477081540 -31 -11 -20 6 -1 6 5 -14
1532331477096500 -19 -7 -2 -4 -9 -8 24 -3
1532331477111460 34 9 -3 0 6 21 5 32
1532331477133404 -14 -6 1 -8 -11 -14 11 -37
1532331477156340 23 27 8 3 -1 -7 10 1
1532331477171300 -43 -9 1 -7 -6 -1 -30 -33
1532331477201220 -9 -3 5 12 -4 -24 -8 -15
1532331477224158 0 10 -8 -7 3 29 -3 -3
1532331477239118 11 8 17 -1 6 11 18 11
1532331477254078 -2 10 6 -7 -3 6 5 -2
1532331477276020 -2 -4 6 -2 -2 -4 -4 -7
1532331477290980 -4 3 4 1 3 0 -8 0
1532331477320900 2 -3 -3 -2 -2 9 -6 4
1532331477343838 -3 -11 12 7 5 0 -11 -1
1532331477373759 -6 -6 0 2 3 1 -4 0
1532331477411657 9 5 3 2 -3 -8 0 5
1532331477426617 -4 -3 -1 -1 -4 -13 -6 -3
1532331477448558 -2 1 0 -2 0 1 0 -3
1532331477471497 0 -6 -3 -1 0 3 -4 1
1532331477501416 -3 -2 -1 0 0 -2 -8 -4
1532331477523358 0 4 2 0 -1 3 0 1
1532331477553287 0 7 5 3 10 19 1 -2
1532331477568238 2 16 10 -5 -11 -26 -2 0
1532331477599155 0 -28 -16 18 9 16 1 3
1532331477614115 0 7 -58 -5 2 6 0 -12
1532331477636056 -4 15 68 6 -7 -22 0 -2
1532331477651016 -2 12 -4 -8 -7 -5 0 0
1532331477673955 7 2 19 14 -1 -7 6 10
1532331477695896 0 17 31 23 8 7 3 3
1532331477718835 -8 -10 -125 -30 -23 -29 -6 -5
1532331477733801 1 14 -5 2 0 2 0 0
1532331477755736 -3 -26 -4 -5 8 8 -1 0
1532331477771694 1 -4 -3 2 2 9 -2 0
1532331477793634 -2 13 15 1 -2 1 -1 -1
1532331477816574 0 9 73 0 8 9 -3 -3
1532331477831534 1 6 17 -6 -1 -8 8 2
1532331477853475 2 0 -13 7 9 23 -6 1
1532331477876413 0 -14 -74 -9 -3 2 -1 2
1532331477891374 0 1 6 2 -1 -2 -2 -1
1532331477921293 -1 19 18 1 -6 -29 2 0
1532331477943235 3 7 38 5 -1 5 6 0
1532331477966174 -3 -26 -41 -3 5 10 -2 -1
1532331477981133 0 -6 -29 -4 -7 -9 -4 -1
1532331478004072 -2 -3 1 1 -2 -6 -2 -2
1532331478019032 -2 -7 -13 14 1 -6 9 -1
1532331478049949 2 -11 -25 4 0 -9 -15 0
1532331478063912 1 -5 23 1 -9 -25 -6 3
1532331478078871 -3 -7 35 -1 0 18 -2 0
1532331478093831 -2 -7 7 -5 5 -1 -10 -1
1532331478123752 -7 8 18 -12 -4 -31 -2 -2
1532331478146691 3 2 -27 -1 2 7 -3 -1
1532331478169629 3 8 21 -3 -4 -9 -7 0
1532331478183592 -1 -4 -34 -3 -2 3 -4 -1
1532331478198552 -2 -2 -26 -2 -1 3 4 -3
1532331478228472 2 -16 -96 -8 0 1 -3 1
1532331478243432 3 7 5 0 -3 -13 -3 2
1532331478266370 1 18 53 10 0 16 2 0
1532331478281330 -3 -61 -51 -4 2 29 -1 -3
1532331478296290 -4 5 -15 -7 -2 -3 -14 -3
1532331478327208 -1 12 23 -5 -6 0 -7 -1
1532331478356130 0 1 -1 11 2 0 6 1
1532331478371090 0 -10 -11 1 2 17 -8 2
1532331478408989 -4 -5 67 2 3 17 -3 -5
1532331478431943 -3 4 -15 6 2 1 -2 1
1532331478453869 -2 3 0 3 1 -6 10 -5
1532331478484786 -3 22 28 5 1 0 -6 -9
1532331478520690 0 -41 -105 -24 -8 -7 -21 -3
1532331478536647 6 -7 -49 8 7 -21 22 7
1532331478558589 4 3 45 1 -14 -26 7 -3
1532331478573549 -5 -26 17 -1 -2 -6 2 3
1532331478596487 -4 31 -45 -12 -7 -5 -10 -18
1532331478633388 3 14 1 6 3 -4 -6 -10
1532331478657325 -2 13 50 5 -1 -5 14 0
1532331478672284 3 10 38 -1 -2 -3 -1 2
1532331478716167 6 11 28 -1 -4 -4 18 6
1532331478739105 -8 -21 -29 -25 -8 -7 -22 -2
1532331478754066 5 9 57 2 1 -13 -21 6
1532331478776007 -6 -8 -59 -8 -1 7 6 2
1532331478805927 7 37 45 15 5 1 -18 -4
1532331478820888 -4 8 12 2 -7 -12 -13 -5
1532331478843826 -7 4 34 0 -7 -13 -2 1
1532331478873746 -6 -1 -17 0 1 5 -4 -5
1532331478895686 0 -38 -16 -10 -5 -5 18 3
1532331478918626 0 19 78 9 -2 -2 9 25
1532331478933585 -5 -14 -56 -4 -4 -34 -3 -1
1532331478956524 -2 2 20 0 1 -8 -16 2
1532331479001404 -5 5 4 10 6 8 2 0
1532331479038305 2 -12 6 -1 -1 1 1 3
1532331479061244 -5 3 10 -7 -4 2 3 -3
1532331479084183 7 17 0 -1 -4 1 1 2
1532331479099143 -14 -22 -11 3 -1 2 -1 -6
1532331479114120 8 13 5 -1 0 0 0 2
1532331479158983 13 7 10 4 6 1 1 3
1532331479180924 -6 -36 -7 -2 -6 -3 0 0
1532331479195883 -8 -15 -45 2 3 -4 -6 -2
1532331479218823 -5 -29 -10 -3 -1 -7 0 0
1532331479240764 -2 34 6 -3 -3 10 1 -9
1532331479256728 10 10 -4 2 7 11 -2 -16
1532331479278662 6 15 16 -3 -4 -10 3 4
1532331479301601 -3 -26 -5 -3 1 -4 1 -1
1532331479323543 -6 -39 3 -1 -4 2 -4 14
1532331479346481 0 18 -9 3 3 5 -5 11
1532331479368422 3 7 -22 5 6 1 1 6
1532331479383383 -3 -25 -19 -4 -8 0 -7 -23
1532331479398342 0 15 19 6 7 1 4 11
1532331479421281 -2 -24 16 -1 2 -1 -3 6
1532331479436241 9 27 -4 -2 0 -3 2 7
1532331479459179 1 9 -5 -3 7 7 5 -1
1532331479481121 2 2 5 13 11 4 3 2
1532331479511040 2 1 0 -14 -8 -6 -3 -14
1532331479526001 -7 28 41 8 -5 -2 0 7
1532331479555921 -5 -1 -5 14 9 -1 3 -12
1532331479585840 -2 1 -23 -17 -8 -2 -2 -5
1532331479615761 -6 -8 -63 -4 6 -6 -3 2
1532331479661637 -5 0 -24 -5 0 -9 -3 6
1532331479676597 0 -22 -7 3 -2 1 -2 2
1532331479698539 -9 -39 -17 0 -5 -7 -5 -2
1532331479736438 -7 -23 32 2 -2 -4 0 15
1532331479758379 0 -29 2 -4 -4 6 5 13
1532331479781325 -3 -25 0 -7 -7 9 5 2
1532331479804263 -5 18 72 10 -3 -1 -1 8
1532331479818219 7 -14 -31 1 0 2 1 -7
1532331479849136 -10 52 -11 -11 -10 0 -1 -8
1532331479871078 0 -2 -53 -6 4 1 -5 -17
1532331479908976 -10 -31 3 -1 -2 -1 -3 -10
1532331479938896 -23 -11 3 3 11 10 2 -7
1532331479960838 -18 52 2 -4 6 -1 -2 -7
1532331480013696 -9 -10 39 3 -3 -2 -1 14
1532331480051595 10 -24 3 1 3 -4 -1 24
1532331480096481 7 44 27 1 -4 -3 1 -1
1532331480141355 -11 -65 -19 2 3 3 4 0
1532331480171274 -6 -5 -43 -19 -12 -8 6 -13
1532331480194213 -10 -17 7 -12 -5 0 2 0
1532331480231115 0 19 26 1 -1 -1 -1 3
1532331480246074 -25 -24 19 1 0 0 1 16
1532331480261035 -2 18 47 3 -2 -2 -6 8
1532331480283974 -2 -4 -21 -3 1 -1 -2 1
1532331480320880 -5 -30 -4 -6 0 5 0 -1
1532331480335834 -7 -47 10 3 -7 -7 1 15
1532331480358773 9 32 -18 9 5 3 -15 11
1532331480388692 2 29 12 1 8 3 -6 2
1532331480411632 2 -3 27 -1 -4 0 -7 -5
1532331480433573 3 11 -6 -1 -2 -2 -3 1
1532331480471471 0 4 -18 -5 7 -1 0 0
1532331480486432 -4 -11 -48 -10 -11 -4 1 -3
1532331480501392 -4 -18 -28 0 1 1 0 2
1532331480523333 -1 -3 9 2 1 -1 -2 -3
1532331480546272 -1 4 -47 -1 19 9 2 1
1532331480561232 1 21 10 -1 -2 -1 -1 0
1532331480584170 -4 -9 -32 -27 -19 -8 -2 -2
1532331480599130 -2 -10 -2 12 14 5 0 -2
1532331480621071 -1 1 -18 -8 9 -4 -2 -1
1532331480644010 0 0 11 -2 -5 -3 1 0
1532331480665952 3 2 -11 1 1 2 2 2
1532331480688889 3 -4 10 -14 1 0 0 0
1532331480725791 -1 -1 18 5 -10 -5 -1 0
1532331480740751 0 11 1 -11 -13 -2 -1 0
1532331480778650 -6 -14 -4 -18 -25 -12 -1 -6
1532331480801589 -8 2 6 -2 6 8 11 -4
1532331480831508 -4 -4 3 3 -9 -6 -3 -1
1532331480853450 2 3 8 22 42 -5 -12 10
1532331480898330 -1 -6 -7 -14 -15 -27 -19 -13
1532331480913290 2 5 4 -1 -1 -6 -1 10
1532331480951199 0 8 1 -2 -12 10 44 21
1532331480981117 -2 5 -1 -6 -9 7 10 -5
1532331481004047 -8 -9 -3 8 9 -1 -10 -14
1532331481025988 4 -10 -1 3 0 29 2 -13
1532331481040948 -4 7 11 2 -2 -5 -2 16
1532331481070869 -16 -14 -8 -1 -8 -23 9 -40
1532331481093807 0 8 -9 -6 5 9 -7 7
1532331481123727 3 15 6 1 -5 -30 16 10
1532331481168607 17 9 12 3 1 -3 -7 -14
1532331481183567 1 8 6 5 3 -2 -1 11
1532331481198527 -11 -7 -8 -4 -4 30 35 2
1532331481243407 -6 -39 -66 -12 -10 -20 -1 14
1532331481258367 2 -3 36 1 5 -2 -13 14
1532331481281305 8 24 30 7 11 10 -15 -11
1532331481296265 9 25 13 8 4 12 -5 0
1532331481311225 -4 -2 9 -2 3 8 -12 -12
1532331481334167 -2 2 -2 3 -4 -15 -23 -4
1532331481356106 -3 -4 -18 -11 -2 3 4 -4
1532331481379044 4 -7 10 1 -3 -15 -9 2
1532331481394004 -3 -6 -11 -1 -11 -18 -11 8
1532331481430905 -3 -4 7 -1 1 -7 18 14
1532331481468804 3 -16 -9 5 8 7 3 2
1532331481490745 2 7 4 2 4 16 -5 4
1532331481505705 3 19 10 6 0 -19 -9 -6
1532331481543604 -10 8 16 1 23 37 -2 -4
1532331481558564 8 8 -4 8 2 -29 14 2
1532331481596481 3 -1 5 1 6 9 -5 -2
1532331481633364 2 7 15 -2 4 16 -2 -8
1532331481657300 0 0 -7 0 -9 -17 -4 23
1532331481701183 0 -9 4 1 9 -4 -12 -2
1532331481739080 -1 -9 2 7 1 2 -7 2
1532331481769001 1 3 -2 -5 -1 7 5 1
1532331481783960 9 21 18 2 -4 -2 2 2
1532331481813892 3 17 23 0 -6 -14 -5 12
1532331481850781 -5 -3 15 -10 -18 -9 -4 -6
1532331481881699 4 17 2 -2 -2 0 4 -3
1532331481903641 0 -4 -3 -5 1 7 0 0
1532331481948520 3 11 17 1 -9 -12 2 0
1532331481978441 -3 6 -8 -11 -5 5 -2 0
1532331482008360 0 7 27 10 12 -3 -6 0
1532331482061219 2 18 26 12 9 -3 5 0
1532331482114077 -1 -47 15 -10 3 -8 -12 -3
1532331482136019 4 29 26 11 -1 0 -5 -1
1532331482173918 -5 14 2 -6 -9 -4 1 -4
1532331482195859 1 1 -19 0 1 -6 7 -6
1532331482233758 -2 20 46 4 2 5 -3 1
1532331482263683 2 -52 -29 12 -3 1 4 -4
1532331482301576 7 15 -24 -9 1 -21 -18 1
1532331482331496 -3 -6 -22 -9 -6 5 3 -1
1532331482376375 4 8 42 7 4 3 0 -2
1532331482421256 9 34 59 5 -6 0 2 0
1532331482489076 -2 13 12 4 3 1 1 0
1532331482570856 12 32 -5 -1 1 2 1 1
1532331482593794 -12 -42 -12 -7 -2 -3 -1 -2
1532331482638674 -4 -13 -4 -2 -2 0 1 1
1532331482691532 10 5 -7 1 2 1 1 3
1532331482736413 -5 -15 -6 -4 -3 -3 0 -3
1532331482803234 -13 -50 -85 -4 0 -3 2 -18
1532331482818194 -13 -16 43 -1 -2 -1 -5 -2
1532331482834151 24 42 16 4 2 1 1 3
1532331482864072 -3 22 17 -2 1 -3 -2 1
1532331482879032 5 36 -1 -3 -2 -1 -4 0
1532331482893992 -10 -38 -16 0 2 -3 -3 -4
1532331482930896 -3 -4 -30 -2 -2 0 -1 -1
1532331482945853 -16 -33 -12 -4 -1 -1 -1 2
1532331482968791 -2 -7 -9 -7 -2 2 -1 -3
1532331482998711 2 -16 -18 -4 -1 2 -1 -14
1532331483021650 0 -9 -17 -3 1 17 -3 -17
1532331483073511 3 40 46 0 -3 -2 0 5
1532331483088471 -4 -5 -5 -1 -1 0 -3 -11
1532331483104428 -1 9 15 4 1 -2 1 2
1532331483133351 12 16 20 6 7 50 -15 -12
1532331483156289 -1 -2 -37 -4 0 -2 4 -13
1532331483178231 0 18 10 3 1 -16 -5 12
1532331483201170 -6 -4 16 -1 -3 -5 -3 0
1532331483239068 1 -1 -3 -2 -4 -9 -3 -2

1532331483268988 -2 4 -28 -14 -3 -6 -8 0
1532331483290930 -2 8 29 2 1 2 -2 2
1532331483313868 -4 -1 19 -2 -1 -3 -1 -2
1532331483335810 -6 -6 -4 -2 -2 -3 -1 -3
1532331483350770 -1 4 14 -5 -3 -4 -4 1
1532331483380690 1 -5 1 1 0 0 0 0
1532331483403628 -5 -11 -10 2 0 -1 -3 -3
1532331483448508 -7 -9 -24 0 1 -1 -1 -2
1532331483471447 5 20 5 -4 -1 -2 0 0
1532331483523308 -5 -1 -4 -3 -3 -3 0 -2
1532331483538268 1 10 -5 1 1 2 -2 -2
1532331483576167 5 17 11 -1 -1 0 1 1
1532331483591126 -2 -3 0 -6 -3 -2 0 1
1532331483606087 18 19 -6 2 1 -1 1 2
1532331483629025 6 14 -7 -5 -3 -1 0 2
1532331483650967 -6 -11 0 -1 -2 1 0 0
1532331483665926 -9 -24 -18 -4 -2 -3 -1 -3
1532331483688865 5 12 8 2 -2 2 1 0
1532331483718785 -2 4 3 -2 -2 -1 -2 0
1532331483733745 1 6 0 1 3 0 2 0
1532331483756684 2 6 -1 1 -2 -2 1 1
1532331483771644 1 10 -8 -2 -1 0 0 0
1532331483786604 3 2 -1 0 1 -1 -3 -2
1532331483808545 0 -13 -9 -3 -4 -1 -1 0
1532331483831499 3 3 -5 0 2 -2 -2 -2
1532331483846481 5 10 0 2 2 2 0 -2
1532331483868385 2 15 9 1 0 -1 1 1
1532331483891324 -1 -10 0 1 -1 1 1 0
1532331483906283 -3 -28 -18 -2 2 -2 -2 -1
1532331483936204 -1 7 1 -1 -1 0 0 1
1532331483959142 -1 -2 -5 0 -2 -2 2 0
1532331483983093 3 10 13 -3 -2 -1 -1 -1
1532331483996043 1 4 7 2 0 1 -2 -3
1532331484025964 0 8 12 -1 -1 -1 -1 0
1532331484040923 4 -1 1 -1 1 -3 -1 0
1532331484063874 0 1 -13 -2 -3 0 -1 0
1532331484093782 -5 -15 -8 0 -1 -2 -2 -4
1532331484108742 -2 -4 -7 -1 -1 0 -1 -4
1532331484138662 -5 -5 -2 -2 -2 0 -1 -2
1532331484153639 0 -13 -2 -1 -3 -2 0 0
1532331484168582 4 17 -2 -1 1 1 0 -1
1532331484191520 -3 4 9 0 0 -4 3 -3
1532331484213478 3 1 7 2 0 0 -1 1
1532331484228422 -1 22 6 3 2 0 -2 -8
1532331484251361 -2 -16 -2 3 -5 -21 0 -6
1532331484281281 1 -2 7 0 -3 -10 -36 -13
1532331484296240 1 -8 -1 0 1 0 20 2
1532331484341120 -9 1 15 5 0 -24 3 -6
1532331484364059 -3 -42 -3 0 7 47 13 21
1532331484386000 -9 -3 1 -1 -4 -20 -2 7
1532331484423898 2 -8 10 -2 2 11 9 4
1532331484438859 -2 16 -64 3 2 -10 -3 -1
1532331484460800 0 1 -17 -4 -1 -2 -1 -1
1532331484490721 0 3 37 7 1 0 3 2
1532331484506677 -3 -6 -6 3 1 2 -1 -1
1532331484528619 1 8 9 5 -1 2 3 3
1532331484551557 0 -1 -7 2 -1 -1 -1 -1
1532331484573499 6 -13 16 -2 0 -2 -1 0
1532331484596438 -8 -16 -10 -6 -5 -1 0 -3
1532331484618379 -9 -4 16 3 7 4 1 0
1532331484648299 -13 2 -5 3 1 7 0 1
1532331484671237 -4 2 -2 -6 10 3 -5 1
1532331484694175 8 -1 -1 4 -3 1 -2 -5
1532331484746036 9 2 1 -1 1 0 2 5
1532331484760997 21 4 9 16 1 4 4 3
1532331484798895 5 -10 -6 -12 -2 -3 0 5
1532331484813856 17 1 -5 4 10 4 2 2
1532331484850757 -14 14 8 2 3 0 5 0
1532331484866714 -1 -5 -15 -1 0 4 -4 -8
1532331484896634 -15 1 14 5 2 -4 -8 -12
1532331484911594 7 0 4 9 3 9 -14 -1
1532331484933536 -26 -13 -16 -10 -1 -2 7 -23
1532331484956475 -15 -7 -24 10 1 4 10 -9
1532331484978415 8 -1 3 -12 -4 3 -3 1
1532331485001354 -12 -20 -9 4 0 -2 -5 -4
1532331485031274 0 7 11 7 3 9 20 5
1532331485054213 -2 -13 -20 3 4 2 0 -1
1532331485091114 2 3 1 1 -3 -6 -8 -2
1532331485106074 1 14 -13 -2 -2 7 -7 -2
1532331485135994 -7 1 8 -6 -1 -4 -2 1
1532331485158933 -4 2 2 0 5 1 -7 7
1532331485180874 -4 12 -7 -6 -2 -9 -30 -3
1532331485203813 2 16 -24 -7 -1 -6 14 0
1532331485225754 -2 -11 21 3 -6 -15 -16 -5
1532331485256671 -14 -43 -11 -3 2 11 8 -12
1532331485271631 -1 -19 -8 -7 -2 -2 -12 -2
1532331485301551 -5 2 18 3 4 7 7 12
1532331485338452 -10 1 -4 -3 -2 -3 4 -2
1532331485368372 1 10 3 4 -2 1 -6 -2
1532331485398292 7 0 -3 -2 -2 -4 -8 -3
1532331485421231 0 4 -1 -3 -2 -5 1 -1
1532331485444170 -3 1 -4 -1 -6 -16 0 -2
1532331485466111 -3 1 -1 0 3 9 -6 -1
1532331485490046 -5 -2 -3 -3 -2 -7 -1 -4
1532331485504009 -5 -4 -2 -1 1 5 1 -5
1532331485533930 -4 -7 -5 -2 -1 1 -2 -5
1532331485555870 2 3 -2 0 -3 -4 0 1
1532331485578810 -8 -7 -3 -2 4 13 9 -5
1532331485600756 -3 1 -2 -1 -3 -5 -5 -3
1532331485638649 2 -1 1 -2 -3 -4 0 0
1532331485676548 -1 -7 0 -1 -2 -4 -3 -3
1532331485706467 1 3 0 1 0 0 0 -2
1532331485721428 1 3 0 -1 -2 -5 -1 0
1532331485743369 0 3 0 -1 0 0 1 0
1532331485766308 0 2 -3 0 3 4 -1 -1
1532331485804207 1 1 1 0 0 2 0 -2
1532331485826149 -1 0 -2 -2 -3 -1 -1 -1
1532331485849087 1 -1 2 7 7 4 1 -2
1532331485871028 -1 -2 -5 0 -4 -5 -2 0
1532331485885988 0 2 2 -1 -1 -1 0 1
1532331485923887 1 -1 -9 5 7 8 2 1
1532331485945828 -2 -4 5 0 1 4 -1 -1
1532331485960787 0 5 -4 0 0 -7 0 1
1532331485976745 -1 -9 -16 -3 -3 -12 -5 -1
1532331486006665 3 14 16 1 0 1 1 0
1532331486030601 0 -1 5 -1 2 2 0 0
1532331486043566 0 -7 -11 -1 -2 1 -2 -3
1532331486088446 2 24 21 2 -1 0 -1 1
1532331486111385 -2 -6 5 -4 -7 -10 -4 -3
1532331486133326 -2 -10 -3 0 4 7 -1 -1
1532331486163246 -1 4 -8 -2 0 -1 -1 -2
1532331486186185 2 2 16 -1 -1 0 0 1
1532331486201145 0 7 13 -3 -3 -4 -1 -1
1532331486216104 1 0 -9 -5 -3 -2 -2 -1
1532331486239043 -4 -8 -4 -6 -5 -7 -2 -2
1532331486254004 1 -4 21 -2 -5 -15 0 1
1532331486275945 0 -2 27 1 -6 -15 -2 -1
1532331486298883 1 -1 5 -1 -8 -23 -3 -1
1532331486320841 -7 -33 -13 0 6 19 2 -2
1532331486335785 1 -7 -3 -4 -12 -25 -7 -2
1532331486381662 -1 -7 -24 -1 3 17 1 -1
1532331486411581 -1 -7 6 -1 -2 2 2 2
1532331486448483 -3 0 -7 1 -2 15 0 -3
1532331486471422 -3 7 2 2 1 3 -4 -2
1532331486493363 0 -4 12 -1 -5 -14 -5 -1
1532331486516307 2 6 7 6 3 3 1 1
1532331486554200 -3 -16 -1 -1 3 23 15 -3
1532331486576142 3 19 7 -5 -7 -11 0 1
1532331486599080 2 3 -3 1 -1 5 4 2
1532331486621022 -2 4 7 5 4 4 0 -1
1532331486650942 -2 -13 -97 -9 -9 -18 -2 -3
1532331486680863 0 3 34 7 6 0 -8 -1
1532331486710782 -2 7 7 -7 -2 -2 8 -1
1532331486733720 -2 -14 29 7 4 0 -2 0
1532331486756659 3 30 10 -1 6 16 7 -2
1532331486786579 -3 9 40 6 4 3 -4 -7
1532331486816499 5 15 29 1 -3 -2 -4 -9
1532331486832456 3 10 26 -4 -7 -9 4 -2
1532331486846420 0 -10 -20 3 1 -18 -2 -7
1532331486861379 17 18 30 5 4 12 7 10
1532331486876338 16 -11 -35 -6 -3 -11 -10 7
1532331486898280 6 9 3 8 5 -1 7 1
1532331486944157 -4 -2 69 8 2 3 -20 -3
1532331486974077 -6 30 23 3 0 8 -5 -4
1532331487003997 7 7 -13 4 -1 -7 17 14
1532331487033917 -8 -42 -4 -3 0 0 -5 -17
1532331487055859 -14 -40 -22 -9 -7 -5 4 -15
1532331487078797 1 -31 47 7 2 -4 -8 -4
1532331487116695 -8 -23 4 2 4 -1 -3 10
1532331487138636 6 12 -52 6 1 5 12 7
1532331487168557 7 46 9 0 -6 -21 4 2
1532331487191495 0 -25 18 -1 -3 0 2 3
1532331487221416 -1 -24 -34 -7 1 9 7 -10
1532331487266295 1 6 -41 -9 1 13 0 2
1532331487288237 -6 -21 -15 -6 -1 -1 -13 -1
1532331487304200 -4 -23 2 -5 1 17 -3 -5
1532331487356055 -5 -3 -13 -6 -3 -4 2 -2
1532331487378994 1 -5 -57 -6 -3 2 0 1
1532331487408914 -1 -7 -15 -3 -5 -3 -1 -3
1532331487430867 -8 2 27 0 -1 0 -1 -8
1532331487468754 8 6 -1 -1 0 -1 -1 -1
1532331487498673 15 -26 -8 12 5 4 2 6
1532331487521612 -16 -3 -5 -3 -2 -2 -3 -8
1532331487536573 9 9 10 4 -1 -1 1 4
1532331487558514 -15 -21 -5 1 -3 1 3 0
1532331487590428 -21 3 -1 -2 -1 -3 -4 -4
1532331487605389 6 38 -1 -4 1 4 1 0
1532331487648273 7 11 -5 1 2 22 -5 2
1532331487671212 6 7 -15 -5 -1 13 1 4
1532331487724071 -14 -15 -14 -5 -8 -11 0 -5
1532331487746012 6 14 29 6 0 -3 2 17
1532331487805852 -3 15 3 -1 -6 2 -5 -7
1532331487843750 -20 -48 11 -6 -6 3 -2 -6
1532331487888630 10 62 34 4 5 11 -4 5
1532331487911569 -3 -33 -31 -9 -4 -14 1 4
1532331487963431 1 -21 -4 0 4 -5 2 -1
1532331487986369 0 9 38 9 2 -4 0 8
1532331488016289 -7 -41 -22 -13 -10 -5 -8 1
1532331488038231 -8 51 11 -5 -8 -3 -5 -23
1532331488076129 -12 -34 7 -4 -7 -6 -6 -3
1532331488099068 7 -29 -11 -2 4 13 4 -3
1532331488128988 16 17 2 -1 -4 9 12 16
1532331488158908 6 74 -2 -2 -4 -51 -13 10
1532331488225729 3 -34 -19 -3 7 2 -4 -8
1532331488271607 -1 -6 15 7 5 13 7 -3
1532331488308507 4 19 -3 0 -3 -2 1 -2
1532331488331446 1 18 25 14 4 1 -2 -5
1532331488383307 9 16 -6 -8 2 -4 1 0
1532331488429185 3 9 23 7 2 0 -1 -3
1532331488451125 -1 -25 -48 -12 -9 -6 1 -2
1532331488496006 4 -57 -44 -1 2 12 10 7
1532331488563825 -4 -2 -58 -4 0 -2 -18 -18
1532331488585766 0 -11 1 3 4 10 -2 2
1532331488653585 -4 32 -6 -7 -2 -1 -2 7
1532331488713424 3 4 33 -4 -6 -7 -4 -15
1532331488728385 -8 16 -8 3 8 1 1 1
1532331488788224 3 27 39 -4 -5 -2 6 3
1532331488826123 -7 6 37 4 -2 0 -8 -6
1532331488878982 0 4 -4 4 2 -3 1 -3
1532331488953782 -1 2 9 -11 -9 -1 -2 0
1532331489036560 0 2 5 0 9 -1 0 1
1532331489051520 -2 -2 -1 -5 -13 -4 -1 -2
1532331489096400 -2 1 -13 -29 -19 -4 -2 -2
1532331489118341 -2 7 0 -2 -4 2 0 -3
1532331489148261 4 7 -4 2 10 4 2 3
1532331489171200 1 6 19 6 3 -3 0 0
1532331489201120 1 0 13 -2 -8 -1 -2 -4
1532331489224058 3 -2 -12 -26 -25 -19 -3 2
1532331489246000 -3 -1 -7 16 -4 0 -1 0
1532331489268938 -2 -8 4 -11 4 17 -4 -1
1532331489283898 5 15 23 1 7 -2 0 0
1532331489313829 0 -6 -24 -1 -11 5 5 5
1532331489328778 -4 -4 -12 -9 0 10 3 1
1532331489350720 4 5 7 1 -8 -7 -5 -1
1532331489366684 5 7 0 -6 -2 -1 10 0
1532331489388618 -1 10 6 1 1 3 0 -10
1532331489403579 1 -6 -5 0 8 24 3 -1
1532331489426517 9 3 1 1 -9 -10 -10 3
1532331489448458 -4 -1 3 2 1 -5 1 5
1532331489471397 -4 -2 3 -2 3 10 -7 -4
1532331489486356 -4 -6 -3 -2 4 6 3 1
1532331489508298 -9 1 9 7 -15 -15 1 -6
1532331489531236 -2 -4 0 -2 6 27 18 4
1532331489554175 -1 3 -1 12 12 15 0 6
1532331489584095 -8 -6 -5 -2 -1 3 5 5
1532331489599055 3 11 12 6 16 8 -13 -2
1532331489620997 -7 -8 -9 -6 -7 -6 -11 7
1532331489665877 -1 -2 -3 -2 -8 -8 -8 -18
1532331489718735 -3 -5 -2 -2 8 1 -2 -7
1532331489733696 1 4 2 1 4 11 0 -5
1532331489756633 -3 3 4 -2 -6 -3 6 -2
1532331489771594 -2 -6 0 0 7 7 3 -1
1532331489786556 0 -6 -3 -1 -8 -15 5 7
1532331489808495 5 6 3 2 7 8 -3 2
1532331489823456 -7 -8 -2 1 7 -8 -2 -4
1532331489846394 -2 -4 4 1 2 6 1 -3
1532331489868335 -9 2 5 1 9 23 8 -3
1532331489883295 3 5 2 -3 7 28 10 -2
1532331489906233 -3 1 7 -4 -5 -8 -2 -2
1532331489945130 -5 -14 -18 2 13 11 -6 4
1532331489966074 1 -11 -8 -1 -25 -27 -2 -5
1532331489989012 -4 6 9 4 -5 -12 -19 2
1532331490003972 1 16 -4 0 7 13 13 1
1532331490025913 -5 3 -10 -7 -1 3 -7 1
1532331490048852 -2 -6 3 6 -6 -8 3 -3
1532331490063812 -1 3 -17 -7 26 5 1 7
1532331490085753 4 10 16 -17 -19 0 5 -3
1532331490131631 1 18 14 -2 11 29 2 6
1532331490146590 -3 -22 -27 1 -18 -13 -8 -5
1532331490168531 3 -4 19 9 10 5 -4 -2
1532331490191470 -3 -18 -17 -6 -5 -16 -12 -2
1532331490206431 3 16 6 2 6 6 13 7
1532331490236351 4 15 19 13 9 4 -1 -2
1532331490251311 -7 14 41 -2 8 6 -3 -8
1532331490273252 4 -3 -3 5 1 -1 3 -2
1532331490304170 1 5 -5 -2 3 -12 -7 1
1532331490326110 4 -3 4 5 -5 3 0 2
1532331490349049 -1 1 16 -1 -2 -5 -5 -1
1532331490371003 2 -19 0 1 9 7 5 -1
1532331490393929 -1 2 22 10 9 11 -1 -3
1532331490430848 2 -44 3 4 0 -4 0 0
1532331490445791 -8 -6 -14 -3 -4 -3 4 -1
1532331490468729 5 7 -11 -4 -1 2 -2 -3
1532331490491682 0 29 17 4 -4 5 -11 2
1532331490506628 -3 13 -14 -1 2 14 1 -4
1532331490536548 -5 25 68 -2 -7 -3 -3 -19
1532331490558489 1 -24 -5 3 1 4 0 -5
1532331490581428 -1 -8 -41 4 8 7 -6 5
1532331490596387 1 10 -65 -7 0 5 2 2
1532331490618328 -1 -2 -9 -4 2 4 -2 2
1532331490641267 -13 -22 -20 -7 -3 -5 6 -6
1532331490656227 5 34 23 -1 -1 6 0 -4
1532331490679166 -4 -14 -14 -12 -5 -1 -1 -2
1532331490694126 3 32 21 0 -6 -3 -3 1
1532331490709093 -8 -34 34 -7 -2 -3 -3 -4
1532331490739006 -3 31 86 14 -5 0 6 -9
1532331490762942 10 34 -33 -6 1 -1 4 -2
1532331490775907 1 15 -11 -2 -5 -6 -5 1
1532331490805827 0 1 13 -1 -3 -1 -2 -1
1532331490828766 -19 -14 1 6 11 10 5 0
1532331490858685 -6 1 -14 8 4 0 -7 3
1532331490873650 0 -12 33 1 -1 7 7 -2
1532331490903565 -4 3 -32 -2 -4 -4 -1 1
1532331490933486 -7 -16 -29 -2 -2 0 9 -1
1532331490963405 2 15 18 -3 -7 -18 0 0
1532331490978366 1 10 20 6 -2 5 5 2
1532331490993326 -1 13 41 -3 -1 -1 -1 2
1532331491023246 1 -2 33 5 1 4 -18 1
1532331491038206 -7 -19 13 7 6 -3 -1 2
1532331491076104 -2 -15 2 -1 -6 -5 1 -1
1532331491114004 -4 6 1 -7 -1 5 9 -2
1532331491150904 -8 -33 -33 -9 1 0 -1 -3
1532331491180825 0 -15 -23 1 -1 -1 1 -1
1532331491210744 -1 -15 -21 -2 0 -1 -1 -1
1532331491241662 1 0 2 -4 -1 -1 -1 0
1532331491286541 -2 2 7 2 2 1 1 -1
1532331491308484 7 7 1 1 1 0 -1 2
1532331491331422 0 5 3 4 2 1 1 -2
1532331491353363 -1 -21 -2 1 -1 -1 -1 -1
1532331491368338 -3 -9 2 -3 -1 -1 0 -1
1532331491406221 4 3 -4 -1 -2 -2 1 -1
1532331491444119 -3 21 2 -4 -5 -2 -3 -2
1532331491459080 -3 16 54 2 -3 -2 -1 -2
1532331491510941 5 -33 -21 -2 -3 -3 -2 1
1532331491526899 -12 -45 -74 -11 -4 1 -2 -3
1532331491563799 -3 1 -16 -6 -2 0 0 0
1532331491585741 0 13 47 2 -2 1 -1 1
1532331491623639 -2 -11 -59 -4 -1 1 0 -4
1532331491683480 -2 28 7 0 -4 -4 4 0
1532331491706418 10 12 1 0 1 2 -2 2
1532331491728360 1 11 -4 -3 -1 1 0 1
1532331491766258 -8 -1 -44 -7 2 1 1 -1
1532331491781230 0 6 37 4 -2 -1 0 0
1532331491804157 3 2 35 8 4 2 1 3
1532331491849037 2 -7 -16 0 -1 -5 -1 1
1532331491870978 -5 -20 -44 -6 -1 10 1 -5
1532331491893917 6 17 5 0 -3 -3 -2 -2
1532331491938796 1 19 -5 1 -1 -3 0 -1
1532331491960738 -1 -6 -4 -3 -1 -7 -1 0
1532331491998637 2 5 -9 0 -1 -2 -2 0
1532331492028556 5 17 -2 -2 -6 6 1 2
1532331492043516 1 16 27 4 2 13 4 -1
1532331492097387 -3 -17 7 1 -2 -6 12 19
1532331492118316 4 6 0 -2 -2 -8 -2 5
1532331492133277 3 35 19 -2 -1 -13 -4 -2
1532331492164194 -1 28 -13 0 -1 2 -4 -7
1532331492186135 -3 -14 -22 -4 -5 -3 -4 -6

1532331492216055 6 25 51 0 0 0 1 3
1532331492238994 -4 -1 21 0 -2 0 -4 -2
1532331492260935 -4 -32 -50 -5 -1 0 -3 -2
1532331492283873 -1 2 7 0 0 1 0 2
1532331492305815 2 -3 -22 -1 -2 -1 0 -1
1532331492328754 -2 2 27 -1 2 2 1 0
1532331492366652 0 35 21 2 -1 -2 -2 0
1532331492396572 -4 2 3 -5 -3 -2 -3 -4
1532331492418513 0 -5 -15 -2 -1 0 0 -1
1532331492441452 -1 -4 4 0 -1 0 -1 -4
1532331492471372 0 -2 2 1 0 0 0 0
1532331492510268 -6 -8 -15 -4 -3 -1 0 -1
1532331492554150 0 -4 10 -2 -1 -1 -2 -2
1532331492569111 -1 14 27 2 0 0 -2 -3
1532331492584071 -1 -6 -6 -2 -2 -1 0 1
1532331492613991 2 1 -6 0 0 0 -1 2
1532331492650892 -1 16 18 3 1 -1 -1 -4
1532331492665852 1 -21 -31 -2 -1 0 -2 -2
1532331492695772 -6 -6 -10 -2 -2 -1 -1 -1
1532331492718710 -5 -11 -6 0 -1 0 -2 -1
1532331492741648 1 -1 -4 -1 0 -2 0 1
1532331492763591 2 13 -3 1 -1 2 1 0
1532331492778551 -1 1 1 1 -1 1 0 -2
1532331492801489 -2 8 24 -1 0 -1 -1 0
1532331492853350 0 -2 14 4 0 -1 0 -1
1532331492883331 0 9 1 -4 -1 -3 0 0
1532331492898291 1 3 5 0 1 0 -3 -1
1532331492921230 2 13 22 2 1 0 -1 1
1532331492951150 1 4 -27 -2 -1 0 -2 1
1532331492981070 -4 -14 -5 0 -1 0 0 -3
1532331493018968 3 2 1 2 -1 -1 0 3
1532331493033928 0 16 -5 -1 0 0 0 0
1532331493048888 0 -2 5 3 0 1 0 0
1532331493093768 -4 -16 19 0 -2 -1 -4 -4
1532331493115710 1 -11 2 0 0 -1 1 4
1532331493153608 2 18 16 -1 -1 -1 -1 1
1532331493168568 1 17 -4 -1 0 0 0 0
1532331493191507 -3 -22 1 -3 -2 -1 0 0
1532331493213459 -3 13 5 -4 -3 -2 -2 -1
1532331493236387 1 18 -19 1 -1 1 0 -1
1532331493266307 -5 -44 -50 -7 -1 10 12 15
1532331493288271 5 4 4 0 -1 -11 7 0
1532331493319172 0 -29 -41 -5 -5 -11 -5 -5
1532331493349092 2 3 3 -1 -2 2 -5 -4
1532331493371036 2 14 -8 2 3 -1 -4 -1
1532331493385993 2 3 26 0 -5 -7 -3 -1
1532331493423891 1 8 17 -3 -1 1 0 -1
1532331493460793 -2 -7 3 7 0 1 -2 0
1532331493475753 -2 0 9 8 0 -1 0 -1
1532331493513654 -2 -1 3 -12 -5 0 -1 -1
1532331493528611 -2 -9 -17 -2 -2 -1 -1 -1
1532331493573491 2 12 -18 -10 -4 -2 -1 -1
1532331493596430 -1 0 37 -1 -3 -2 -1 0
1532331493618372 2 6 17 3 1 1 0 0
1532331493664253 5 5 2 4 14 -2 0 0
1532331493686189 -5 -16 -5 -17 -21 -5 0 -3
1532331493724089 -1 4 0 -9 -9 -4 -1 0
1532331493747033 -6 -4 -5 -19 -11 -2 -14 -10
1532331493760990 -28 4 -1 2 6 2 1 -6
1532331493820829 -27 -9 15 8 -3 -3 -5 -21
1532331493843769 11 6 21 -11 -4 16 5 -4
1532331493866714 -22 -7 20 -9 -9 4 -37 -31
1532331493896626 5 -7 -20 -3 -9 -6 -1 37
1532331493948488 -21 -28 -16 -7 -1 3 10 -11
1532331493971427 -20 3 28 16 1 9 10 -25
1532331494001346 -15 -13 6 -6 -8 -3 -5 14
1532331494016307 -5 2 -3 12 7 0 17 4
1532331494054206 -2 6 -3 -2 -3 -11 -11 -5
1532331494076146 7 2 -37 -9 -1 -3 -6 -6
1532331494106067 -31 -9 13 2 -4 -15 -18 -27
1532331494129021 0 5 -18 3 -1 -18 -2 -13
1532331494165907 -33 -4 15 -11 -12 -20 -45 -21
1532331494188845 9 5 11 6 1 -10 -43 -13
1532331494233725 39 -8 25 10 -6 -6 -14 23
1532331494263646 -2 -17 -14 13 1 4 11 8
1532331494301544 5 6 5 -5 2 11 10 12
1532331494346424 -9 2 0 -8 -1 -6 -13 -4
1532331494376344 3 -9 16 3 2 13 12 14
1532331494421224 -2 3 3 -2 -1 2 -5 5
1532331494436184 -5 -6 2 -4 -5 -5 -3 -3
1532331494474082 2 5 5 3 3 5 13 5
1532331494496023 -3 9 -2 1 -2 -10 -2 -5
1532331494555864 1 0 -4 0 0 1 -1 -5
1532331494646632 0 1 4 0 3 2 -7 -2
1532331494668562 3 -2 1 -3 -3 -4 1 -1
1532331494706461 0 -1 2 -2 0 0 -3 -4
1532331494728402 -2 0 1 8 0 -4 -11 -2
1532331494773282 -1 -4 -2 -3 -1 -2 -6 -5
1532331494804199 -2 5 1 -1 -1 0 -1 -3
1532331494826141 -4 -2 1 1 1 1 -2 -3
1532331494856060 1 -2 -2 -1 1 2 -2 -1
1532331494900941 -1 -2 -1 -2 0 0 0 -2
1532331494915900 -1 -1 0 1 -1 -1 -1 1
1532331494968759 -2 -2 1 0 -1 -2 0 0
1532331495013639 1 6 14 2 0 1 -1 2
1532331495036578 -1 8 -18 -5 -5 -2 0 1
1532331495073478 -2 28 15 0 -2 -3 2 1
1532331495096417 0 -1 -16 -3 -9 -22 -8 4
1532331495126338 -1 -12 -4 -3 2 3 -1 -1
1532331495148279 0 -3 8 5 5 7 1 1
1532331495186177 1 12 20 -3 -1 3 -1 -2
1532331495216097 -1 -7 17 2 -3 -2 2 -3
1532331495253996 0 -7 2 1 16 31 7 2
1532331495275937 3 -6 -45 -7 -19 -36 -7 -2
1532331495313837 1 -22 -56 -2 -2 -42 -3 8
1532331495328796 0 7 18 -8 -19 -14 -6 -1
1532331495373676 -1 6 31 8 2 4 -3 -5
1532331495403596 -3 12 17 -8 -2 2 -3 -2
1532331495448476 0 7 -14 -5 -11 -29 -11 -2
1532331495486374 1 1 -7 2 1 10 6 1
1532331495508316 2 11 25 10 4 8 6 -1
1532331495546214 2 -23 -66 0 5 19 5 1
1532331495569152 -3 -6 13 2 0 -3 5 1
