1532261051351200 0 0 -1 -2 0 -1 -1 1
1532261051420016 -1 -3 0 1 1 0 1 0
1532261051484844 2 1 0 0 1 0 0 1
1532261051581585 -1 -1 -1 -1 -2 0 1 -1
1532261051649403 2 -1 -1 -3 -2 -3 -4 0
1532261051717238 -3 -3 -1 -3 -2 7 3 -2
1532261051763115 -1 -1 0 0 0 -3 -4 -1
1532261051844896 -1 -2 -1 1 -1 0 1 -2
1532261051865840 -1 -2 0 -1 -1 -1 0 0
1532261051928699 0 -1 0 -1 0 0 -2 0
1532261051994524 0 -1 0 -1 -4 -4 -2 -1
1532261052144124 -1 1 0 0 -2 -2 -2 -2
1532261052204961 -1 0 -1 -1 -2 0 -2 1
1532261052226902 -1 0 -1 0 -1 -6 -2 -2
1532261052295718 1 3 -1 -1 0 2 3 -2
1532261052400438 -1 -2 -1 0 1 -2 -2 -2
1532261052423392 1 1 0 -1 -1 0 -2 -3
1532261052469269 1 0 -1 0 -1 6 1 1
1532261052489216 -1 0 -2 0 1 -2 1 -2
1532261052670759 -2 -1 -2 -1 -3 -6 -2 2
1532261052692701 0 -1 0 -2 -1 3 -2 0
1532261052738612 0 -1 -1 -1 -1 -2 0 0
1532261052743580 0 -2 0 -1 2 4 -10 0
1532261052805416 0 -1 -1 2 -1 -2 2 1
1532261052828354 -3 0 -2 -3 0 -1 1 -1
1532261052873234 0 -2 -2 -4 -3 -2 0 -3
1532261052926093 0 -1 -2 -2 -1 -2 -1 -2
1532261052957010 2 -1 -5 40 21 16 6 3
1532261052971970 -7 -6 -6 -23 2 -12 -8 -6
1532261052991916 -2 1 1 -8 -3 1 -6 -5
1532261053013858 1 2 12 -11 -23 -1 6 2
1532261053058737 2 1 16 21 6 2 0 3
1532261053097634 1 -6 -17 -5 10 16 -13 0
1532261053148497 -3 -4 2 0 -3 -13 -10 -4
1532261053168445 0 5 2 -4 -10 -21 -13 -1
1532261053185399 -2 0 0 2 10 18 17 0
1532261053232274 8 -6 -8 0 11 6 21 4
1532261053245239 -2 3 2 1 -6 10 0 -2
1532261053269175 -4 -2 -1 2 -3 -10 -30 -5
1532261053390850 -4 -1 -4 -8 -18 -16 -20 -20
1532261053440716 4 1 -1 0 4 -1 -5 4
1532261053485597 18 3 2 4 -1 -23 8 27
1532261053629213 9 -3 -2 -1 -1 -31 -33 2
1532261053652151 0 3 4 2 -1 14 -8 0
1532261053674092 -5 -7 -5 -4 -16 -57 -3 13
1532261053726951 -18 8 11 14 -3 4 12 -14
1532261053747896 13 -3 -10 -9 -21 18 -6 15
1532261053794770 22 11 -1 -1 17 26 -17 19
1532261053807735 -4 -9 -5 -11 -33 23 40 -9
1532261053854618 -8 3 1 8 31 35 20 -4
1532261053958333 -34 -2 3 3 -7 -24 -17 -17
1532261053985261 2 4 -1 -1 4 -10 -5 -5
1532261053999223 -20 -3 0 7 -34 1 -5 -17
1532261054003213 -8 -2 -5 -4 14 3 1 -2
1532261054033133 2 -1 -2 0 5 4 7 -3
1532261054057068 -5 -1 -2 -1 4 -6 7 1
1532261054107932 -5 -6 -2 10 -1 -11 -4 -7
1532261054132865 3 4 3 3 3 -2 5 7
1532261054153810 -5 -10 -8 -11 -10 -22 0 -1
1532261054193703 0 4 3 -3 1 49 -4 -1
1532261054245564 -8 -5 -6 -3 -2 -45 6 -1
1532261054327346 -11 -6 -12 -16 -12 15 7 -6
1532261054427079 -5 -7 -5 -2 32 13 5 3
1532261054604604 -8 0 0 2 6 -11 -2 -2
1532261054660454 1 -4 -3 0 5 4 -5 -2
1532261054685388 -2 -5 -2 2 3 -6 -1 0
1532261054771159 -2 0 -1 -2 2 -3 -5 -5
1532261054860918 0 -1 -2 -2 -4 -5 -1 -3
1532261054897820 -3 0 -1 -3 18 -15 -12 -2
1532261055191036 3 -1 -2 -2 -1 -1 -3 -2
1532261055218961 2 -1 -1 0 2 1 0 0
1532261055300743 -1 -1 0 1 -2 -2 -5 -4
1532261055454332 -2 0 2 2 -1 0 1 0
1532261055475275 -1 -3 -3 -2 0 -3 -1 0
1532261055497217 -3 -1 0 1 0 0 -4 -2
1532261055514172 -1 -3 -1 -2 0 0 -1 0
1532261055557058 0 -2 -2 -2 0 -1 2 1
1532261055578999 -2 -2 -1 0 0 -2 2 -1
1532261055625873 -1 -1 -1 -1 -2 -2 0 -2
1532261055655794 0 -2 0 0 0 -3 -1 -3
1532261055692695 0 -1 -1 -4 -1 -2 6 1
1532261055720620 -2 0 -1 -1 -1 1 -7 0
1532261055738572 1 -1 0 -1 -2 1 0 1
1532261055768493 -1 -1 -1 -1 -2 -2 1 3
1532261055791448 0 -1 1 -1 1 0 2 -3
1532261055819357 0 -1 -3 -1 -2 -3 1 1
1532261055856273 -1 -2 -1 -2 -1 3 -2 -1
1532261055903155 -1 -2 -2 -3 -1 1 2 -3
1532261055923082 -3 -4 -1 -1 0 -2 3 -1
1532261055976935 -1 -1 -1 -2 -3 -2 -2 -2
1532261056007852 -1 0 0 1 5 -1 0 -2
1532261056028797 0 0 -2 -2 -1 -4 -1 -1
1532261056067691 0 -1 0 -3 -1 3 -6 0
1532261056089633 0 -2 -2 -1 -4 -4 -2 -2
1532261056137510 -1 -2 -3 -2 2 -1 2 1
1532261056178396 -2 -1 0 -1 -2 2 -3 -2
1532261056247238 0 -1 -1 -2 -2 -1 7 4
1532261056253219 -2 0 -1 -2 -3 -4 3 -3
1532261056284113 -2 -2 -1 0 0 -4 3 -1
1532261056316028 0 0 -3 -2 -1 -6 2 -1
1532261056322011 0 -2 -1 1 0 1 2 1
1532261056342956 -1 0 -2 -1 -2 -1 3 4
1532261056406785 0 -2 -1 -1 -3 -2 -4 -3
1532261056504524 -3 -2 -1 0 -2 -3 -3 -3
1532261056524470 0 -1 -2 -1 0 0 -2 0
1532261056563366 -2 -1 1 -1 -2 -1 0 -1
1532261056623206 1 -2 -1 -1 -1 -2 -1 -1
1532261056668086 0 -1 1 0 3 2 -3 -4
1532261056840624 -5 -1 -2 -2 -1 -4 -1 0
1532261056861568 -4 -1 -2 -1 -2 2 0 -1
1532261056922407 -2 0 -1 -1 -2 -2 -6 0
1532261057005185 -2 -1 1 1 1 -3 -2 5
1532261057110902 1 1 -1 1 0 5 2 -1
1532261057117883 2 1 -4 -1 2 8 4 3
1532261057138828 0 0 0 -1 -1 -3 -2 1
1532261057154784 -5 -3 -2 -3 -1 -4 1 3
1532261057184705 -1 -1 -2 -1 0 -1 2 -1
1532261057229585 1 0 -1 -2 0 0 0 1
1532261057266486 0 0 0 0 0 -1 0 -1
1532261057411099 0 -1 0 -1 -2 -3 0 0
1532261057431046 0 0 0 -1 0 0 -3 -1
1532261057477921 -1 0 -1 -2 -1 -2 -1 -2
1532261057499862 0 -1 -2 -2 -1 1 -1 -1
1532261057521803 -1 -1 1 -1 -2 -2 -2 1
1532261057650482 -1 0 0 0 1 -1 -2 0
1532261057664460 1 -2 0 0 0 -3 -2 -2
1532261057778156 1 -1 -1 -1 0 0 3 1
1532261057823052 -1 0 0 -2 1 -1 0 0
1532261057845975 -1 0 0 -2 0 -4 -3 -4
1532261057867916 -1 0 0 0 -1 -1 -2 -1
1532261057889857 -2 -2 -1 1 -4 -4 -3 -1
1532261057950694 0 -1 -1 0 -2 -2 2 -2
1532261057966652 -2 1 -3 0 -1 -1 1 -1
1532261058010534 1 -1 -2 1 3 9 -13 1
1532261058054428 -1 -3 -3 -1 -1 -2 0 -2
1532261058123233 -2 2 0 0 0 1 -3 -2
1532261058212993 -1 -2 1 -2 -2 2 -5 -3
1532261058235932 -1 -2 0 -1 -1 1 -4 0
1532261058250891 -1 -1 -2 0 -1 3 2 -2
1532261058287813 0 -2 -1 -1 -3 -2 -3 -1
1532261058333671 -2 -1 0 -1 -1 1 -1 -2
1532261058356609 -1 1 0 -1 0 -4 -3 1
1532261058399507 0 -1 0 -2 2 2 -1 -2
1532261058423430 -3 -3 -1 -2 -2 0 1 1
1532261058527153 -1 0 0 0 -2 -2 0 0
1532261058588994 -2 -1 0 -2 0 -1 1 -1
1532261058631879 0 -2 -3 -2 -1 0 0 3
1532261058654818 -2 0 0 0 -1 -2 -2 -2
1532261058782494 -1 0 -2 -1 0 1 2 -2
1532261058844328 2 -2 0 -1 -1 -2 0 -1
1532261058865272 -1 -2 1 -1 -3 -2 -3 -2
1532261058933090 -2 -2 -1 -1 2 0 -3 0

1532261059030829 0 0 -1 -1 -2 -1 -3 -2
1532261059075709 -1 -1 -2 -1 -1 0 -3 -1
1532261059128568 -2 1 1 -2 -1 -1 -2 1
1532261059149512 0 -1 0 -2 -2 -1 1 -1
1532261059255229 -2 -1 -1 -2 -1 -2 -1 0
1532261059279165 -1 -1 0 0 -1 1 1 -4
1532261059323048 -1 -1 0 -1 1 1 -1 -3
1532261059351970 -1 1 -2 -3 -1 -2 0 0
1532261059373912 -2 0 -1 -1 0 0 -4 -3
1532261059470885 0 -1 0 0 -1 1 1 0
1532261059542693 -1 -2 -1 -1 1 -2 2 -1
1532261059601547 -2 -1 -2 -2 -1 -2 -3 -3
1532261059638437 -1 -1 0 -2 -2 -2 0 -1
1532261059674341 -1 -1 -1 -2 -3 1 4 0
1532261059728204 -1 -2 -1 -2 -1 -2 -3 -4
1532261059765098 1 -2 -1 -2 1 -1 1 1
1532261059795018 -1 1 1 -1 0 0 -1 -2
1532261059832917 -2 -1 0 -1 -2 -4 -3 0
1532261059856853 -1 0 -1 -1 -2 0 -3 -1
1532261059885793 -1 -2 -1 -1 -1 -2 -1 1
1532261059929657 0 0 -1 -1 1 8 -9 -4
1532261059974538 -1 0 -2 -1 0 -1 0 2
1532261060073274 0 -2 -1 0 0 -1 3 -2
1532261060087236 1 -1 -2 0 0 -1 1 1
1532261060154058 -3 1 0 -1 1 -2 1 -1
1532261060193951 -1 -3 1 -1 0 -1 -2 0
1532261060214895 -1 1 -2 0 -1 -1 -1 -1
1532261060274735 0 -3 0 -1 -1 0 -1 -3
1532261060296677 -1 -3 -1 -1 -2 -2 -2 -2
1532261060433311 -1 -1 -1 -3 -2 1 0 -3
1532261060447274 0 -1 -3 -1 -2 2 -2 1
1532261060462234 -1 0 -2 0 -1 -1 -1 -2
1532261060492154 -2 -2 -2 -1 0 1 -1 0
1532261060508111 -1 -2 -2 -2 -1 -2 0 0
1532261060709572 -2 0 0 -1 -3 -1 -4 -3
1532261060731514 -1 0 1 -1 0 0 -2 -2
1532261060808308 -2 -1 -1 0 -2 -1 -1 -1
1532261060861167 1 -2 -2 -2 1 -1 -3 -1
1532261060965887 -2 -2 0 -1 -1 1 0 1
1532261061039698 -1 -1 -3 1 -2 -1 -2 -1
1532261061218212 1 -1 -1 -2 -1 -1 -1 1
1532261061281044 -1 -1 -1 -3 -1 -2 -3 -1
1532261061303993 0 0 -2 0 1 0 -4 -3
1532261061341882 -2 -1 -4 -1 -2 -5 2 -1
1532261061520404 -2 -1 -2 -1 0 2 0 0
1532261061825588 0 1 0 0 1 11 -1 0
1532261061837556 -4 -6 -6 -7 -6 -10 -3 -1
1532261061911367 1 -1 -7 -6 0 -2 19 7
1532261061984164 -7 -4 -6 -8 -8 -9 -12 0
1532261062067940 6 2 2 -8 -12 1 24 4
1532261062103844 1 -1 -2 -4 -4 -4 -8 -7
1532261062134761 -11 -2 -1 3 25 41 21 13
1532261062156703 5 1 0 -1 -1 -3 -16 -1
1532261062216543 -1 1 1 7 -2 -8 -3 -4
1532261062331236 -4 0 -2 -2 -15 -3 3 -1
1532261062397060 9 2 -2 0 11 15 2 -32
1532261062532698 28 1 -1 -1 3 18 -8 11
1532261062601513 3 0 -2 -3 6 32 -4 -7
1532261062622459 6 7 6 6 7 45 23 9
1532261062650382 -23 -6 -9 10 -3 2 10 9
1532261062742138 6 5 6 3 -2 -14 5 14
1532261062796990 7 2 1 -1 10 12 -7 -5
1532261062839876 -1 1 -4 2 7 2 -8 -7
1532261062890740 -5 -2 0 -1 -3 -7 -1 -6
1532261062945593 -2 -2 -2 0 3 0 -1 -1
1532261062959556 -1 0 1 -1 -2 -21 0 -3
1532261063010420 -6 -9 -2 -4 -9 9 -4 -4
1532261063027374 1 2 -5 -17 3 12 -1 -1
1532261063086217 0 0 0 5 -3 21 3 -1
1532261063098185 -1 -4 -3 2 -8 18 1 -2
1532261063222852 -4 -2 0 9 -11 -10 -1 -2
1532261063246805 -1 -1 0 11 -7 -15 2 -1
1532261063288678 1 5 0 -2 18 25 0 -2
1532261063333555 -1 8 4 2 -16 38 13 1
1532261063402372 1 11 4 -3 -28 -58 -23 -3
1532261063464218 1 -2 -2 -2 -11 -13 -4 1
1532261063537011 -4 -2 -2 0 3 1 -6 -12
1532261063717529 -5 -1 -1 -2 -1 2 2 2
1532261063778385 0 -1 -1 -1 -3 2 2 -1
1532261063792348 2 -5 -1 -3 -2 -10 -6 -2
1532261063882108 -2 0 0 -1 -2 -4 -4 -1
1532261064054646 -3 -2 0 1 -3 -3 -3 -3
1532261064105511 -1 -1 0 1 0 -3 0 1
1532261064137425 0 -2 -2 -1 0 -3 -1 0
1532261064213223 0 1 1 0 1 0 1 -1
1532261064229179 -2 -2 -1 -1 -1 -3 -3 -2
1532261064273063 1 -1 0 -1 -2 -1 2 -1
1532261064296001 -1 -1 -2 -2 0 2 -2 0
1532261064332903 -2 0 -1 -1 -2 5 -1 -3
1532261064340882 -2 -3 0 -2 0 -1 -4 -1
1532261064392743 0 -2 0 -1 0 -2 0 1
1532261064416679 -1 -1 0 -1 0 -3 0 0
1532261064444615 -1 1 -1 0 -1 -1 1 2
1532261064506438 -1 -2 0 -2 -1 -2 -2 -3
1532261064556312 1 0 0 -1 -2 -2 0 -1
1532261064598193 1 -1 -1 3 0 -1 0 -3
1532261064610161 3 -2 -1 -1 0 -3 2 0
1532261064633099 -1 0 0 -2 0 -1 0 0
1532261064670998 0 0 0 0 -1 3 3 3
1532261064693937 0 -2 -2 -1 -1 2 -5 -2
1532261064737819 0 -3 -2 -2 -2 -2 1 0
1532261064806636 0 -2 -1 0 -2 0 0 0
1532261064850518 -1 -1 -1 -1 -2 -4 -4 1
1532261064888417 0 -2 1 -2 -2 0 1 -1
1532261064910373 0 0 -2 0 -1 0 0 -1
1532261064925318 -1 -2 -1 -2 -2 -1 1 1
1532261064956236 0 -2 -1 0 -2 0 0 -1
1532261064992139 -1 -2 0 -2 -2 2 -2 -1
1532261065022060 0 -1 0 0 -1 -2 0 0
1532261065044998 -2 -2 -3 -2 -1 -3 -2 -3
1532261065103841 0 0 -1 0 -2 -3 -2 0
1532261065130768 1 -1 -2 0 1 -1 1 4
1532261065186619 0 0 -2 1 -2 -2 -1 0
1532261065216540 0 0 1 1 1 -1 -1 -1
1532261065261420 -3 -3 -3 -3 -2 -3 1 -2
1532261065338214 3 -1 -2 -1 -1 2 1 1
1532261065383094 -5 0 2 2 1 -1 -4 -2
1532261065428977 0 -2 0 -2 0 -1 0 -3
1532261065442935 -2 0 -2 0 0 0 -2 -4
1532261065525713 0 -1 0 2 1 0 2 7
1532261065570593 -2 -2 -2 -2 -4 -5 7 0
1532261065591537 -5 -2 -2 -2 0 -2 -2 -4
1532261065621457 1 1 -1 -2 -2 1 -1 -5
1532261065661351 -1 -3 -1 -1 0 1 -2 -2
1532261065683292 0 0 -1 1 0 0 2 -1
1532261065720193 2 0 -3 -2 -1 -4 0 -1
1532261065781030 -1 -2 1 -1 -4 -2 -2 -2
1532261065826908 -2 0 -2 0 0 4 -1 1
1532261065893729 -2 0 -2 -1 -2 -2 -2 -1
1532261065935617 -2 1 0 -2 -1 -2 -2 0
1532261066056294 -5 -2 -3 -2 0 -1 1 -1
1532261066213873 1 -3 -2 -2 -2 -2 0 -2
1532261066334550 -1 -1 -2 -1 -1 -1 -1 -2
1532261066423313 0 -1 -2 -2 0 1 -3 -6
1532261066471184 -2 -2 0 -1 -1 0 1 -1
1532261066516074 -1 0 0 -3 0 -2 -6 -2
1532261066552966 0 0 -1 -3 -4 -2 -1 -1
1532261066725505 -3 -1 -2 -2 -1 -1 1 -1
1532261066815265 -2 -1 1 -1 -2 0 -2 -1
1532261066831221 -2 -1 0 0 0 -1 0 1
1532261066889067 -1 -3 -1 -3 -1 0 2 0
1532261066933947 -3 -1 0 0 1 -1 0 -2
1532261067100501 1 -2 -2 -3 -1 -2 -4 -3
1532261067108480 -1 -1 -2 -1 -1 -3 3 2
1532261067129441 -1 0 -2 -2 0 0 -2 -1
1532261067144384 0 -1 -1 -1 -2 0 0 -1
1532261067203227 -1 1 -1 1 0 -1 0 -2
1532261067257083 -1 0 -1 -2 -2 -1 0 -1
1532261067326897 -1 -1 0 -1 -1 -3 1 0
1532261067393718 1 -1 -2 -1 -1 1 0 2
1532261067536337 0 -3 0 -1 0 -3 0 -2
1532261067566256 -1 -1 -2 0 -2 -1 1 1

1532261067609141 -2 -1 -2 0 0 -1 1 -2
1532261067633077 -1 -2 -1 -1 -2 0 2 1
1532261067662998 0 -1 -3 -4 0 1 -1 0
1532261067677957 0 -1 -1 0 -1 -2 0 0
1532261067721843 0 0 1 0 -2 -2 0 -2
1532261067744779 -3 1 0 0 0 1 -3 2
1532261067811600 -3 0 -1 1 -2 0 3 -5
1532261067925296 -2 0 0 -2 -1 -2 -3 -3
1532261067977158 -2 -1 -2 -1 -2 0 0 -1
1532261068043979 -1 0 -2 -1 -1 -2 -2 -4
1532261068113792 -3 -2 -1 -2 -1 -1 0 -3
1532261068134735 1 -1 -1 -1 1 -1 -2 1
1532261068218511 -1 -2 -1 -2 0 0 -1 -3
1532261068254416 -2 0 -2 0 -1 -1 -1 -2
1532261068396043 -1 0 -2 -2 -3 1 -2 -1
1532261068495777 -2 -1 1 -1 -2 -1 0 0
1532261068501760 -2 -2 -3 -2 0 0 -1 0
1532261068554619 0 0 0 -2 0 -2 0 0
1532261068759073 -3 -3 0 -1 -2 -1 -2 -1
1532261068764063 -1 -1 0 -1 -2 -2 -2 2
1532261068832875 0 -1 0 -1 0 1 0 -4
1532261068854817 -2 -2 -3 1 1 -1 1 -1
1532261068929616 0 -1 -4 -1 -2 -1 1 -3
1532261069014390 -1 -1 -2 -2 -1 -1 0 0
1532261069051291 0 0 -1 1 -1 -2 -1 0
1532261069109137 2 -2 0 -1 -1 -1 -2 -3
1532261069221836 -1 0 -3 1 -2 0 1 0
1532261069245771 -2 0 -1 0 -1 0 -2 -1
1532261069313590 -1 -1 -1 -2 0 -2 -1 -2
1532261069350491 -1 -1 -3 1 0 2 0 0
1532261069454213 -1 -2 -1 -2 -4 -1 -2 -2
1532261069479147 -4 -3 -1 -1 0 0 -3 2
1532261069550955 -1 -2 -2 -2 0 0 1 0
1532261069625769 -1 0 -1 -2 -1 -1 0 -1
1532261069667643 -2 0 -2 -1 -2 -1 -2 1
1532261069815248 -2 -1 -1 -1 -4 -1 1 -2
1532261069821232 -1 -1 0 0 1 1 0 1
1532261069848160 -2 -1 -1 -1 -1 -1 0 0
1532261069867110 -2 -1 0 -1 1 0 -1 0
1532261069964848 -1 -2 -2 -1 -1 0 0 -2
1532261070053611 -2 -3 -1 0 -2 -1 -2 0
1532261070160326 1 -1 -1 -1 -1 0 -1 -3
1532261070174288 -2 0 -2 -2 -2 -2 -2 0
1532261070221162 -1 -1 0 0 -1 -1 1 -1
1532261070244111 -1 0 -1 0 0 -1 0 3
1532261070310923 0 0 -1 -3 -2 -2 -2 -1
1532261070333864 3 -1 -2 -1 -1 1 -2 -3
1532261070378742 1 -2 0 -3 -1 -1 3 2
1532261070400682 -1 0 -1 -2 -2 0 -2 0
1532261070429609 -3 -1 1 1 -1 -2 0 0
1532261070474486 -1 0 1 -2 -1 1 -3 -1
1532261070496427 -1 -2 -1 0 -2 -2 -1 -1
1532261070542304 -1 -1 0 0 -1 0 1 3
1532261070633061 0 0 -2 0 0 -3 0 0
1532261070656001 0 -2 3 0 0 -3 2 -1
1532261070683925 6 15 18 51 34 -36 1 2
1532261070716837 -1 -25 -11 -8 5 -10 0 0
1532261070729802 -1 6 3 -9 1 1 0 0
1532261070773685 -4 -1 4 10 -20 -14 -17 -8
1532261070827541 -1 3 -3 11 14 2 4 2
1532261070835520 4 4 7 1 0 6 -7 -3
1532261070909322 0 -6 -1 -10 -10 -18 6 0
1532261070925291 -9 21 -3 -4 -14 2 0 2
1532261070940240 0 -8 -2 6 -5 5 2 -8
1532261070953205 -8 -6 -2 -3 -10 2 -4 3
1532261070977141 9 -21 -8 -1 -18 6 2 1
1532261070999083 -3 -8 -2 0 19 -19 -7 -2
1532261071013045 0 1 4 1 2 7 -3 0
1532261071028005 -21 1 -6 -2 23 30 4 0
1532261071058923 13 -1 -3 -4 -12 10 2 -8
1532261071081861 -12 0 -3 -2 -50 -10 4 -6
1532261071119760 -24 -4 -2 -4 -7 -15 -11 4
1532261071179600 -1 0 1 -1 -4 -9 -5 -4
1532261071195571 -1 -6 -4 -4 -10 1 2 -3
1532261071224480 14 4 3 2 15 8 -1 2
1532261071253402 -1 -2 -2 -5 -25 -6 -1 -7
1532261071277338 2 -5 -6 -6 7 3 1 4
1532261071299288 -6 3 1 -3 -16 6 -3 -11
1532261071313243 -7 -1 1 2 -5 -16 -15 3
1532261071337178 9 3 2 1 -12 -2 -1 -1
1532261071359120 -5 1 3 4 5 10 2 10
1532261071397018 -13 0 0 2 -12 -10 0 -32
1532261071456858 19 -4 -2 -1 -7 12 9 17
1532261071479797 6 -6 -1 2 1 13 -9 -4
1532261071531658 14 2 6 0 -2 8 -15 -7
1532261071552602 -13 -14 -9 -2 -8 -16 10 8
1532261071599477 -2 -4 -5 -2 -3 -26 -3 -2
1532261071644357 -9 3 -2 -1 4 -1 8 22
1532261071674277 -6 -6 -3 -1 2 -2 -2 -6
1532261071743092 0 -1 -1 0 -4 14 -1 -4
1532261071767029 -4 -1 -2 -1 3 -4 -10 -3
1532261071785987 -3 -1 0 -1 -3 -20 6 0
1532261071871748 0 2 0 8 0 12 0 -2
1532261071886709 -4 -11 -3 -6 2 3 -2 -1
1532261071930591 3 13 5 0 11 -15 3 6
1532261071953534 -8 -4 -3 3 33 26 4 5
1532261071975472 -7 -5 -3 2 21 79 5 0
1532261071996416 -1 1 0 2 46 46 1 0
1532261072044288 -5 -7 -7 -14 -11 -25 -9 -6
1532261072088171 -16 0 1 -2 5 -9 0 -6
1532261072139034 -5 2 2 0 -5 10 3 -6
1532261072183914 -6 -3 -2 0 -1 -6 -2 -3
1532261072206853 -1 -2 -2 -2 0 2 0 -8
1532261072274671 0 0 0 -2 -1 -3 -1 -4
1532261072366426 -2 2 -2 -1 -8 -8 -1 -1
1532261072371420 -2 1 0 -1 1 6 -1 2
1532261072402330 -3 -2 0 -2 -3 -2 -3 -2
1532261072425269 -6 -3 0 0 0 -2 -3 -4
1532261072484111 1 -1 -1 -2 -3 -4 0 2
1532261072530985 3 0 -2 -1 -1 -2 0 2
1532261072678591 -1 -1 -1 -1 -1 1 -3 -3
1532261072898004 -4 -2 -2 0 -3 -4 -1 -3
1532261072921942 1 -1 -3 0 0 1 -3 0
1532261072936901 -3 -2 -1 -2 -2 -1 -4 -2
1532261072971807 1 0 -1 -1 -1 -1 -4 -3
1532261073016687 1 -1 -2 -1 -2 -1 -1 -4
1532261073181247 -3 0 1 -1 0 2 -1 0
1532261073229125 0 -1 -2 0 -1 -3 0 0
1532261073251066 2 -1 -1 -1 -1 -1 -1 3
1532261073272011 -5 -3 -3 0 -3 -1 -2 -5
1532261073475467 16 -2 0 -1 -2 -1 -1 2
1532261073490426 1 0 -2 -2 -1 1 -2 1
1532261073527327 -1 -1 -2 -3 -2 -1 1 -1
1532261073572208 -2 -1 0 -1 -3 -2 0 0
1532261073594149 -2 -1 -1 -2 0 1 2 2
1532261073662965 0 0 -3 -1 0 0 -3 -1
1532261073780650 1 -1 0 0 -2 0 -1 -1
1532261073793616 0 0 -2 0 1 -5 -4 -5
1532261073894346 -4 0 0 -2 -1 -2 0 -1
1532261073963163 -3 -2 -3 -1 1 0 -1 -2
1532261073986100 -1 0 -2 -1 -2 0 -4 -1
1532261074030981 0 -3 -2 -1 -2 -1 -1 -1
1532261074126725 -1 -3 -1 0 -3 -3 -2 -1
1532261074262363 -2 -1 0 -1 0 -1 0 -1
1532261074359103 0 -1 -1 -1 1 -1 -2 -2
1532261074367082 -1 -1 -2 0 -2 0 -2 -1
1532261074472800 -4 1 -1 0 -1 -2 1 0
1532261074495739 1 0 -3 -3 -3 -2 0 -1
1532261074600459 0 -1 0 0 -1 -1 -1 0
1532261074615418 -2 0 -2 0 1 0 1 0
1532261074645338 -2 -2 0 0 0 -1 -1 -3
1532261074681242 -1 -3 -2 -3 -2 -2 -1 -1
1532261074840815 -1 0 -3 0 -2 0 0 0
1532261074868741 -1 -2 -1 0 -2 -1 -3 -3
1532261074959498 -1 -1 -1 0 -2 -2 -1 0
1532261075072197 -1 1 -2 -2 -2 -2 -1 0
1532261075094153 -2 -1 -3 -1 -1 -1 -1 -1
1532261075184896 0 -1 0 0 -2 -2 1 -2
1532261075280640 -2 -1 -1 0 -2 -3 -3 -1
1532261075418272 0 -1 -2 -1 0 -2 -1 -1
1532261075456170 0 -2 -2 -1 -3 -3 -1 -2
1532261075469135 -1 -1 -2 -1 0 1 -1 0
1532261075558895 -1 -1 0 0 0 0 1 0
1532261075626718 -3 1 -2 -2 -1 0 1 -1
1532261075650649 -2 0 0 0 -1 0 0 -1
1532261075694532 0 -2 0 -2 -1 0 -2 -3
1532261075731451 0 0 0 -2 1 -1 -1 -1
1532261075754372 -1 -2 -2 -3 -3 0 -1 0
1532261075838161 -1 -1 -2 -2 -2 -1 0 1
1532261075948852 0 -1 0 -1 -2 -1 -1 -1
1532261075989744 -1 1 -1 1 -1 0 -1 0
1532261075995728 -1 -3 -2 0 -1 0 -1 -2
1532261076022665 -3 -1 0 0 0 0 -1 -3
1532261076049583 0 -1 1 0 -2 -3 0 0
1532261076115414 -1 -1 0 -1 0 -1 0 -1
1532261076204170 0 -2 -1 -1 0 0 0 -2
1532261076267001 1 -1 -1 -2 0 -1 0 -2
1532261076287946 -1 -2 -3 -1 0 -2 -1 -2
1532261076324847 -2 -2 0 -1 -2 -1 -1 -2
1532261076347786 -1 0 -1 -1 -1 -2 -2 0
1532261076371722 0 -2 0 -1 -2 1 0 -1

1532261076459487 -1 -1 -2 -1 -1 -2 1 1
1532261076544277 -1 0 -1 -1 0 0 1 0
1532261076578186 0 -1 0 0 -2 0 -1 -1
1532261076603143 -2 -1 -1 -1 -3 1 -1 -1
1532261076691914 -1 -1 -3 -2 -3 -1 2 2
1532261076714845 -2 -2 0 0 -1 0 -1 -2
1532261076736787 -4 -1 1 -1 1 -2 -1 0
1532261076781667 1 1 -3 0 -1 -3 -1 1
1532261076834524 -1 -1 0 0 -1 0 -1 -1
1532261076840509 -2 -1 -1 -2 -1 -2 -3 -2
1532261076949218 0 -2 -1 -1 -1 -1 -1 -1
1532261076971176 0 -2 -1 -1 -1 1 -1 -1
1532261076992104 1 -1 -1 1 -1 -1 -3 -2
1532261077038980 -2 0 -2 -3 -2 -1 -1 -2
1532261077059922 0 -1 2 0 -1 -1 -2 -1
1532261077136717 2 0 0 1 -2 -1 0 0
1532261077201544 -1 -1 0 -1 0 0 -1 0
1532261077224484 -1 0 -1 -1 -2 0 2 1
1532261077248435 0 -2 -1 -2 -1 -1 -3 0
1532261077294296 -1 -1 -3 -2 -3 -2 -2 0
1532261077337181 -1 -1 -1 -2 1 0 -1 0
1532261077361116 0 0 -1 -1 -1 -1 2 0
1532261077434919 1 -1 -2 0 -2 0 0 1
1532261077456861 0 -1 0 -1 -1 -1 -1 0
1532261077503735 -2 0 -3 -1 -3 -1 -3 -2
1532261077547618 1 -1 -1 0 -1 -1 -2 -3
1532261077594493 -1 -1 -1 -1 1 0 1 -3
1532261077638375 -4 -1 -1 -1 -1 -3 -2 2
1532261077665303 -2 -1 -1 -1 -2 1 -1 -1
1532261077721153 -1 0 -3 0 -1 -1 -2 -3
1532261077736114 0 -2 0 -1 -2 -2 3 4
1532261077801938 -2 -1 1 -2 -1 0 -1 1
1532261077823879 1 -1 -2 -2 -1 0 1 0
1532261077847816 -2 0 -1 -1 0 0 -2 -2
1532261077893693 0 -2 -2 -1 -1 -2 -1 -2
1532261077931595 -1 0 0 0 -1 0 0 -2
1532261077938584 0 0 -1 -2 0 0 0 -1
1532261077976471 -3 -3 -1 0 -1 -2 -1 -1
1532261077996433 -1 -1 -1 -2 1 0 -3 -4
1532261078010381 1 -1 -1 -1 0 -1 -1 -2
1532261078191896 -1 -1 -2 0 -2 -1 1 0
1532261078205858 -1 -2 0 0 -1 -1 0 0
1532261078238770 -2 -2 -1 -1 0 0 -1 0
1532261078250738 -2 0 -1 1 -1 -1 -1 -3
1532261078289634 0 0 -1 -1 1 -1 0 -2
1532261078401336 -1 -2 -3 0 1 -1 -1 -1
1532261078486109 1 -2 -1 -1 0 1 1 0
1532261078530988 0 -2 -1 0 -1 -1 -1 0
1532261078588833 0 -2 0 -2 0 -2 -1 -4
1532261078680599 1 1 2 0 -2 -1 -1 -1
1532261078763368 -2 -1 -2 -1 0 -1 0 -3
1532261078783314 -3 -1 0 0 -2 -1 1 1
1532261078822212 -1 -3 0 -1 -2 -1 0 -1
1532261078918952 0 0 0 -1 1 0 -2 0
1532261078990762 -1 -3 0 -1 -1 -1 1 -1
1532261079003725 0 -2 -1 -2 1 -1 0 -2
1532261079041623 0 0 -1 -1 -1 0 -1 -2
1532261079061569 1 -1 0 -1 -2 -4 -1 -3
1532261079076530 -2 -2 -2 -2 -2 -3 -2 -1
1532261079169282 -5 -4 -11 -33 -20 -34 -10 -5
1532261079265026 -6 -4 -7 -5 7 12 -7 -4
1532261079286966 1 3 -1 7 10 -1 4 2
1532261079316887 10 0 0 1 -9 -17 -10 -3
1532261079339826 6 6 4 1 11 19 -2 -1
1532261079369746 -2 -3 -2 -1 -6 6 -2 -5
1532261079421607 11 0 -2 -1 -3 3 -2 -7
1532261079435570 33 -5 -2 -8 -21 -26 -2 0
1532261079512364 -22 -4 -3 -4 -9 -10 -5 -14
1532261079527324 16 1 -1 -1 -1 2 1 0
1532261079557244 2 -1 -1 -4 -11 41 5 -2
1532261079579186 -35 -4 -2 -2 -2 -10 -4 -21
1532261079602128 10 1 0 0 -6 -16 -8 13
1532261079615089 16 4 2 4 21 0 1 -9
1532261079638059 -16 -4 -1 -3 -10 -18 -9 5
1532261079700860 33 2 -1 2 30 0 -2 10
1532261079720807 -6 -1 -3 -8 -11 51 -1 4
1532261079744743 0 3 2 -5 2 -4 -4 6
1532261079760700 -2 -1 0 -1 -32 -19 -13 6
1532261079803585 6 -5 -3 -3 3 16 8 -8
1532261079826524 -68 -28 -7 0 1 -23 -13 6
1532261079849462 29 0 -6 -4 -6 -34 0 17
1532261079878385 30 -40 -13 1 -16 -42 5 -29
1532261079901324 -5 -3 -4 0 10 44 -2 -11
1532261079924263 -4 -3 -5 -3 5 19 14 4
1532261080000059 -4 1 0 -1 -2 0 4 -16
1532261080022999 11 1 1 0 2 -2 -3 4
1532261080043943 2 -2 -4 -1 0 5 2 -7
1532261080080844 -9 -4 -1 -3 -2 9 2 3
1532261080111761 -3 -2 -1 2 0 8 -5 -5
1532261080134699 11 -2 -1 -1 1 -12 5 11
1532261080171611 2 -5 -5 -6 -5 -13 -19 -4
1532261080201521 9 7 4 5 8 10 8 8
1532261080231441 1 -3 -4 -1 18 45 4 2
1532261080300257 2 -3 -1 -4 -17 -38 -4 8
1532261080412980 -5 -9 -9 -15 -25 -46 -5 -8
1532261080449857 1 -2 -4 0 -4 50 -4 0
1532261080510695 -4 0 1 -2 -11 -48 -3 8
1532261080644337 3 3 0 2 25 10 -3 2
1532261080696199 -5 -3 -1 1 -7 16 -5 6
1532261080708167 1 -1 -2 3 -3 34 3 0
1532261080723127 -4 1 -1 -3 2 15 0 -4
1532261080748059 1 -2 -1 -1 1 -21 2 -2
1532261080771996 -3 -5 -4 0 6 18 4 1
1532261080982433 1 1 0 -1 1 14 -1 -3
1532261081004374 -1 1 0 -1 2 6 4 1
1532261081029307 0 0 0 2 -5 0 -9 -5
1532261081065212 -3 -2 -1 -1 0 4 0 -1
1532261081111089 -5 1 -2 -3 -1 3 -9 -6
1532261081133030 1 1 -1 -2 1 3 0 -3
1532261081260689 0 -2 -2 -1 -2 -1 4 3
1532261081281633 0 0 -2 -3 -3 0 -4 -1
1532261081328508 0 0 -1 0 -2 1 -3 1
1532261081363415 -2 -1 0 1 1 8 0 -4
1532261081537947 -2 -1 -1 -1 -1 2 0 -2
1532261081573852 0 -2 -2 -3 0 0 0 -2
1532261081604769 0 -1 1 0 -2 -6 -1 -4
1532261081816204 0 2 -2 0 -1 -2 2 -1
1532261081831163 3 0 0 0 0 -1 -2 0
1532261081941868 -2 -2 -1 -2 -1 -3 -2 -1
1532261081987745 -2 1 0 -1 -2 1 1 -2
1532261082057558 -2 -1 -1 0 -1 0 -1 -2
1532261082115404 -1 -1 -2 -1 -1 -7 -10 -2
1532261082152304 -2 -1 -2 -1 -3 -3 1 3
1532261082173248 -1 0 0 -1 -2 -4 -8 -3
1532261082266000 -1 1 -2 -1 -1 0 1 -4
1532261082293926 0 -1 -1 -1 0 0 -1 0
1532261082371735 -2 -2 0 -1 1 -1 0 -1
1532261082393659 -1 0 -2 -3 -2 1 -1 0
1532261082436545 -1 0 -1 0 1 -1 2 0
1532261082474443 -1 -1 0 -1 -1 -3 -2 -3
1532261082518325 -3 0 -1 -1 0 0 -9 0
1532261082647979 -1 -4 0 0 -1 0 -2 -3
1532261082670918 -2 -2 -4 -3 1 0 -1 -2
1532261082729772 -2 -1 1 -1 -2 -1 -2 1
1532261082753696 -1 0 -1 -1 -1 0 -9 -1
1532261082774641 1 1 -2 0 -1 -4 0 -1
1532261082864405 -1 -1 -3 -2 -3 -3 -2 -1
1532261082889333 0 -1 1 1 -2 -2 -3 0
1532261082908283 0 0 -1 -3 -1 0 -3 -3
1532261082970118 -1 0 -2 -2 0 -2 -5 -4
1532261082992059 0 -2 0 0 -2 -2 0 -1
1532261083095782 -2 0 0 1 0 -1 -1 0
1532261083126699 -1 -1 -2 -3 -1 2 -1 -1
1532261083193521 -1 -2 -1 -1 -2 -1 -2 1
1532261083248374 0 0 -2 0 0 -4 -2 -1
1532261083284278 -1 0 -1 0 0 -3 1 -4
1532261083331152 -1 -1 -1 0 0 0 4 -1
1532261083442854 -1 0 -3 0 -2 1 -1 -3
1532261083466790 -1 -2 0 0 -2 -1 0 -1
1532261083479755 0 0 -1 0 -1 -3 0 -1
1532261083494715 -2 -1 -1 -2 1 3 -1 0
1532261083542587 -2 1 -1 -1 -1 -3 3 5
1532261083676230 -1 0 1 0 0 -1 0 -4
1532261083698171 0 -3 -2 -3 -3 0 0 -2
1532261083743051 1 -2 0 0 -1 2 0 1
1532261083763995 3 1 -2 -1 -2 0 -1 -1
1532261083793915 -2 -8 -3 -1 -1 -5 -1 2
1532261083816854 1 -3 0 -2 -1 0 0 1
1532261083839794 -1 -1 0 -1 0 -1 3 2
1532261083862731 0 -4 0 0 -2 -1 -1 -1
1532261083936534 1 -1 -1 -1 -2 1 -1 0
1532261084037279 -3 0 1 -1 -1 -2 0 -6

1532261084096107 -2 -5 -2 -2 -1 -3 0 -1
1532261084117051 0 1 -2 -1 -1 -1 0 -2
1532261084161931 -1 -1 -1 0 0 -2 -1 -1
1532261084184870 -2 -3 0 0 -2 2 -2 -2
1532261084255681 1 1 0 0 -2 -1 0 -2
1532261084274629 -1 0 -1 -1 1 -3 -4 -2
1532261084299562 -1 0 -2 0 -2 -2 0 0
1532261084334469 -1 0 0 0 0 -1 -1 0
1532261084395307 -2 0 -2 0 -1 2 -3 -4
1532261084439190 0 -1 -3 0 -1 0 0 -1
1532261084553883 0 1 -1 -3 0 -2 -3 -2
1532261084575823 0 0 0 -1 -2 -2 -1 -2
1532261084589786 -2 -1 1 -1 -2 -2 -1 0
1532261084611728 -1 -2 -1 -1 -1 0 1 -1
1532261084647632 -1 0 -2 -1 -2 -3 -1 3
1532261084671580 0 0 -2 -3 -2 -1 -2 0
1532261084783269 0 -1 -1 -2 -2 -2 -1 -1
1532261084810197 -2 -2 -1 -2 1 0 -1 -1
1532261084830143 0 0 -2 -2 -1 0 -2 -3
1532261084861061 -2 -1 -2 0 -1 -1 -1 -3
1532261084897963 -2 -2 -1 0 -2 0 1 -2
1532261085086458 -1 -2 0 0 -1 -1 0 -1
1532261085130341 1 0 0 -1 1 -1 2 0
1532261085174263 3 0 -1 -2 1 -2 -2 -1
1532261085236097 0 0 -2 1 -1 1 -1 -5
1532261085363760 -1 -3 -1 -1 -1 -2 2 1
1532261085385697 -3 -2 -1 1 -2 -2 -1 1
1532261085444539 0 -2 -1 -1 -4 -3 0 3
1532261085482442 -1 0 -1 -2 0 -1 -2 -1
1532261085510363 0 0 -1 -2 -1 0 1 0
1532261085556241 -2 1 -2 0 -1 -2 -4 -3
1532261085641023 -3 -2 -1 -1 0 -2 -2 -2
1532261085662962 0 -2 -1 -2 0 -1 0 -1
1532261085692889 -2 0 -1 -2 -1 0 2 2
1532261085736764 -1 -1 -2 0 -1 -1 -1 -1
1532261085759702 -2 1 0 -2 -1 0 -1 4
1532261085781645 1 0 -1 -2 -1 0 -2 0
1532261085803585 -2 -1 -1 -1 1 -1 1 -1
1532261085851458 0 0 0 -1 -2 -1 -2 -2
1532261085895340 -2 -1 0 -1 0 -2 -2 -3
1532261085917281 0 -1 -2 -1 0 1 -1 -2
1532261085946204 -2 0 -2 -2 0 -1 -1 -2
1532261085999063 0 -2 0 -2 -3 0 -2 1
1532261086036961 -1 -1 -2 -1 -3 1 -3 -2
1532261086105777 -1 -1 -1 0 1 -1 2 0
1532261086239421 -1 -1 -3 1 -1 -1 2 -1
1532261086256396 0 -3 -1 0 -2 -1 0 0
1532261086262359 -1 1 -2 -1 1 -1 -2 0
1532261086299260 -5 0 -2 0 -1 2 -1 -1
1532261086336161 0 -1 -2 -1 -1 -1 -2 0
1532261086411959 0 -1 0 -2 -1 -1 0 3
1532261086502717 1 -1 -2 -2 -1 -2 -2 -2
1532261086535628 -3 -2 0 -1 -1 -1 -2 -1
1532261086555575 -3 -1 -2 -1 -2 -1 2 4
1532261086578513 -1 -3 -1 -1 -1 -2 -2 -1
1532261086683234 -1 0 0 -1 -1 1 -1 2
1532261086773991 -3 -2 -3 -2 -2 0 1 -1
1532261086796929 -2 0 0 -1 -1 0 0 -2
1532261086847793 -1 -1 0 -2 -2 1 -1 -1
1532261086914614 -1 -3 -1 -2 -1 0 1 -1
1532261087005384 0 -1 -1 -2 -3 1 -2 0
1532261087089149 0 2 -1 0 0 5 -1 0
1532261087139015 4 1 0 3 13 6 -3 -4
1532261087253708 5 -4 -2 -4 -11 -29 -25 -4
1532261087273654 9 -3 -1 5 4 -5 10 4
1532261087297590 -29 -3 -3 -1 -3 -9 0 -7
1532261087326513 -22 -2 -3 -11 7 -35 -1 -3
1532261087341473 -38 -5 -3 0 12 -11 7 3
1532261087387350 -1 3 -2 -2 0 21 15 -7
1532261087401313 0 -4 -3 -1 1 6 3 8
1532261087461153 7 1 -3 -2 0 6 4 -15
1532261087552908 -17 0 -2 1 -7 0 -6 -3
1532261087618732 -28 -4 0 -3 -5 8 3 7
1532261087641670 29 6 0 -1 5 19 10 -20
1532261087678571 4 -10 -11 -5 8 -27 1 29
1532261087723452 6 27 -1 -5 0 7 12 25
1532261087769329 2 -14 -6 -3 -25 4 -16 -11
1532261087829169 9 -3 -1 0 14 0 10 -1
1532261087866070 6 1 2 0 5 4 -2 2
1532261087885020 10 -2 -2 -2 -2 -1 -5 -5
1532261087905963 3 -2 0 -4 -10 -9 -1 1
1532261087940870 3 0 -2 0 4 -10 2 -4
1532261087978769 0 3 -1 -15 -14 11 3 -3
1532261088000710 6 7 -4 -10 35 -6 -5 5
1532261088046587 -3 0 0 0 -16 -8 -8 -3
1532261088123382 9 -1 -2 8 -1 11 -3 1
1532261088158289 -3 -5 -2 2 -3 5 6 -4
1532261088185217 1 -5 -3 -2 1 -14 3 5
1532261088325840 -3 0 -1 3 -1 -10 1 -5
1532261088377702 -13 -1 -2 -2 -1 7 -2 2
1532261088393659 -1 -2 -2 -3 -1 -4 -1 -3
1532261088475441 -3 -1 -2 -2 1 -5 -1 -4
1532261088556225 -1 0 -3 0 1 -1 0 0
1532261088626038 4 0 0 -1 -1 2 0 2
1532261088692859 14 -2 -1 2 -1 1 0 1
1532261088715797 -4 0 -1 -2 -1 -3 0 0
1532261088738737 -2 -3 -1 -1 -2 -1 -1 -2
1532261088775637 -2 -4 0 2 -2 -1 0 -1
1532261088790598 -2 -3 0 -2 -2 -2 -6 -3
1532261088814534 0 2 -1 0 -2 -1 1 1
1532261088836475 -1 2 -1 -1 1 1 2 -3
1532261088857419 0 0 0 -1 -3 1 1 -3
1532261088902299 -5 -4 -1 -3 -3 2 2 0
1532261088971115 0 0 -3 -1 0 -3 -1 -1
1532261089015995 0 -1 -1 -2 -2 -5 -3 -2
1532261089051899 -1 0 -2 0 1 1 2 3
1532261089066859 -1 -1 -1 -1 -1 0 -1 -1
1532261089142656 -1 -3 -2 1 -1 -3 -1 -1
1532261089157617 -1 -2 -1 -1 -2 -2 -2 0
1532261089203494 -1 2 -1 0 -1 1 0 -3
1532261089308214 -1 -1 -2 -2 -1 1 -2 -1
1532261089322193 -1 -1 1 -3 -2 -1 -1 -2
1532261089343121 0 -2 0 -1 -1 -3 1 4
1532261089375035 -2 0 -1 0 -1 -1 -1 0
1532261089411936 1 -1 -2 -1 0 1 -1 -1
1532261089457814 0 0 -1 -1 0 -2 -1 -1
1532261089479759 1 0 -1 0 -1 0 4 1
1532261089585472 -2 -1 -1 0 2 -1 -2 0
1532261089631360 -2 0 -1 1 1 0 -2 -4
1532261089668251 0 -1 0 -1 0 7 -2 -1
1532261089691190 1 -1 -1 -2 -1 -4 0 2
1532261089712134 -2 -1 -2 -1 -2 -4 1 1
1532261089780950 -2 0 -3 -2 -3 -2 0 -3
1532261089802891 0 -2 -2 -2 0 -2 -1 -3
1532261089825829 -2 -1 -1 0 -3 -2 1 2
1532261089861749 0 0 -2 -1 0 -2 -2 -1
1532261089899632 0 -1 -2 0 0 0 1 -4
1532261089923568 -3 -1 0 0 -1 0 0 7
1532261090057234 0 -2 -1 -3 -3 -1 -3 -2
1532261090081147 1 0 -1 -1 -2 -1 -3 -3
1532261090138992 0 -1 0 -3 -1 0 1 0
1532261090169910 -1 -1 0 0 1 -2 0 1
1532261090182874 1 -1 -1 0 0 -1 0 0
1532261090197835 0 1 -1 -2 0 0 -1 -1
1532261090221795 0 -1 -2 0 -2 -3 -1 2
1532261090267648 -2 -2 -2 -2 -1 -3 1 -1
1532261090311531 -1 -2 -2 0 0 0 -1 -3
1532261090356411 -2 -2 -1 -1 1 -2 -4 -2
1532261090381345 -1 -2 0 1 -2 0 0 -1
1532261090432207 -1 0 -2 -1 0 -1 -1 -1
1532261090470106 -2 0 -1 -1 -2 0 -2 0
1532261090483072 -2 -1 -1 -2 -1 -1 -1 1
1532261090498032 -2 -2 -1 -2 -2 0 -1 -1
1532261090551888 -5 -4 -1 -1 -1 -1 -2 2
1532261090566848 -1 0 1 -1 -1 0 -3 -2
1532261090611728 -2 -1 0 0 1 -1 -1 -1
1532261090659600 0 -1 0 -1 -1 -1 -2 1
1532261090680544 -1 -2 -2 -1 -1 -1 0 0
1532261090686528 0 -3 1 0 -1 -1 1 0
1532261090709466 -1 -1 -2 0 -1 0 0 0
1532261090731408 0 1 1 -1 1 -2 0 -2
1532261090753349 -2 0 -1 1 1 -1 -2 -2
1532261090775291 -2 -2 -2 -1 -2 -2 1 4
1532261090822168 -2 -1 -1 1 -1 -1 0 0
1532261090844107 -1 -3 -1 -1 -2 0 -2 -4
1532261090868042 0 0 -1 -2 -2 1 -2 2
1532261090913926 -3 -2 -1 0 -1 -1 -2 -3
1532261090934864 0 1 0 -2 0 -1 1 -2
1532261090956805 -1 -1 0 -2 0 -2 -2 -5
1532261090962789 -1 -2 -1 1 1 -2 0 -2
1532261090986725 0 -1 -1 0 0 -1 -2 -2
1532261091009664 -2 -3 -2 -1 -1 -1 -1 0
1532261091054543 -1 2 -1 0 -2 0 -3 -3
1532261091123360 -1 0 -1 -1 -2 -2 -1 0
1532261091168240 -1 -1 -3 -2 1 -2 -3 -2
1532261091191178 -1 -1 1 0 1 0 2 2
1532261091213120 -2 1 -1 0 -1 0 1 0
1532261091237056 0 -3 -1 1 1 1 -2 0
1532261091271962 0 0 0 2 1 0 -3 -3
1532261091309861 -2 -2 -2 -2 0 -1 -2 0
1532261091331803 -1 0 0 -2 -2 -1 1 2
1532261091399621 1 -2 -2 -1 -1 -1 0 0
1532261091490379 0 -1 -3 0 1 -2 -2 2
1532261091528277 -1 0 -2 0 0 0 -2 -1
1532261091541242 -3 2 0 -2 1 1 6 0
1532261091553221 0 0 -3 -2 -1 1 1 2
1532261091574169 -1 0 -2 1 -1 0 -1 -2
1532261091632000 -3 -3 -3 -1 -1 0 0 -1
1532261091683862 0 1 -1 -1 -1 1 -1 -2
1532261091723754 0 -1 0 -1 -1 -2 0 -1
1532261091805536 0 0 0 0 -1 -1 -1 -1
1532261091843435 0 0 -1 -2 -1 0 -2 -1
1532261091865375 -2 -1 0 0 -2 0 -2 -2
1532261091885322 0 -1 -1 1 -2 -2 -2 -2
1532261091911253 0 -1 0 0 0 0 -1 0

1532261092050880 -1 0 -1 0 0 -1 -1 0
1532261092083793 -3 0 -1 -2 -1 -1 -2 -2
1532261092095759 0 -2 -2 0 -2 -2 0 -1
1532261092119695 -2 1 -1 -2 -1 -2 -1 0
1532261092164576 0 -1 0 0 -1 -2 0 -3
1532261092210453 -2 -2 -1 0 0 0 0 0
1532261092232395 -2 1 -2 0 -1 -2 -3 0
1532261092323151 0 -2 -2 -1 2 -2 -1 0
1532261092346090 -1 0 -2 0 0 1 -3 -3
1532261092362048 -2 -1 -1 -1 -2 -2 0 2
1532261092381994 -2 1 1 -1 -1 0 0 0
1532261092411915 1 -1 -2 1 1 0 0 -1
1532261092441834 0 1 -1 -1 -2 -4 0 3
1532261092464773 -1 -3 -1 1 0 1 -1 0
1532261092486714 1 -3 -1 -1 -1 -1 -1 -1
1532261092531594 0 -2 -1 -1 -2 0 1 -1
1532261092555540 1 -2 -2 -1 0 -1 1 -2
1532261092585450 -1 -1 -1 -2 -1 -1 0 1
1532261092621355 0 0 -1 -1 2 0 -3 0
1532261092637311 -2 0 1 0 -2 -1 0 -3
1532261092675209 0 -1 -2 -3 0 0 -2 2
1532261092742036 -2 -1 -2 -2 -1 -3 5 6
1532261092831792 0 0 -1 -1 1 0 -2 -3
1532261092901635 -1 -3 0 0 -1 -1 0 -1
1532261092905616 -1 -2 -1 0 -2 -1 -2 -2
1532261093019313 1 -3 -1 -1 -2 -2 -1 2
1532261093042251 0 -1 -3 -1 -1 -1 -1 0
1532261093064192 -3 -1 0 0 -1 -1 0 -1
1532261093087132 0 -1 0 -2 0 0 -2 -1
1532261093133009 0 -1 -2 0 -1 -1 0 1
1532261093156946 0 0 0 1 -2 -1 -2 -2
1532261093177888 -1 -1 0 -2 0 -1 1 0
1532261093199829 -1 -3 -3 -1 -1 -1 2 0
1532261093236731 -1 -2 0 0 -1 0 -2 0
1532261093259670 -2 -2 0 -2 -2 -1 -2 -3
1532261093319512 1 -1 1 -1 -2 -1 0 2
1532261093344444 -2 -1 -3 -2 -4 -2 -2 0
1532261093366385 0 0 0 0 0 -1 -2 -2
1532261093435201 0 0 -2 -1 2 -1 -1 -2
1532261093462129 -1 0 0 0 -1 -1 0 -1
1532261093487062 -1 -1 -1 -1 -2 -1 -1 0
1532261093522966 -1 -2 -1 -3 0 0 0 2
1532261093545905 -1 0 -1 -1 0 0 -2 -3
1532261093575824 -2 1 -1 -1 -1 -2 -1 0
1532261093664587 -3 -1 -3 0 -1 0 -2 -5
1532261093748362 -1 -2 -1 -1 -1 -2 3 4
1532261093768310 -2 -1 0 -1 -2 0 -1 1
1532261093799227 0 0 -2 -2 -2 0 -1 -2
1532261093964785 -1 0 -2 -1 -1 -1 -3 -3
1532261094062523 1 -1 -1 -2 -4 -1 -1 0
1532261094248027 0 -4 -4 -4 -6 -12 -2 -2
1532261094287920 -3 1 2 16 16 -7 -4 -2
1532261094302880 1 2 -2 6 -6 -3 6 2
1532261094325819 -1 -4 -6 -5 5 2 11 1
1532261094347760 -4 1 5 4 -12 -19 -14 -6
1532261094466443 -3 2 0 1 6 24 18 11
1532261094564182 -13 1 2 1 -1 3 -3 6
1532261094579141 -5 1 2 2 13 11 4 -6
1532261094721777 13 -2 1 4 28 31 6 16
1532261094798555 35 3 -2 -7 -30 -15 -21 -35
1532261094820496 0 -10 -9 -6 -1 -25 -6 -22
1532261094858395 19 -25 -10 -4 5 -24 -20 -4
1532261094863382 24 -76 -33 -8 23 35 0 -5
1532261094963115 -17 -2 -7 6 3 -24 -1 -4
1532261095006998 0 -2 -5 2 6 4 16 6
1532261095075813 1 1 1 0 10 3 8 7
1532261095119696 0 -6 -1 -4 -8 4 -2 0
1532261095156597 7 -1 -1 0 3 8 2 5
1532261095397951 -5 -4 -2 4 -5 -15 -5 6
1532261095442831 -3 -4 0 0 -3 -1 6 2
1532261095472752 -4 2 1 -2 -8 -4 -3 -1
1532261095494693 1 -3 2 5 -15 8 2 3
1532261095562518 -3 0 0 0 8 3 -2 2
1532261095584453 6 -2 2 0 0 -4 -4 -1
1532261095652272 -3 0 0 -1 0 -1 2 16
1532261095674213 -5 0 -1 1 -2 -9 -3 -4
1532261095772949 2 -2 -1 -1 0 -6 -6 5
1532261095793906 3 -1 -1 0 -1 0 0 3
1532261095990368 -2 -1 -2 -2 -1 4 -3 -2
1532261096006324 9 0 -1 0 1 1 3 -3
1532261096049210 -2 0 0 -1 0 0 -1 -3
1532261096096085 -2 -1 -3 -2 0 1 -1 5
1532261096118026 -2 -3 -1 -2 0 -3 0 0
1532261096140965 -2 -1 -1 -2 -2 -1 -2 -2
1532261096183851 0 -2 0 0 -2 -1 -2 -4
1532261096247680 0 -3 -2 0 -1 1 -1 1
1532261096260659 -1 -3 -1 -1 -1 -1 -3 -2
1532261096281589 1 -1 0 -2 0 1 1 1
1532261096328464 -2 -1 0 -3 0 0 4 10
1532261096349408 -4 -1 0 1 -1 -1 0 -1
1532261096372347 1 0 -1 0 -2 -2 0 -3
1532261096394287 -3 -1 0 0 -1 -2 -1 -1
1532261096486044 1 0 -1 1 -1 -1 -3 -9
1532261096522944 0 0 -1 -1 -3 -1 0 6
1532261096537903 1 -3 -1 -1 -2 0 -2 -4
1532261096580789 -3 -2 -3 -2 0 -2 -3 0
1532261096762303 -1 -1 -2 -1 -1 -1 -3 -4
1532261096801200 4 0 0 -1 0 -1 -1 -2
1532261096816159 1 -4 0 -3 -1 1 2 7
1532261096844084 0 -3 -1 1 0 1 0 2
1532261096870016 0 -1 -2 -2 0 1 -2 -22
1532261096882981 -1 -1 -2 0 -1 -2 -1 4
1532261096996677 -3 -1 -1 -1 1 -2 -3 -6
1532261097064496 -1 -1 -1 -2 -1 -1 -1 2
1532261097114362 -3 -2 -2 -1 0 -1 -1 -1
1532261097182180 -3 -2 -1 -2 -3 0 -2 -10
1532261097272938 -4 -1 0 2 1 -1 0 -9
1532261097338773 2 -1 -2 -1 0 0 3 2
1532261097458442 -3 -1 -2 -2 -1 -2 -1 -1
1532261097595077 1 -1 -1 -1 -1 0 0 -5
1532261097632975 -2 1 -1 -1 -2 -1 -2 -2
1532261097692815 -7 -2 -2 -1 0 -1 1 -1
1532261097699797 -2 -1 -1 -1 -1 0 -3 -6
1532261097736698 -4 -1 -1 -1 -2 -2 -1 -7
1532261097782575 -1 -2 -2 -1 0 -3 -2 -1
1532261097856382 1 -2 -1 -2 1 2 0 -4
1532261097873333 -1 -2 0 0 -2 -2 -1 1
1532261097896286 1 -1 -1 0 0 -1 -1 0
1532261097923200 2 -1 0 -1 -2 0 1 33
1532261097954116 1 -1 -1 0 -1 -2 2 2
1532261098021935 -1 -1 -1 -2 -3 -2 -3 -2
1532261098059834 -2 1 0 -1 -1 0 -5 -5
1532261098112692 -9 -1 -4 -2 -3 2 1 -4
1532261098188489 1 -2 -2 -1 -1 -1 0 7
1532261098209434 -2 -3 0 0 1 -3 -2 -2
1532261098299194 -1 0 0 -2 -1 -2 -1 8
1532261098315151 -5 -2 -1 0 -1 0 -1 -8
1532261098337092 -2 0 1 -2 -1 1 2 18
1532261098383968 -5 -1 0 -2 -1 0 0 4
1532261098404911 0 0 -3 -4 -1 -3 1 0
1532261098456773 2 0 -1 -1 -2 -1 -5 -11
1532261098486692 -2 -3 -1 -3 -1 0 -3 -5
1532261098546532 0 -2 1 -1 0 -1 -2 2
1532261098638295 6 0 -4 0 -4 -2 1 13
1532261098728047 -1 0 -1 -3 0 -1 -2 -5
1532261098756970 -3 0 -1 0 0 0 1 1
1532261098778916 0 0 0 1 1 1 -2 -4
1532261098809828 -3 -2 -1 -2 -3 -1 1 -5
1532261098847728 -1 0 -1 0 1 0 2 -5
1532261098871663 -7 -2 -1 -3 0 -3 -4 -13
1532261099021262 -2 0 0 0 0 -1 0 -6
1532261099035225 -1 -1 -1 -3 -2 -2 -2 -7
1532261099081103 -1 -1 -1 -1 -1 0 -2 9
1532261099126980 -6 -1 -3 -3 -1 -2 0 -3

1532261099268601 -2 -2 -1 -2 -2 1 0 6
1532261099299518 3 -1 -1 0 0 -1 -1 -3
1532261099319466 -7 -5 -8 -22 26 17 1 -1
1532261099373321 -1 1 -2 -16 -2 -1 5 -1
1532261099494000 0 1 6 -7 1 2 8 1
1532261099516937 -9 7 2 4 0 9 0 -4
1532261099558825 -1 -22 -2 2 2 -5 0 1
1532261099583759 -2 -7 -2 0 0 6 1 31
1532261099634622 -1 8 -1 1 22 -3 -3 -2
1532261099680500 -1 3 -2 -2 5 -13 -1 1
1532261099718429 1 -2 -2 -17 -13 1 0 -4
1532261099881991 0 5 -9 -1 -14 -27 10 12
1532261099934849 -3 -6 -5 -2 -2 3 -7 8
1532261100130327 0 3 1 -1 6 2 -16 -2
1532261100169226 -1 -8 -2 0 20 5 -25 -4
1532261100197149 1 0 5 31 6 -2 -14 2
1532261100210115 0 1 0 -7 -16 6 -20 -2
1532261100258984 -1 -5 -4 -3 -8 -50 8 -1
1532261100330791 0 -1 0 0 -1 9 3 -1
1532261100365698 -4 -3 -1 5 6 -1 -3 -9
1532261100384648 0 6 2 -3 0 1 7 19
1532261100414567 -1 4 0 2 1 -1 -8 0
1532261100436509 -6 -5 -1 -2 0 -2 -4 3
1532261100459461 0 -5 -2 10 19 -1 -3 0
1532261100564191 -1 -3 0 -5 6 6 0 -1
1532261100579676 1 0 -1 2 1 -11 -7 0
1532261100603614 4 9 52 -8 -6 -7 6 1
1532261100693374 5 2 0 10 -7 -28 -5 0
1532261100715315 1 -2 -12 -13 -54 3 -2 0
1532261100750222 0 0 1 0 -9 3 -6 -2
1532261100835993 -1 -2 -2 -3 -13 -20 -5 -2
1532261100881870 -6 6 -1 -3 0 1 1 -4
1532261100946696 -13 0 -2 -2 -4 -11 -2 7
1532261101022129 1 -2 0 -2 -1 6 1 9
1532261101044070 -1 -1 -1 -1 -3 -4 -2 7
1532261101110604 -1 -1 0 -1 1 -3 -4 -2
1532261101203348 1 1 0 0 -2 -2 -4 7
1532261101210330 1 -1 0 0 -1 0 0 3
1532261101240250 -4 -3 -1 -1 0 -1 -2 -2
1532261101301087 -4 0 0 -1 -1 0 0 1
1532261101397829 -1 1 1 1 -2 -3 -1 31
1532261101502549 0 -1 -3 -1 0 -1 0 -4
1532261101520500 -4 -2 -1 0 -1 -1 -1 2
1532261101576351 -1 0 -3 -2 -2 -2 1 -1
1532261101713983 -1 -1 -1 -2 -2 -1 -2 2
1532261101795776 0 0 1 -1 -1 1 0 -4
1532261101810724 -1 -1 -2 -1 -1 0 0 -6
1532261101951349 -9 -2 -2 1 -2 0 -3 -62
1532261102018170 1 -2 -1 -2 -2 0 2 17
1532261102087984 1 -2 0 1 0 -3 1 9
1532261102117903 0 0 0 -2 1 1 -1 4
1532261102155803 -1 0 -1 0 -3 0 -2 -6
1532261102177743 0 -2 -3 0 -1 -3 -1 8
1532261102288448 0 -1 -1 -1 -2 -2 0 4
1532261102351279 1 1 0 0 -1 2 -2 -1
1532261102364245 -1 0 0 -1 -3 0 3 18
1532261102396159 1 -3 -1 0 -1 -1 3 6
1532261102454004 3 2 -2 -1 -1 -1 -5 -9
1532261102628537 -4 0 -1 0 1 0 2 28
1532261102710319 2 0 1 -1 1 -1 -2 19
1532261102731262 -5 0 0 -1 -2 -4 -1 -14
1532261102777153 3 0 -1 -2 0 -2 -1 -4
1532261102802073 -4 -1 -2 -2 -3 -2 -2 -17
1532261102890836 1 0 -2 -1 -1 -1 -1 -5
1532261102918761 -2 -4 -4 -4 5 -4 -4 -5
1532261102942697 -2 1 10 28 -5 3 -3 -2
1532261102964639 -3 -2 -8 -26 -8 -9 -2 -3
1532261102987578 -1 -4 -3 -15 1 7 0 1
1532261103061382 1 1 2 -5 -3 2 2 -1
1532261103116233 -1 -4 -7 -8 -3 0 3 2
1532261103139173 -1 -2 0 2 -9 -7 -7 -5
1532261103156128 1 -5 -6 -1 10 8 -17 -5
1532261103183055 -3 0 -1 -2 -10 -19 -15 -5
1532261103203998 8 5 6 -2 -13 10 -7 -1
1532261103241898 -8 0 -2 5 9 8 6 -7
1532261103264836 -8 -3 -1 -2 7 5 -1 -23
1532261103355594 4 -1 -1 4 -3 -3 15 10
1532261103369557 0 1 -2 -8 -13 -3 -7 -17
1532261103376538 1 -5 -4 3 12 0 -1 8
1532261103423412 2 1 0 0 8 9 6 -3
1532261103458318 -17 -8 -8 -6 -11 -18 -8 1
1532261103482254 -9 -3 -1 -3 -6 -17 1 4
1532261103542095 -16 1 -1 1 -11 -18 9 -11
1532261103564037 -12 -3 0 3 18 23 8 20
1532261103600940 20 -2 -4 1 12 -5 1 3
1532261103654794 18 -4 -4 -4 -11 1 6 24
1532261103678730 -3 -12 -3 -5 -11 5 -16 8
1532261103691694 13 12 3 -1 -2 13 2 59
1532261103722612 3 -22 -21 8 1 1 6 -68
1532261103745567 32 -12 -15 -5 -13 4 -11 17
1532261103766495 -8 -23 -19 0 6 5 7 -18
1532261103803396 -3 -8 -8 -2 7 2 -2 -15
1532261103841295 -10 -4 -2 -1 -7 -5 2 -7
1532261103955988 0 -6 -6 -2 -2 -3 -2 -6
1532261104005855 -3 -2 -3 -2 0 -19 0 -2
1532261104040761 0 1 1 8 5 11 -12 1
1532261104075667 -1 -3 -2 -2 3 18 -2 2
1532261104097609 -3 -1 -2 -6 4 27 4 -2
1532261104121545 -5 -5 -4 2 22 31 4 0
1532261104167422 0 1 0 -6 -39 -4 15 0
1532261104210316 2 -2 -4 0 19 45 2 -2
1532261104234244 2 0 -3 -2 29 2 -1 -2
1532261104277130 -4 3 1 -2 -6 -3 -4 1
1532261104292089 4 -3 -2 -5 -13 -11 -7 34
1532261104321012 -5 -3 0 -4 3 30 0 -11
1532261104335972 5 -2 -1 2 3 14 1 11
1532261104367887 -6 -1 -2 -4 -3 0 -6 -11
1532261104419748 2 -1 -1 0 -3 -13 5 4
1532261104466623 -2 0 -3 0 12 5 -1 8
1532261104487566 -4 -1 -1 -1 -8 -6 -4 -11
1532261104571384 -3 0 -2 -2 0 3 1 -2
1532261104609241 -2 1 -1 -1 -2 -1 0 -3
1532261104631192 -8 -1 -1 -1 -1 1 -1 -11
1532261104741886 -2 0 -2 -1 -7 -5 -3 -9
1532261104751860 3 -1 0 -1 0 3 -1 10
1532261104787764 -3 0 0 -2 2 2 0 5
1532261104849610 0 -3 -3 -1 -3 2 0 -1
1532261104871541 -2 -2 -1 0 -2 -1 2 5
1532261104892484 -4 1 -1 1 0 0 -3 -2
1532261104907444 -1 -1 -2 -1 -1 -2 -2 0
1532261105005183 2 -1 -1 -2 -1 -2 1 -3
1532261105088958 1 -1 0 -1 -2 -1 -1 1
1532261105127855 -2 -2 -3 -1 -2 -3 -2 0
1532261105142815 3 -2 -2 -1 -1 0 -2 0
1532261105148799 -1 0 0 0 1 0 1 -1
1532261105187694 -2 -1 -1 -1 -2 -1 0 1
1532261105207642 -2 -2 -2 -1 -2 -1 0 -1
1532261105251523 -2 -2 -1 0 -1 -2 0 -1
1532261105298398 -2 -1 -2 0 0 -3 0 0
1532261105321337 0 -1 0 -2 -1 0 1 -3
1532261105349263 -5 -1 1 -1 -1 -2 -3 -2
1532261105388159 -3 -3 -2 -3 -1 0 0 -2
1532261105393145 -1 1 -1 -1 -1 0 -2 -1
1532261105417081 -3 -2 -2 -1 0 -1 0 -3
1532261105447001 -4 -2 -1 0 -1 0 -3 1
1532261105538772 -1 -1 -2 -1 0 0 -2 -6
1532261105553715 1 -1 -1 -1 1 -3 0 -1
1532261105599593 0 -1 -1 -2 -2 -3 2 -1
1532261105620536 -1 -2 -3 -1 -1 -1 -1 0
1532261105642479 -2 0 -1 0 -1 0 1 -2
1532261105672398 0 -1 -2 -1 -1 -1 2 3
1532261105688356 0 -1 -1 0 0 -1 -1 0
1532261105723262 -2 -2 0 -1 0 0 1 -1
1532261105747199 -1 0 0 -1 -1 -1 -1 -2
1532261105785097 1 -2 -1 0 1 0 -1 0
1532261105792078 -1 -1 0 -1 -2 -1 -1 0
1532261105815017 -2 -2 -1 0 -1 -2 -1 -3
1532261105831972 0 -1 0 -2 -2 -2 -3 0
1532261105858900 -1 -2 -2 -1 -1 0 0 -1
1532261105898797 -2 -1 -1 0 -2 0 -1 -2
1532261105919736 15 -1 -3 -2 -2 -1 -2 3
1532261105941678 -6 -2 0 -1 0 -1 0 -3
1532261105956644 -3 0 -2 -1 -2 0 -1 -2
1532261105979577 -4 -2 0 1 -1 -2 -2 -4
1532261106002515 -1 -2 -4 -1 -2 -1 -3 -3
1532261106017475 -2 0 0 0 -1 0 -2 -3
1532261106069336 -6 -1 -1 0 0 0 -1 -10
1532261106136158 -9 -3 0 -1 -3 -4 -5 -62
1532261106178045 0 -2 -2 1 -2 0 0 18
1532261106197992 3 0 -2 -1 1 -1 3 12
1532261106237886 1 -1 1 -1 -1 -1 -1 -1
1532261106249853 -2 2 -1 -2 -2 -2 -4 -7
1532261106294734 -2 2 0 -1 -1 1 -2 0
1532261106331635 -1 -1 -1 -3 -1 0 0 -1
1532261106361555 -2 -3 0 0 2 -1 -1 -1
1532261106384494 2 -1 0 -1 1 0 -1 0
1532261106430372 -4 0 -2 -3 -4 0 0 -3
1532261106454308 2 0 -1 -1 -1 -2 -2 -5
1532261106496195 -4 0 0 -2 -1 0 -2 4
1532261106515145 -3 0 0 -1 0 -1 1 -4
1532261106542091 -3 -1 -1 -2 0 -2 -2 -2
1532261106572989 1 1 -1 -1 -1 -2 1 34
1532261106585955 2 -1 -2 1 -2 -1 1 0
1532261106616872 10 -1 0 -2 0 1 0 -7
1532261106670728 1 -2 0 0 -2 -2 -1 -1
1532261106708639 -2 -2 -1 -3 0 0 -1 -1
1532261106754504 1 2 -1 1 -1 0 -1 -2
1532261106790408 0 -4 -1 -1 1 -1 0 -5
1532261106797393 -1 -1 -2 -2 -1 0 0 -3
1532261106834291 -6 -2 -1 -1 -1 -3 -4 -54
1532261106894132 -2 -3 -2 -2 -2 0 0 6
1532261106947987 -2 -3 -2 1 -1 -2 0 0
1532261106986883 -2 -1 0 -2 -2 -3 0 8
1532261107013811 -1 -1 1 -2 -1 0 -1 4
1532261107074648 0 -1 -2 -1 -1 -3 -1 -3
1532261107111550 -1 -1 -2 -2 -1 -3 -2 0
1532261107134488 1 -2 -1 1 -1 0 -2 0
1532261107195325 -1 -1 -2 -3 -2 -1 0 0
1532261107286083 -5 -1 0 1 1 -1 -1 0
1532261107314008 0 -1 -1 0 1 2 0 7
1532261107344925 -1 0 -1 -1 -1 -1 0 -1
1532261107381827 -1 0 0 0 1 -1 1 -2
1532261107449645 -1 0 -2 -2 -1 -1 -2 -1
1532261107569326 -3 0 0 0 -2 -1 -2 0
1532261107616200 -3 -1 -2 -1 1 -1 0 -1
1532261107621187 -1 -2 -2 0 0 0 -1 2
1532261107652104 -1 -1 -2 -1 -2 -2 -2 -5
1532261107682024 -2 -2 -3 -2 -2 0 -2 0
1532261107703965 2 0 0 -1 -2 -1 1 0
1532261107894456 -2 -1 -1 0 -2 -1 -3 -4
1532261107899442 -1 -2 -2 -2 -2 0 -1 0

1532261108028098 0 -2 0 0 1 0 1 29
1532261108095917 -2 -2 1 -1 2 -2 -2 1
1532261108117858 -1 0 0 0 -1 0 -1 -9
1532261108373211 -1 -1 0 0 0 -1 0 -1
1532261108499869 -1 -1 -1 -1 0 0 0 -3
1532261108581651 -3 -2 -1 -1 0 -1 1 2
1532261108672408 -1 0 -1 -1 -1 0 0 -1
1532261108718285 -1 -3 -2 0 -1 -1 -3 -2
1532261108776131 -1 -1 0 -2 -2 0 0 -2
1532261108881848 -2 -1 -2 -3 0 -2 -1 0
1532261108935704 -1 -2 -1 -1 0 0 -3 -2
1532261109010504 -1 -3 -2 -3 -1 -1 0 -1
1532261109085304 -1 -1 -3 -1 0 -1 -2 -1
1532261109115224 -1 -1 -1 0 0 0 0 -1
1532261109167085 -1 1 2 -2 -3 0 -1 0
1532261109227922 -1 -1 -2 0 0 -1 -3 -2
1532261109278787 1 -1 -3 -1 -2 -1 0 -1
1532261109324664 -1 -2 0 0 -3 0 -1 -2
1532261109368546 -1 0 0 -3 -2 -1 1 2
1532261109414432 -2 -1 -1 -1 -3 1 0 -1
1532261109439374 -2 -2 0 -1 1 -2 -1 -1
1532261109506198 -1 0 -2 0 -2 1 -2 1
1532261109528127 -2 0 0 -1 -1 -1 -3 -4
1532261109586969 -2 -1 1 -1 -1 0 1 3
1532261109609907 1 -2 -2 0 -2 -1 -1 1
1532261109760505 -1 -1 -2 -1 -1 -1 -2 -2
1532261109804388 0 0 -2 -2 -1 -2 1 4
1532261110014824 0 -2 -1 -1 -1 -1 1 1
1532261110061714 2 1 0 -1 0 1 0 0
1532261110105583 0 -1 -1 -1 -1 -3 -1 -1
1532261110118548 1 -2 0 -1 -3 -1 -2 -2
1532261110156446 -1 -1 0 -2 -1 -1 1 1
1532261110335967 -1 -2 -1 0 0 -1 -1 0
1532261110400802 -1 2 1 -1 -2 -1 -1 -2
1532261110404782 -2 -1 -1 0 -2 0 0 -1
1532261110479582 0 -2 -1 0 1 0 -1 -4
1532261110547401 -2 0 0 0 -3 0 0 -3
1532261110668078 0 -1 -3 -1 -2 -2 -1 1
1532261110696011 -2 0 -1 -1 -3 0 -2 2
1532261110733902 -1 -1 0 -2 -3 -1 0 3
1532261110780777 2 0 -1 0 -2 -3 -2 -2
1532261110817678 -2 0 -1 -3 0 1 -3 -2
1532261110939353 -1 0 -2 -1 0 -3 0 1
1532261110958302 0 -1 0 1 -1 0 -2 -4
1532261110982239 -2 -1 -2 -2 -1 -1 -1 0
1532261111094937 -2 0 0 0 -1 -1 0 -1
1532261111170734 -2 -1 0 0 0 2 -1 0
1532261111193673 1 -1 -1 -1 -4 -37 1 1
1532261111229577 -1 -2 -3 0 -11 4 -7 -3
1532261111252515 -4 -4 -6 -11 -17 -16 -3 -3
1532261111328313 1 -3 -8 -2 -10 0 11 4
1532261111403113 6 -1 -2 3 14 -9 -3 11
1532261111427048 0 3 0 1 -14 -21 14 -4
1532261111467939 -9 -3 -2 2 15 3 -1 8
1532261111506856 7 1 -2 0 -13 -16 0 -33
1532261111520819 7 3 1 -1 1 2 13 2
1532261111551737 -6 -3 -1 -1 -2 10 5 3
1532261111566696 9 0 -1 0 7 14 -12 -4
1532261111663438 -6 -1 -1 -6 -10 11 2 18
1532261111704329 8 0 1 -1 -5 -15 -8 16
1532261111724275 13 5 2 6 22 31 4 5
1532261111771149 -55 -16 -6 -4 -5 -71 -5 -26
1532261111792094 0 -9 8 5 -4 14 10 -4
1532261111821017 -11 13 10 0 10 8 -4 16
1532261111913778 3 -1 -2 -2 1 -2 1 7
1532261112001534 2 0 0 -1 -5 -7 0 1
1532261112025470 -2 -1 -1 2 7 -15 1 -2
1532261112106253 4 5 0 -1 -8 -2 0 -2
1532261112131187 -3 -1 1 6 7 26 -11 -1
1532261112148141 -15 -5 0 1 -14 3 6 2
1532261112255853 -1 5 11 18 3 20 5 -1
1532261112281784 0 -2 0 -9 -45 -8 6 0
1532261112302744 4 7 0 2 -38 48 3 -1
1532261112341625 -3 -4 -2 0 6 -18 -2 -1
1532261112362569 -6 1 2 -1 -2 -6 -12 -2
1532261112383512 -2 -1 0 -3 0 -8 -3 -6
1532261112640824 -2 0 -2 -3 -1 -3 -3 -8
1532261112677726 0 -1 0 0 3 1 0 0
1532261112768483 -2 -1 -1 1 -2 -2 0 -1
1532261112790424 1 -1 0 -1 2 1 -1 -2
1532261112897147 -4 -2 -3 -2 0 -2 0 1
1532261112940035 0 1 -1 0 -3 -2 -1 -5
1532261112963971 1 0 -2 1 -1 -2 -2 -2
1532261112977922 -2 0 -3 -1 0 -2 -1 0
1532261113007843 1 -2 -1 -1 0 1 0 -3
1532261113043747 0 -2 0 -4 -2 -1 -1 -1
1532261113098618 -2 -2 -1 0 0 -1 0 -2
1532261113174397 -1 -1 -1 -2 -1 -2 -1 0
1532261113209304 0 0 0 -1 1 0 -1 1
1532261113239238 -1 -2 -2 0 -1 0 0 1
1532261113329981 0 -1 -1 -1 -1 0 -1 -1
1532261113390818 0 -2 -2 0 -3 0 0 1
1532261113435698 -3 -1 0 0 -1 -1 0 -2
1532261113462626 -2 -2 0 -1 0 -1 -2 -1
1532261113509501 0 0 -1 1 -1 0 0 -1
1532261113555379 1 -2 -3 -2 -1 -1 -2 -1
1532261113599261 -2 -2 -1 -1 -1 -1 1 -2
1532261113645139 -2 -1 -1 -3 -1 -1 -3 1
1532261113691016 -1 -1 -3 -1 -2 -1 0 -1
1532261113711960 -1 -1 -2 -1 0 -2 -3 -1
1532261113809699 1 0 -2 -2 0 1 -4 -1
1532261113968275 -2 0 1 0 -1 -1 2 0
1532261114006173 1 1 -2 -2 1 0 0 1
1532261114050056 0 -2 -2 -2 0 -1 0 -1
1532261114155773 -1 -1 -2 -2 -2 0 -1 1
1532261114268472 0 -3 0 -1 -1 0 1 0
1532261114275453 -1 0 -1 -2 -2 0 -2 -1
1532261114312354 -2 -1 -1 -2 -3 1 0 0
1532261114334296 -1 -2 -1 -1 0 -1 -2 1
1532261114372194 0 -1 -2 -1 0 1 -1 -2
1532261114385159 1 0 -2 0 0 -2 0 0
1532261114477912 0 -2 -2 0 -1 0 0 -1
1532261114545730 -1 0 0 -1 -1 -2 -2 -1
1532261114589613 -3 -1 0 0 1 -1 0 0
1532261114641474 -1 -1 0 -1 -3 1 0 -2
1532261114777111 0 -1 -1 1 -2 0 -1 -1
1532261114799053 -1 -1 -2 1 -1 0 0 -2
1532261114838946 -1 -3 -2 -1 -1 -3 -1 -1
1532261114859890 -2 -2 0 0 -2 -1 -2 -2
1532261115033426 -1 1 -1 -1 -1 0 0 -1
1532261115108226 -1 -2 -2 1 -1 -2 -3 -2
1532261115130167 -1 -2 -1 0 0 -2 -2 -1
1532261115152109 -1 1 -2 -2 -3 1 0 -2
1532261115241869 -4 -1 0 -1 -3 0 -2 -2
1532261115287746 -1 1 -1 1 0 0 -2 0
1532261115333623 1 -3 -1 -3 -1 -1 0 2
1532261115379501 -1 -2 -1 -1 -2 -2 -1 -2
1532261115497186 -2 0 -2 -1 -1 -1 -1 0
1532261115608892 -1 -1 1 -1 -1 -2 0 -1

1532261115655777 -3 1 -2 0 -2 -3 -2 -2
1532261115669725 -2 0 -2 1 -2 -1 -1 -2
1532261115715602 -1 -2 -1 -1 -2 0 -1 -2
1532261115753501 0 -3 -1 0 1 -1 -1 -2
1532261115796420 -2 0 -1 0 -2 0 0 1
1532261115866233 -1 0 1 0 -1 0 1 0
1532261115871220 -2 -2 -3 -1 -1 -1 -1 -1
1532261115911114 -1 -1 -1 -1 -1 -1 0 -2
1532261115953998 -1 -1 -2 -1 2 1 1 -1
1532261116021830 0 -2 -3 -2 -4 3 -2 -1
1532261116065700 -2 -1 -2 -4 -11 -6 0 -1
1532261116097615 -1 -1 -4 -1 1 2 0 -1
1532261116210313 -2 0 8 31 0 -14 -2 -1
1532261116247214 2 1 -2 3 7 -12 -3 2
1532261116284116 2 -2 -6 -9 -21 -8 -2 1
1532261116328996 -2 0 -2 3 6 6 1 0
1532261116425737 -1 -3 -9 -6 -18 -5 -1 -2
1532261116445684 -1 1 -3 -7 -12 6 1 -2
1532261116778828 -1 -2 -3 1 -5 1 0 0
1532261116817724 2 0 -1 -8 -7 6 2 0
1532261116833681 -1 -2 -2 20 13 -1 0 1
1532261116898508 -1 -2 2 0 2 -4 -2 -1
1532261117021180 -1 0 1 -1 3 -7 1 -1
1532261117043121 -4 1 0 -1 -2 -2 -1 -9
1532261117058085 -1 -4 -1 1 -1 0 -3 5
1532261117079041 -2 1 -3 1 0 0 0 -1
1532261117101964 -2 -2 0 -1 1 1 -1 1
1532261117335340 -2 1 0 -1 -3 -3 -4 -2
1532261117350300 -2 -3 0 -4 0 -1 -6 -25
1532261117580684 -1 -2 -2 -1 -1 0 0 -7
1532261117605617 1 1 0 1 1 -1 -1 -15
1532261117634540 3 2 6 11 -9 1 0 1
1532261117681414 0 0 -2 -2 12 33 1 -1
1532261117831014 1 -1 1 11 30 -1 -3 -2
1532261117836998 -2 -1 -3 -3 2 -1 0 -2
1532261117873900 -2 1 -2 -1 -3 -11 -14 -1
1532261117892849 0 1 -1 -1 -2 -7 -5 -1
1532261117904817 -1 -1 1 -2 -4 0 -2 -2
1532261117926758 -4 -2 0 0 -1 -5 -11 -2
1532261117956678 1 -1 -2 -2 -2 27 -6 -1
1532261117975628 -3 -3 0 0 -2 -8 3 1
1532261118003553 -1 1 -1 -1 -2 -9 3 -1
1532261118083339 -2 -3 0 -2 0 -5 -2 0
1532261118115255 0 0 -1 0 -1 -9 -1 0
1532261118131212 0 -2 -3 -1 -1 -3 -1 -2
1532261118158140 -1 0 -1 -3 -2 -1 0 -1
1532261118182075 -1 1 -1 -2 0 -2 -3 0
1532261118226956 0 -1 -1 0 0 -1 0 -3
1532261118249894 -1 0 -2 -1 -2 -5 -1 -2
1532261118272833 -3 0 -2 -1 -1 -2 -2 -2
1532261118370571 -3 -4 -2 -4 -4 -3 -3 -3
1532261118385532 -1 -3 -3 -5 -2 0 -1 0
1532261118446368 -1 -1 -2 1 -2 -1 -3 -1
1532261118458337 -1 -1 -6 -1 0 -5 1 0
1532261118470305 -2 -2 -3 -5 -3 -5 -8 -1
1532261118482273 -1 -3 -4 -10 -10 -11 -3 -1
1532261118505234 -1 0 -1 -4 -10 3 -2 -2
1532261118549094 -1 -1 -3 -3 3 2 0 1
1532261118615915 0 2 -3 -3 -10 -19 0 -3
1532261118724634 -3 -2 -3 -6 -9 -1 -5 -3
1532261118729611 -3 -1 -4 -2 -8 -7 3 -1
1532261118746574 0 -2 0 -2 -3 -17 1 -2
1532261118782470 -2 0 0 -2 -8 -1 -3 -1
1532261118810395 1 1 -2 -1 3 13 6 1
1532261118834336 1 -1 -1 -1 -3 20 -3 -2
1532261118875222 -1 -1 -3 0 -1 -4 0 0
1532261118962987 -2 -2 1 -2 -3 -2 -1 0
1532261118992908 -2 -1 -3 0 1 -2 0 -2
1532261119038785 -2 -2 -2 -1 -2 2 -1 -2
1532261119058731 -2 0 -1 -1 -3 -1 -8 -1
1532261119104609 -1 -1 -2 0 -1 -2 0 -3
1532261119246246 -2 -1 -1 -3 -1 -1 -2 -1
1532261119280139 -2 -2 -1 0 0 1 0 0
1532261119301083 -1 0 0 0 -2 -2 -1 1
1532261119365910 -2 0 0 -1 -1 -1 -1 -1
1532261119455686 1 -2 1 0 -1 -2 -1 0
1532261119496560 -2 0 0 -1 1 -4 1 -1
1532261119555403 -3 0 0 -1 -1 -1 1 -3
1532261119568369 0 -1 -2 -1 -3 0 0 -1
1532261119577344 -3 -1 0 -1 0 -3 -1 -2
1532261119603278 0 -2 -1 -2 0 1 -2 0
1532261119645162 0 -1 -1 -1 -1 -2 -1 0
1532261119796758 -2 -1 0 -1 -1 -1 0 -2
1532261119835654 0 -1 -1 -1 -2 1 -1 1
1532261119855601 -1 -1 -1 -3 -2 -1 0 -2
1532261119871557 -2 0 -2 0 -1 -1 -1 -2
1532261119921424 -3 0 -2 -3 0 -2 -1 -1
1532261119946357 -2 0 0 -1 0 -1 -1 -2
1532261119959323 0 -1 0 -1 -1 -3 -2 -1
1532261120050080 1 -2 0 -2 -1 -1 -2 1
1532261120109920 0 -2 -1 -1 -1 -1 -3 -1
1532261120133856 -2 -2 -2 -1 1 0 0 1
1532261120177739 -1 0 -2 -1 1 0 0 -2
1532261120423083 -1 -1 -1 -2 -1 -3 7 -1
1532261120475941 0 0 2 2 -1 0 2 -1
1532261120680395 0 -1 -1 -1 -1 0 -3 -1
1532261120695355 -2 -2 -2 -1 -1 -1 -1 0
1532261120747216 -1 0 0 -2 0 0 -1 -2
1532261120941696 -1 -1 0 -1 -1 1 1 1
1532261120981599 -2 -1 -2 -1 -2 -4 0 -2
1532261121026480 0 -1 -2 0 -2 -1 -1 0
1532261121099274 -2 -3 -3 -1 -1 1 0 -1
1532261121161109 -2 -1 0 -1 -5 -18 -2 -2
1532261121204992 -1 0 0 -2 -3 0 -1 -1
1532261121242891 -4 -7 -17 -31 -16 -11 2 -1
1532261121512171 0 -1 -2 7 14 0 3 -1
1532261121521146 -2 -4 0 -12 -15 -6 -11 -2
1532261121559046 22 5 6 1 15 -2 -6 32
1532261121760507 22 1 -3 0 16 -11 -10 14
1532261121775467 8 -4 -3 -3 -15 10 -3 9
1532261121857248 3 -3 -3 2 -5 -9 -2 -14
1532261122037765 -6 -1 -4 -1 -5 -10 -2 2
1532261122059706 -1 -4 -1 -3 -4 -37 1 1
1532261122104587 -1 -4 -1 -12 -18 16 -3 -2
1532261122294080 -1 -6 -3 -6 -21 -28 -1 1
1532261122316021 -1 0 -1 -6 -15 -25 3 -2
1532261122329984 -3 -6 -2 2 15 94 11 1
1532261122359909 -4 -4 -1 4 24 1 3 -4
1532261122413760 4 5 8 20 32 -6 1 4
1532261122458639 -5 -11 -4 -13 10 -12 -8 -1
1532261122614224 -3 -4 -4 -6 -4 6 2 0
1532261122697002 -1 -1 -1 -3 -3 11 0 -1
1532261122721936 0 0 -1 -1 -1 -20 -6 -2
1532261122757839 -1 1 0 0 3 7 1 -1
1532261122885498 -3 -2 -1 0 -2 0 -3 -2
1532261122937360 -3 -6 -4 1 1 3 -3 -1
1532261122966282 -2 -4 -3 0 0 3 2 -1
1532261122990218 -1 -1 0 -1 -3 -2 -1 -1
1532261123033103 0 1 0 -4 -3 -5 0 -2
1532261123102935 0 0 0 1 -2 -6 1 1
1532261123126853 0 -2 -5 -1 -2 -7 -4 -1
1532261123148794 -1 -1 -1 -1 0 5 -2 -1
1532261123175721 -2 1 2 3 -1 -3 -3 0
1532261123222597 -1 -3 -2 -2 0 -1 -4 -2
1532261123244538 -2 2 -2 -2 -3 -2 -1 -1
1532261123381173 -4 -5 -1 -1 -1 -1 -1 -4
1532261123402117 -2 -1 0 -2 -2 -6 -1 -2
1532261123441013 -2 -3 -1 -1 0 0 -1 0
1532261123446996 1 -1 -1 -1 -1 -2 1 1
1532261123461957 -1 -2 -4 -2 -3 2 -1 1
1532261123484895 -1 -1 -1 -1 0 -3 -2 1
1532261123515813 -2 -2 -1 -1 0 -2 -4 -2
1532261123718270 -1 0 -1 -1 -2 -3 0 -2
1532261123726264 -1 0 -1 -3 0 0 -2 2
1532261123783098 -1 -2 -1 -2 -1 -1 0 -2
1532261123818005 -2 -1 -2 -1 0 -2 1 -1
1532261123891807 -1 -1 0 -1 -2 -2 0 -1
1532261123936687 -1 -1 -2 0 -2 -2 -3 -1
1532261123980570 -1 -1 -2 -4 -1 -2 1 1
1532261124016474 -3 -2 -3 -2 -1 -1 1 0
1532261124053375 -1 -1 -2 0 -2 -3 -3 -1
1532261124076314 -1 0 0 0 -2 -1 2 -1
1532261124101257 0 0 -2 0 0 -2 -2 -1
1532261124174052 -2 0 0 -1 -2 -1 0 1
1532261124256830 -1 -2 -2 -3 0 -2 -2 -2
1532261124316671 1 0 -1 0 -1 -2 -1 -2
1532261124378506 -2 -4 -2 0 0 -3 -1 1
1532261124446340 0 1 1 1 0 2 1 0
1532261124536084 1 -1 -3 -2 0 1 -1 -1
1532261124549050 -3 -1 -3 -3 -2 -1 -1 -2
1532261124556031 0 -3 -2 0 -1 -3 1 -1
1532261124615870 -3 -4 -3 0 0 -1 0 -1
1532261124653770 -1 1 -3 -1 -2 -1 -2 -2
1532261124766468 -1 -2 0 -2 -2 2 -3 0
1532261124830297 -2 -1 -3 1 1 -1 -2 -2
1532261124887148 0 -3 -1 -2 -1 0 -1 -2
1532261124911082 -1 -2 -1 -2 0 0 -1 1
1532261124939006 0 0 -1 -1 -3 -2 -1 -2
1532261125088607 -1 -2 -1 0 -1 -1 -2 -2
1532261125107556 -1 1 -1 -1 -1 -1 2 0
1532261125126506 -1 -3 -4 -2 -1 0 -2 -1
1532261125158420 0 1 0 0 -3 -1 -4 -2
1532261125171385 -1 -1 -1 1 0 1 -2 1
1532261125201305 -1 0 -2 -4 0 2 -1 -3
1532261125322980 -3 -2 -1 -1 -2 1 0 1
1532261125345918 -3 -1 -2 0 -1 0 0 -1
1532261125369861 0 1 -3 -2 -1 -3 -2 -1
1532261125383833 -1 0 -1 0 -3 -2 0 -1
1532261125419721 -1 -2 -3 -3 -1 -3 -1 -1
1532261125449641 -1 -2 -4 0 1 -2 -2 -2
1532261125480560 -2 0 -1 -1 -1 -1 -2 0
1532261125532420 -2 -1 -3 -3 -2 -1 -2 -2
1532261125576303 0 -2 1 -2 0 -2 -2 -3
1532261125624175 0 -3 -2 -1 -2 1 0 0
1532261125647113 -1 0 -2 0 0 1 -2 -1
1532261125690014 0 -2 -2 -1 -2 1 2 -1
1532261125695983 -2 -1 0 -1 -1 0 -2 0
1532261125734879 0 0 -1 1 1 -2 -3 0
1532261125764798 0 0 -1 -3 -3 0 -2 -2
1532261125809679 1 -2 -4 -2 -2 -2 -4 -1

1532261125907417 -1 -1 -3 0 0 -2 -1 0
1532261125922377 -4 -1 0 -2 0 -2 -3 -2
1532261125937337 1 1 -1 0 -1 1 -1 -1
1532261125967257 -1 0 -2 -2 -1 -2 -3 -2
1532261126014132 -1 -3 0 -1 0 0 0 0
1532261126019118 0 -1 -2 -2 -1 0 -1 1
1532261126100900 -1 -1 -1 0 -3 0 0 0
1532261126154755 -3 -1 -1 -1 -1 1 0 -2
1532261126176696 -1 0 0 0 -1 1 0 -1
1532261126200634 1 -2 -2 -1 0 -2 -2 0
1532261126214596 1 -3 -1 0 -1 -2 -3 1
1532261126244516 0 0 -4 1 -2 -2 -3 0
1532261126274435 1 0 -1 0 -1 -2 1 0
1532261126312335 -2 0 -2 -1 0 0 -2 0
1532261126342254 0 -1 0 1 -1 -1 0 -2
1532261126410073 -2 -3 -1 -2 -1 -1 -1 -1
1532261126453955 -3 1 -1 -1 0 -1 -1 -2
1532261126477892 -1 0 -1 -2 -1 -1 -3 -1
1532261126492851 0 -1 -2 1 -3 -1 0 -2
1532261126544712 0 0 0 -2 -3 0 -1 0
1532261126604553 -1 0 -2 1 -1 -1 1 -1
1532261126618516 -2 -1 -1 -2 -2 -3 -1 -1
1532261126687331 -1 -1 -2 -1 0 -1 -2 1
1532261126771107 -2 0 0 -1 -1 -1 -1 -1
1532261126776094 -1 -2 0 -1 -1 -1 0 0
1532261126813993 -1 -1 -2 0 -2 0 0 -2
1532261126851891 -2 -1 0 0 0 -2 -2 0
1532261126866851 -1 -2 -1 0 0 -3 -2 -1
1532261126919711 0 0 -1 -1 -2 -1 0 -1
1532261127009469 -2 -1 -1 -1 0 0 -2 -1
1532261127032422 -1 -2 1 -1 -1 0 0 0
1532261127046372 -2 -1 -1 -1 -1 -1 -1 -1
1532261127061331 -1 -1 -1 -1 -1 -2 0 -2
1532261127084270 -1 -1 -1 0 -2 0 -1 0
1532261127107209 0 -2 0 -2 -2 -2 0 0
1532261127175027 -1 -1 -3 -1 0 0 -1 0
1532261127205945 0 -1 -3 -2 -1 -1 0 -1
1532261127219908 -1 -2 -1 -1 -2 0 -1 -3
1532261127266782 -2 1 -1 -1 -2 -1 0 -1
1532261127288724 -1 -1 -3 0 0 -1 -2 -2
1532261127309667 -1 -1 -1 -2 -1 0 -1 0
1532261127346569 0 0 0 1 -2 -2 0 -1
1532261127369512 -1 -1 -1 -1 1 -1 0 0
1532261127406409 0 -2 0 -1 0 -1 -1 -2
1532261127476222 0 -1 -1 -2 -2 -3 0 1
1532261127521102 -2 -1 -3 -1 -1 -1 0 -3
1532261127543043 -2 -2 0 0 -2 1 1 -1
1532261127566979 0 -1 1 0 1 -1 1 -1
1532261127571966 -1 -1 0 -1 -1 -2 -1 -1
1532261127609870 1 -2 0 -1 -1 -2 -2 0
1532261127646770 0 -1 -1 -2 -2 0 0 1
1532261127706606 -1 0 -1 1 0 -1 -3 0
1532261127866179 -1 -1 0 0 -2 -1 -1 -1
1532261127878147 0 0 -2 -1 -3 -1 1 -2
1532261127931006 -1 -2 -1 -1 0 -1 0 -1
1532261127968905 -1 1 -1 -1 -2 0 0 -1
1532261128158398 -1 0 -2 -2 1 -1 0 0
1532261128210259 -3 0 0 0 -1 0 -1 -1
1532261128224235 -1 -1 -1 -2 -3 -1 0 1
1532261128373821 -2 -3 -1 0 -1 0 -1 0
1532261128609193 1 -1 0 -1 -1 -1 -2 -3
1532261128697955 0 -1 0 0 -2 -2 -2 0
1532261128952275 -1 -4 -2 0 -2 1 -1 0
1532261129163709 -2 -1 -2 -17 -24 2 2 -2
1532261129208589 2 1 6 10 8 0 3 2
1532261129230531 -2 -6 -16 -50 6 5 -7 -3
1532261129253470 -1 -3 -2 -13 -30 -10 -3 -1
1532261129267432 -1 -2 -3 -6 -5 1 13 5
1532261129288385 -4 3 -1 4 25 6 15 0
1532261129312312 -2 1 0 -5 -5 7 -3 -2
1532261129380131 -7 -12 -2 4 0 2 4 11
1532261129395091 8 1 3 -4 -17 -13 -13 -13
1532261129418029 -25 -6 1 -1 -4 -7 -9 -7
1532261129476872 -2 -3 -3 -10 -18 15 1 -17
1532261129544691 2 2 -1 -1 -2 1 -1 10
1532261129566632 1 1 1 0 -7 -23 -22 -4
1532261129673347 8 -1 1 -1 5 -35 -1 19
1532261129756133 -27 5 4 1 -7 5 6 16
1532261129823944 5 -2 -2 -2 -6 -2 -7 -14
1532261129836909 16 7 0 -3 -51 -12 -4 16
1532261129885778 36 -2 -6 -6 2 1 -3 -62
1532261129925672 -37 32 12 7 4 -4 7 16
1532261129958584 -14 -17 -11 1 14 22 -28 4
1532261129995485 3 13 10 0 1 -4 7 -9
1532261130017427 -21 1 1 -3 -7 13 -11 -31
1532261130039368 7 1 -5 0 6 2 1 -9
1532261130062307 5 0 -1 0 0 -4 2 1
1532261130084248 7 3 2 -1 3 11 0 6
1532261130090232 -1 2 1 -1 -3 -8 0 0
1532261130145085 -2 -2 -2 -1 -2 -8 1 -1
1532261130161043 -2 -2 1 -2 -1 -5 0 0
1532261130182992 -2 -1 -2 -2 -5 -41 -1 0
1532261130210909 1 0 4 -2 -6 6 -5 3
1532261130248808 -6 0 -1 -5 -5 11 -5 -1
1532261130293687 1 2 8 29 -6 -17 1 3
1532261130348540 -3 1 1 14 22 -3 -10 -4
1532261130363501 -6 -4 -8 -7 -10 9 -5 -7
1532261130386440 -3 -1 -3 -10 -11 3 7 1
1532261130406387 -1 1 -8 -10 13 -20 -8 0
1532261130428328 3 3 1 1 12 34 6 2
1532261130444285 -3 -4 -7 -12 -58 -51 -8 -6
1532261130466227 1 1 3 8 6 19 2 -2
1532261130489170 0 -1 10 14 17 -15 1 1
1532261130527064 -4 -10 -11 -12 -11 -15 -3 -3
1532261130550999 -3 2 -8 -15 -17 -15 -7 -4
1532261130617826 0 6 0 1 -43 20 2 0
1532261130640760 -10 -11 2 -10 47 20 3 -9
1532261130652728 -5 -5 -2 -11 30 3 -4 -2
1532261130736503 1 2 3 -4 -43 10 -8 -2
1532261130790372 -2 -2 -1 4 0 -7 0 0
1532261130827261 2 -4 0 2 6 2 0 -2
1532261130903074 0 0 -1 0 2 9 2 0
1532261130920026 -2 5 4 2 6 -2 0 0
1532261130940957 -3 -5 -2 0 -8 -1 6 0
1532261130975863 -2 -1 -5 -4 1 -4 0 -1
1532261130992818 1 -4 -4 -4 2 -5 -1 1
1532261131050664 -3 -2 2 2 -2 3 7 -1
1532261131105517 -1 1 -1 0 -2 -7 -2 0
1532261131112498 -2 2 0 0 -1 -8 -2 -2
1532261131128456 0 3 -2 -3 -3 -2 -3 -1
1532261131175330 -1 -3 -1 0 -1 -3 0 -2
1532261131211235 1 0 -3 -5 -1 -23 -1 -1
1532261131218216 -1 1 0 0 -2 0 0 -1
1532261131239159 -2 1 -3 -3 -2 -6 0 -1
1532261131277058 0 -2 -1 -2 -1 1 -1 1
1532261131428653 -1 -3 1 0 2 0 1 0
1532261131449597 0 -2 -1 0 1 -3 -3 1
1532261131473533 -1 0 1 1 -2 1 1 -1
1532261131509437 -1 -3 0 1 -1 -2 1 0
1532261131595208 0 -2 -1 -1 -4 -3 0 0
1532261131703916 -2 -2 -2 0 0 -2 -2 -1
1532261131765752 0 -2 -3 -3 -1 -3 -2 -1
1532261131779714 1 1 -2 -3 -3 -5 0 0
1532261131816615 -1 -1 -2 -2 -2 0 -2 -2
1532261131839557 -1 1 -1 -1 -2 -1 -1 0
1532261131883437 0 0 1 -1 -2 0 -2 1
1532261131983170 -1 -1 0 -2 -2 -4 -2 -1
1532261132003117 -1 0 1 -1 -2 0 2 -2
1532261132033037 -1 -1 -2 -2 -1 -1 -2 0
1532261132046002 1 1 -2 -1 0 -2 -1 1
1532261132079911 -2 -2 1 -1 -2 -1 3 1
1532261132117810 2 -3 -1 -1 -2 1 -2 2
1532261132139752 0 -1 -1 -1 0 1 3 8
1532261132191613 2 1 0 2 0 -2 -1 0
1532261132238487 0 -1 -2 -1 -1 3 1 0
1532261132259431 0 1 -2 -2 -2 -2 0 2
1532261132319271 -1 -1 -1 -3 0 -1 -1 -2
1532261132387090 -2 2 -1 -4 -1 -1 2 3
1532261132477847 -2 -2 -3 -2 -2 -6 0 -1
1532261132560626 1 -2 -3 -2 0 -2 -2 -1
1532261132581570 0 -4 -1 0 -1 -1 -1 -8
1532261132595532 -2 -1 -1 -2 -2 1 2 8
1532261132619468 -3 0 0 0 -2 -1 0 -6
1532261132642406 0 -1 -1 -2 -1 -1 -2 -5
1532261132702246 -1 0 -2 -2 -1 1 1 -2
1532261132724188 -1 0 0 0 -1 -3 0 -4
1532261132753111 0 -1 -1 -1 -3 -2 1 -3
1532261132793021 -3 -3 0 1 0 -1 1 3
1532261132817938 -1 -1 -1 0 -2 -3 -1 -2
1532261132839879 -1 0 -1 -2 -1 -3 1 -3
1532261132860823 0 -1 -1 0 -2 1 -1 -1
1532261132895730 0 0 0 -2 -1 -1 0 -3
1532261132926647 -1 -3 -3 -1 -1 0 0 3
1532261132955569 0 -1 -2 0 2 -2 -3 -16
1532261132980511 -4 -2 -1 -2 1 -2 -1 -7
1532261132987485 2 0 1 0 -2 -1 -1 2
1532261133003441 -2 -2 1 0 -1 0 -2 -1
1532261133054305 -1 -1 -2 -1 0 1 0 -2
1532261133100182 -3 -1 0 0 0 -1 1 -3
1532261133115143 2 -3 -2 -2 -1 0 -2 -2
1532261133138088 -1 0 0 -2 -3 0 -4 -2
1532261133166007 -1 -2 -1 -2 -1 -3 0 1
1532261133249782 -3 1 0 -1 0 -2 0 -1
1532261133349516 0 0 -1 -1 -2 0 0 0
1532261133394396 -1 0 0 -1 0 0 -1 -1
1532261133399383 1 0 -3 -3 -1 -2 1 -1
1532261133429303 -3 -4 -2 -1 -2 -1 -1 0
1532261133482162 3 0 -2 0 -1 1 2 0
1532261133512082 1 0 -3 -3 -1 -4 -4 0
1532261133678636 1 -2 -1 -1 0 0 -2 -1
1532261133739489 -3 -1 0 0 -1 -1 -2 -1
1532261133745475 -1 -2 -1 -1 -1 -1 -1 -1
1532261133985815 -1 -2 -2 -1 0 -2 -1 -3
1532261133991799 -3 1 -1 0 -1 -2 -1 0
1532261134022716 -1 1 -2 -2 -1 -2 -1 0
1532261134044657 -3 -1 -3 -1 -1 0 1 1
1532261134089538 -2 -2 0 -1 -1 -2 -2 -3
1532261134156359 -1 -2 -2 -2 1 0 0 -2
1532261134210227 -2 -1 -1 -1 0 0 0 -2
1532261134228167 0 -3 -1 -1 -2 0 0 1
1532261134266066 -4 -1 2 1 -1 -2 -1 -2
1532261134270054 -2 -2 -1 -1 0 0 1 -2

1532261134411676 6 0 -2 1 -1 -1 0 0
1532261134541342 -1 -1 -3 -2 -1 0 -1 -3
1532261134548311 2 -1 1 0 -1 -3 -3 -2
1532261134561275 -2 -1 0 -2 -1 -2 -1 -3
1532261134607160 -1 -2 -1 -2 -1 -2 0 0
1532261134695915 1 -1 1 -2 0 -3 2 0
1532261134818588 -1 -1 -1 1 -2 0 -4 0
1532261134838557 -1 -2 -1 0 1 -1 -2 1
1532261134869451 -2 -2 -1 -1 0 0 -2 -2
1532261135065926 1 0 -2 -2 -1 1 -1 -1
1532261135096854 -2 -1 -1 2 -1 -1 -1 0
1532261135115794 -1 -1 -1 -1 0 0 -1 1
1532261135169649 -2 -2 -1 -1 -1 1 3 1
1532261135266390 -1 0 -1 0 -1 -1 0 -1
1532261135342187 -2 -1 -2 -1 -1 -1 -1 -3
1532261135359142 -2 -1 -2 -3 -3 0 -3 -5
1532261135394049 -1 0 -2 -1 0 0 -1 -1
1532261135500764 0 -2 1 -1 1 0 1 0
1532261135588535 -3 -1 -1 -2 -2 0 -2 0
1532261135652358 -1 -1 -3 -2 -2 0 0 1
1532261135670311 -2 -1 -2 -1 -2 -1 2 -1
1532261135688263 0 -1 1 -1 -1 -1 -1 -1
1532261135723169 -1 -3 -1 -2 -1 -1 0 0
1532261135753088 -2 0 -1 -1 2 -3 -2 -1
1532261135822902 -2 0 -1 1 0 -1 -3 -2
1532261135898699 -2 -1 -2 -1 -2 0 1 2
1532261135910667 -2 -1 -1 -1 -1 -2 -4 -2
1532261135928619 -2 -1 -1 -1 0 0 0 0
1532261135949563 0 1 -1 0 -1 -3 -4 -1
1532261135963526 0 -2 -1 0 -1 0 2 -1
1532261136078220 -1 -1 -2 0 -2 0 -3 -1
1532261136124097 -1 -2 -4 -1 -3 -1 0 0
1532261136211865 -1 -3 0 -1 -2 0 -3 -2
1532261136288657 -3 0 0 -1 0 -1 -2 -1
1532261136334534 -1 0 1 -1 -1 0 -2 -1
1532261136446246 -2 -2 0 0 -1 -3 -1 0
1532261136468177 -1 -3 -2 -2 0 -1 -2 0
1532261136512059 0 -2 -2 -3 1 0 -2 -1
1532261136526022 -1 0 2 -1 0 0 0 -3
1532261136760394 -1 -1 -1 0 0 -2 -2 -1
1532261136819238 0 -1 0 -1 0 0 -1 -1
1532261136844171 0 -1 0 0 0 -3 -1 1
1532261136955872 0 -1 -1 0 0 -2 1 1
1532261137001749 -1 0 -1 0 0 2 -4 0
1532261137040649 -1 0 -2 0 0 1 -2 -2
1532261137044635 -1 -1 1 2 1 0 0 -1
1532261137091510 -2 -1 -2 -1 -1 0 -2 -2
1532261137324886 1 -2 0 0 -1 -1 -1 -1
1532261137381734 0 2 -2 -1 0 4 0 2
1532261137444566 -3 -2 -1 0 -2 6 -2 -2
1532261137465509 1 1 0 1 4 30 6 1
1532261137532330 -5 -13 -5 -19 3 -20 -3 -4
1532261137579206 -5 -7 -2 3 11 7 3 -2
1532261137614112 -4 -2 2 -2 -4 3 -1 -5
1532261137636054 -1 -1 0 7 7 14 -1 0
1532261137673953 0 -1 -2 2 11 4 1 -1
1532261137795641 1 1 1 2 -1 -5 -3 0
1532261137863446 -4 -2 -2 -12 -7 5 -6 -14
1532261137886384 0 0 0 -5 -2 -6 4 9
1532261137953205 0 -6 -6 -10 -18 10 3 8
1532261137976144 -1 -2 -2 -2 6 -14 -8 -1
1532261138110784 -8 -2 -1 -5 -26 -15 -5 5
1532261138133722 -20 -2 -5 -1 11 1 -14 -40
1532261138149681 -1 0 1 3 1 10 2 -1
1532261138176608 -7 -3 -2 -5 2 -15 17 21
1532261138191568 -5 1 0 3 15 32 12 21
1532261138236448 10 -1 -2 4 7 -11 -3 11
1532261138275344 19 2 -5 -2 -9 37 10 -3
1532261138321221 -4 72 31 -14 -16 -20 1 -16
1532261138366101 -8 -45 -16 -3 -21 -8 -6 -22
1532261138388043 19 -3 -3 0 2 18 -13 5
1532261138410982 -4 -5 -2 0 2 9 1 -7
1532261138424944 15 13 5 4 4 -12 5 18
1532261138485781 -1 1 1 2 4 4 3 19
1532261138510714 -6 -4 -4 -1 4 6 1 -1
1532261138530661 3 -6 0 -1 -8 -4 2 -1
1532261138597483 6 5 4 3 3 -7 1 -4
1532261138642363 2 -2 -1 -2 -4 22 0 -1
1532261138665301 3 2 -2 2 -13 48 4 -3
1532261138749090 1 -1 1 8 -19 30 4 0
1532261138777003 -1 -1 -2 6 29 -6 -3 -5
1532261138830859 0 1 0 -2 18 -36 0 0
1532261138943558 -1 -2 1 9 -30 -8 3 1
1532261138964507 -1 -1 -1 3 22 25 -2 0
1532261138988438 2 0 3 0 21 -17 -14 -1
1532261139024350 -3 -3 -2 -1 -5 28 6 0
1532261139076202 -2 5 2 0 2 9 -4 -3
1532261139152000 1 -2 -1 -1 -2 2 -3 -3
1532261139197877 -1 -3 -2 -1 4 11 -1 -1
1532261139271681 -1 0 2 -2 0 -6 0 -1
1532261139317556 -1 -2 -1 -1 -3 3 0 -1
1532261139431253 -1 -2 -1 -3 -5 -2 -2 -1
1532261139436239 -1 -2 -4 -6 -2 3 0 -1
1532261139536983 -1 -3 -1 1 -2 -14 0 0
1532261139557914 -3 -1 1 2 0 -11 -2 0
1532261139586836 -1 1 -2 -2 -1 2 2 0
1532261139640692 0 -1 0 2 -6 -29 -2 1
1532261139661637 0 -1 1 0 2 6 -2 -1
1532261139684576 -1 -1 -3 1 -7 -9 -1 0
1532261139753392 0 0 -1 -3 1 9 0 -1
1532261139775332 -1 0 -1 1 -3 -10 -2 0
1532261139799270 -2 -2 -1 -4 -1 -2 -2 1
1532261139811237 -1 0 -2 -2 3 2 -4 -3
1532261139866090 -1 -2 1 -1 -2 -2 0 -3
1532261139888032 -2 -4 -2 -1 1 13 -1 -2
1532261139939907 -2 0 0 -1 -4 -5 -2 0
1532261140013696 -3 -1 -1 -1 6 7 -1 -2
1532261140032645 1 -1 -1 3 1 11 0 0
1532261140077525 0 -2 2 1 -1 0 1 0
1532261140090490 -3 -1 0 -2 -1 1 0 -1
1532261140099473 -2 -1 0 1 -1 0 1 -1
1532261140110437 -1 1 -1 -4 -2 -2 -2 0
1532261140144346 1 0 -3 -3 -2 -3 -2 0
1532261140173269 -1 -1 -2 -1 1 -1 -1 -2
1532261140210170 0 -1 0 0 -2 0 1 0
1532261140285968 1 -3 0 0 -2 -2 0 33
1532261140308906 1 0 -1 -1 -1 0 -1 -5
1532261140353795 5 0 0 -1 0 -2 -2 -3
1532261140389690 1 1 -3 -1 -1 0 -1 0
1532261140419610 1 1 0 1 -1 -2 -2 -16
1532261140455526 -3 -2 -1 1 0 1 0 -3
1532261140561231 -4 -1 -2 1 0 -2 -1 4
1532261140588159 -5 0 -1 0 -1 2 -2 4
1532261140632042 -1 -1 -1 -2 -1 -1 -1 0
1532261140646005 0 -2 -1 -3 -1 -1 1 11
1532261140674942 1 1 -1 0 -1 -1 -1 6
1532261140772666 -13 -3 -1 1 -1 -1 -2 -39
1532261140840485 15 -1 -1 -2 -1 1 -4 18
1532261140862426 -1 -3 -2 -1 -2 0 0 5
1532261140907306 -5 -1 -1 0 -3 -1 2 11
1532261141049924 1 -2 -2 -2 -2 -3 -1 7
1532261141141690 -1 -1 -2 -2 -2 -2 0 1
1532261141163620 -3 0 -1 0 1 0 0 -1
1532261141199524 2 -2 -2 -1 -2 -1 -1 16
1532261141258367 0 0 -2 -1 0 -1 4 40
1532261141304251 0 -2 -1 -1 -1 -2 -4 -17
1532261141349132 -4 2 -1 -1 -1 1 -1 -9
1532261141372080 -1 -2 -2 -1 0 -2 -2 -55
1532261141416950 1 -2 -1 0 -1 -2 -1 4
1532261141447868 -2 1 -2 -2 0 -2 0 -3
1532261141462828 -1 -1 -1 0 -2 0 -2 4
1532261141544609 2 -1 -1 -1 1 -2 -3 -5
1532261141605453 1 -4 -2 2 0 -1 -2 -8
1532261141695206 -5 -2 -3 -1 -2 -1 -8 -41
1532261141783969 -1 -4 -1 -1 -1 0 -2 -3
1532261141797931 0 -1 -1 1 0 0 1 0
1532261141865750 0 -1 -1 -2 -3 -1 -1 -7
1532261141951531 0 1 0 1 -2 -2 0 -1
1532261141994406 -1 -3 -2 0 0 0 3 1
1532261142017344 -2 0 -3 -1 0 1 -4 -5
1532261142054245 -1 -1 -2 -2 -1 1 -1 -2
1532261142113088 -1 -2 -1 -2 1 -1 -1 -6
1532261142273660 -1 1 -1 0 0 -1 -3 -5
1532261142526982 0 -2 -1 -2 -2 -1 -2 -1
1532261142588834 -2 1 0 -2 -3 -1 -1 -3
1532261142594801 1 -1 -2 -1 -1 -2 -1 0
1532261142624721 1 0 -3 -1 -2 0 -3 -1
1532261142646662 0 -1 0 -2 -2 -3 1 -1
1532261142654641 0 -2 -1 -1 -2 -2 -3 -1
1532261142760358 -2 -5 -1 -1 0 -1 -1 1

1532261142867082 0 -2 -1 0 0 0 -2 -1
1532261142871062 -1 1 0 0 -1 -2 -1 -2
1532261142911953 0 -3 -2 -1 -3 2 -1 0
1532261142932897 0 -1 0 0 0 0 -3 -2
1532261143105436 -1 -1 -1 -3 -1 -3 0 2
1532261143129371 -2 -2 0 -3 0 -1 0 0
1532261143143334 -1 -1 -1 -1 0 0 0 0
1532261143172256 0 1 -2 0 -1 -2 1 -2
1532261143275987 -2 -2 -1 -1 -2 0 0 -1
1532261143339817 -2 -4 1 0 1 0 3 4
1532261143367743 0 0 0 -1 0 -2 -2 -3
1532261143407635 0 -2 1 0 -1 0 -1 0
1532261143422595 -1 0 0 -1 -1 -3 -2 -1
1532261143449523 -1 -2 0 -1 1 0 0 -3
1532261143502381 -2 -4 -2 0 -2 0 -1 -2
1532261143525321 0 -1 -1 -1 0 -2 -2 0
1532261143547262 -1 0 -4 -1 -1 -2 -2 -1
1532261143616078 -1 1 0 1 -1 -2 -3 0
1532261143639017 0 0 -1 -1 1 1 -2 -1
1532261143661955 1 1 -1 -3 1 -2 -1 1
1532261143667939 -2 -3 -1 -2 -2 -3 -1 -1
1532261143696862 -2 -1 -3 -1 -1 0 -2 -3
1532261143719800 -1 -1 -3 0 0 0 0 -2
1532261143749721 -1 -1 -1 -2 -2 -2 0 0
1532261143817539 -1 -2 -2 -2 -1 -1 -3 -3
1532261143850451 0 -1 0 -1 -2 -3 -2 -2
1532261143892339 -2 -2 -1 -1 -2 -1 -1 1
1532261143939249 -1 -1 1 -1 -3 -2 -1 -1
1532261143961189 0 -1 -1 -1 0 -2 -1 -1
1532261144004076 1 -1 -3 -1 0 -1 -3 -3
1532261144049966 0 -1 -1 -2 1 -1 -1 -1
1532261144079871 0 1 -2 0 -1 0 0 -1
1532261144127743 0 -2 -2 -1 -1 0 0 0
1532261144193567 -2 -2 -1 -1 0 0 -2 -1
1532261144253408 0 -2 0 -1 1 -1 1 0
1532261144297289 -1 -1 -1 -2 -2 -3 -2 -2
1532261144312250 0 -1 0 0 0 -1 0 1
1532261144408991 -1 -1 -1 -2 -2 -1 -3 -2
1532261144493769 -1 1 -2 1 -1 -1 -1 -2
1532261144530666 -1 -1 0 0 -1 0 -1 -1
1532261144537648 0 0 1 -1 -1 -1 2 0
1532261144574548 -4 -2 -3 1 -2 -1 2 2
1532261144641370 -1 -1 0 -1 -3 -1 0 -1
1532261144657327 -2 2 -2 0 -2 -2 1 0
1532261144702218 0 -2 -1 -1 1 0 1 1
1532261144771023 -2 0 -2 -1 -1 -1 -1 -2
1532261144777007 -1 -3 -2 -1 0 -1 -2 0
1532261144793962 -3 -2 -1 -2 -3 0 -1 -1
1532261144813908 1 -1 -2 -1 -1 -3 0 -1
1532261144881727 -2 -1 0 0 -2 -1 0 0
1532261144911647 -1 1 -1 -3 0 0 -1 -1
1532261145025343 -1 -2 -1 -2 -1 -1 1 -1
1532261145048282 -1 -2 -2 -1 0 -1 0 1
1532261145099146 0 -1 1 0 0 -2 -2 -1
1532261145165967 -1 -1 -2 -1 -1 -2 0 -1
1532261145236778 -2 -2 -1 0 1 -1 -2 -3
1532261145346484 -1 -2 0 -1 0 -1 0 -1
1532261145364437 -1 0 0 -3 -1 -2 -3 -4
1532261145475140 -2 -1 0 0 1 0 -1 -1
1532261145503065 -1 -1 -1 0 -2 -1 -1 0
1532261145537988 -2 -3 0 -2 0 -2 -2 0
1532261145603796 0 -2 0 0 -2 -1 1 0
1532261145625738 0 -1 -1 0 0 0 0 -1
1532261145661641 1 0 -1 -1 -3 0 0 -1
1532261145676601 -1 -1 0 0 1 -1 0 -1
1532261145713503 -1 0 1 0 1 -1 0 -2
1532261145767359 1 -1 -1 0 -3 -1 0 -2
1532261145844154 -1 0 -2 -2 1 -2 -2 0
1532261145857119 0 -2 -2 0 -2 0 0 0
1532261145889044 -1 0 -1 -1 -1 -3 -1 -3
1532261145917956 1 1 0 -2 0 -3 -2 -4
1532261145939898 0 -2 0 -1 0 -2 -3 -2
1532261145984777 -3 0 -3 -1 -1 -1 0 0
1532261146029657 3 1 -1 0 -1 -1 -3 -4
1532261146179258 -3 0 0 0 -1 -1 0 -2
1532261146198206 -3 -2 1 0 0 -1 -2 0
1532261146225135 0 -2 0 -3 -2 0 -1 1
1532261146247076 0 -1 1 -2 -2 -1 -1 0
1532261146277994 -2 0 -2 1 -3 0 2 1
1532261146316889 -1 -1 -1 -2 -1 -3 -3 -2
1532261146368751 -1 -1 -2 -3 1 0 0 -3
1532261146457514 -3 -3 0 -2 -4 3 -3 0
1532261146472473 -4 -4 -4 -26 -15 24 -4 -4
1532261146493417 4 2 5 12 12 -5 12 4
1532261146578191 2 -2 2 1 -11 2 4 2
1532261146690889 -1 1 -2 1 3 0 4 1
1532261146713827 -10 -5 0 -1 -11 -5 -4 -5
1532261146749742 2 -1 0 -5 -13 3 7 -2
1532261146795609 -2 7 3 -5 -13 -16 -5 6
1532261146877390 6 -6 -6 -11 -17 7 3 -67
1532261146968147 4 2 4 4 4 -15 -8 -4
1532261146991086 -4 -3 -1 -2 -2 -27 2 19
1532261147013027 12 0 -2 -3 1 13 -14 5
1532261147178584 1 -1 -3 -1 9 1 -9 -7
1532261147267347 4 -9 -7 -9 6 18 -10 30
1532261147305247 14 11 -2 -3 -11 21 -1 46
1532261147365086 37 -14 -8 -4 1 -90 -11 10
1532261147409967 23 -10 -9 -7 21 23 -9 -2
1532261147439887 14 -15 -5 -4 2 6 -3 0
1532261147478782 15 5 -1 -2 -10 -3 -5 -7
1532261147499726 4 -2 1 2 -1 -1 -4 8
1532261147550590 -4 -3 -2 1 8 4 3 5
1532261147597465 -3 -2 -1 -2 -5 -7 -3 -2
1532261147620404 1 0 0 0 -2 -3 -1 -6
1532261147664286 5 4 -2 0 3 1 -2 -2
1532261147687225 1 5 8 5 18 14 0 2
1532261147793956 7 5 2 10 15 52 -6 0
1532261147823860 1 -4 -3 6 -4 -8 -2 0
1532261147851784 -4 -14 -5 -7 -21 -13 -7 0
1532261147888686 1 -4 -3 3 26 22 6 3
1532261147911625 3 7 -5 7 4 14 4 2
1532261147964484 -3 -7 1 2 18 0 -10 0
1532261148016345 -1 2 5 19 -31 -17 6 0
1532261148102128 -5 -1 2 1 7 25 13 -2
1532261148136025 -2 1 7 9 -1 -6 -3 0
1532261148181902 -5 -7 -6 -1 17 -8 -2 -4
1532261148423257 -1 1 2 -1 1 -5 -3 -2
1532261148437219 -1 -4 -5 -2 12 15 0 -3
1532261148459160 -2 2 1 5 13 -3 0 -1
1532261148525982 -1 -2 -2 -3 -2 -2 0 -2
1532261148693534 -1 12 6 3 25 -19 -1 -2
1532261148700515 0 -3 -3 -3 -10 3 0 -1
1532261148729438 -1 -1 0 1 0 2 -2 1
1532261148752376 -1 1 0 0 4 2 0 0
1532261148806232 1 0 -1 1 -3 -5 -3 0
1532261148953837 -1 2 0 -3 -3 5 0 0
1532261148992734 0 -1 -1 -2 -7 -5 0 -1
1532261149022654 -1 -1 0 0 6 0 0 0
1532261149128371 -1 -1 0 -3 -5 0 -1 -2
1532261149165272 -3 -4 -1 -1 0 -10 -1 -2
1532261149212147 0 -2 -2 -2 -5 0 1 -2
1532261149248051 -4 -2 -2 -1 -4 -6 0 -1
1532261149267998 -2 -1 -2 -1 -2 -1 1 0
1532261149290937 -1 0 -4 -1 -3 1 -3 1
1532261149312878 -1 -1 0 -1 -1 2 -1 -1
1532261149350776 0 0 -3 -1 -1 -1 -1 1
1532261149428568 -1 -1 1 -2 -2 1 -2 -1
1532261149466471 -2 -1 -1 1 1 0 -2 -1
1532261149486413 -1 -4 -3 -1 -1 -3 0 -2
1532261149553235 -2 -1 -2 -1 -2 -2 -2 -1
1532261149584152 1 1 3 1 1 -1 -1 -2
1532261149695853 -1 -1 -1 -2 1 0 -2 1
1532261149764669 -2 -2 -3 -3 -1 -1 0 1
1532261149790601 0 -1 -1 1 -1 0 -2 -1
1532261149804563 -2 -2 -3 -2 -1 0 -1 -2
1532261149854429 -2 -1 -3 -1 -1 2 0 1
1532261150041928 2 -2 1 -1 0 -2 -1 -3
1532261150065865 -17 -4 -3 -1 -2 -1 0 -3
1532261150079827 -1 -1 0 -1 -1 -1 -4 -1
1532261150109747 0 -1 -1 -1 -2 -1 1 -1
1532261150132685 1 0 -2 -1 -1 1 1 0
1532261150137672 -1 3 -1 0 1 -1 -1 0
1532261150169587 1 2 1 -2 -2 1 -2 0
1532261150228429 0 -1 -1 -3 -2 -2 -1 0
1532261150343122 1 0 -1 -1 0 1 -3 1
1532261150358082 0 0 -2 -3 -2 -1 -2 -2
1532261150393987 0 4 -2 -2 -3 -1 -1 -2
1532261150409944 -1 1 1 -1 1 1 0 0
1532261150485741 -1 -4 0 -1 0 0 1 -1
1532261150575513 -2 -2 -1 0 0 0 -1 -1
1532261150640328 -1 -1 -2 0 -1 -1 -4 -2
1532261150664264 -1 -1 -1 -1 0 -2 -2 -3
1532261150687203 1 -2 -1 0 -1 -4 1 1
1532261150732083 -2 -1 -1 -2 0 -2 -2 0
1532261150747043 -1 -1 -2 -1 -1 -2 0 -1
1532261150785939 -4 -2 -2 -1 0 -1 1 1
1532261150829821 0 1 0 0 0 -1 -1 0
1532261150898637 1 1 -3 0 -3 -3 0 -1
1532261150914604 -1 2 3 0 -2 -1 -1 0
1532261150926563 1 4 3 -1 2 0 1 3
1532261150949501 1 4 0 -1 -2 -1 -2 -1
1532261150989395 -2 -4 -1 -3 -2 -1 -1 -2
1532261151017319 -2 -6 -5 -4 -3 -2 -2 1
1532261151038264 -1 -2 0 3 0 -2 0 -1
1532261151152957 -1 1 -1 -3 -1 -2 1 -1
1532261151190856 -1 -3 -2 -2 -3 -2 -1 -2
1532261151210803 0 -2 0 -3 0 0 0 0
1532261151222771 -2 -1 -4 -4 -2 -2 -3 -2
1532261151256680 -2 0 1 0 0 -3 -1 2
1532261151270643 -3 -6 -1 -1 -1 -3 -2 -1
1532261151368381 0 2 -2 2 -2 1 1 1
1532261151455149 -2 -1 0 -2 0 -1 -2 -1
1532261151469112 -3 1 0 -1 -1 -2 0 -2
1532261151503021 1 -4 -1 0 -1 2 2 1
1532261151570840 -3 -3 -1 -1 -2 -1 0 -1
1532261151618728 0 -2 0 -3 0 -2 1 0
1532261151731411 0 2 -2 0 -1 -1 -1 1
1532261151753352 -1 -1 0 -1 -2 -1 2 -1
1532261151769308 -3 1 -1 -2 -2 0 0 1
1532261151797234 1 3 -1 1 -1 2 0 0

1532261151893976 0 -3 -1 0 -1 0 0 1
1532261151961801 0 -2 -2 -2 -2 0 0 0
1532261151986728 -1 -2 -1 -2 -2 2 1 1
1532261152051554 -1 -2 -1 -1 0 0 1 -1
1532261152073496 0 -1 -2 0 -1 -2 0 0
1532261152097432 -2 -1 1 0 -1 -2 -2 -2
1532261152127351 -1 0 -1 -1 -2 1 0 -1
1532261152173228 1 -2 -1 -2 1 -1 -2 -1
1532261152219106 -1 -1 -2 -2 0 -1 -1 -1
1532261152241048 0 -1 0 -1 -2 -1 -2 -2
1532261152265981 -1 -1 1 -1 0 1 1 0
1532261152435528 -2 -1 -1 0 0 -1 1 0
1532261152472430 -2 -2 0 -2 -1 -2 -2 -3
1532261152496381 -1 -1 -3 -1 -3 -2 -4 -2
1532261152518306 1 -1 0 1 -1 -1 0 0
1532261152579151 0 -2 -1 -1 0 -2 -2 0
1532261152637986 0 -1 -1 -1 -1 -3 -1 -1
1532261152659932 -1 -1 -2 0 -2 0 -1 -2
1532261152795565 -1 -2 0 -1 0 0 -3 -2
1532261152818503 1 -2 0 -1 -3 -2 -1 -1
1532261152841442 0 -2 -1 0 0 1 -1 -1
1532261152907266 -2 -1 0 -1 -2 -4 -2 -1
1532261152928210 -1 0 0 -2 -2 -1 0 -2
1532261153026946 0 1 -2 0 -2 -2 -2 -2
1532261153050881 1 0 -3 -2 0 -2 1 -1
1532261153095762 -1 -3 -2 -2 -4 2 0 -1
1532261153118701 -1 -1 -1 -1 -3 1 0 -1
1532261153132663 0 -2 -1 1 -1 -1 -1 0
1532261153154605 -1 -1 -1 -1 -1 0 0 -3
1532261153237382 -1 -2 -1 0 -1 0 -1 -1
1532261153328140 -1 1 -1 -2 -1 -1 -1 1
1532261153395961 -1 -1 -1 -1 -2 0 0 -1
1532261153469762 -1 -2 0 -1 -3 -1 -2 -1
1532261153483724 -2 0 1 -1 0 -1 -1 -1
1532261153543565 0 -1 -2 0 0 -1 -1 -1
1532261153626343 -1 -1 -1 -2 -1 0 0 0
1532261153653271 0 -1 -1 -1 0 -2 -1 -2
1532261153674223 0 1 -2 -2 0 -3 -1 -2
1532261153696157 -2 -1 -2 -1 -1 0 -2 0
1532261153717100 0 -1 0 -1 -2 -1 0 -3
1532261153754002 -2 -2 -2 -1 -2 2 -1 -2
1532261153776940 -2 -1 -2 -1 2 -1 2 1
1532261153843761 -1 -1 -2 0 -1 -3 -1 -2
1532261153930530 -1 0 0 -2 0 1 2 0
1532261153950477 0 0 -3 -1 -2 0 -1 -1
1532261153972419 -1 -1 1 0 -1 -2 0 -1
1532261154017297 -1 -1 -2 -2 -2 1 0 -1
1532261154070156 -1 0 0 0 0 1 1 -2
1532261154182855 -2 -1 1 -1 0 -1 0 -2
1532261154228748 -4 -1 -1 -1 -2 -2 -1 1
1532261154264636 -1 -2 1 -3 -2 2 2 0
1532261154340437 -1 -2 0 0 -1 -2 -2 -3
1532261154458119 -2 -1 -2 1 -4 -1 -2 0
1532261154505991 -1 -1 -1 0 -1 -2 -1 0
1532261154555858 0 1 -7 -15 -9 -11 -12 -4
1532261154578796 -14 -20 -19 -39 -11 15 -2 -8
1532261154692492 -1 0 7 15 4 -3 -1 0
1532261154761318 0 -2 1 1 12 6 -3 -2
1532261154857052 -6 3 2 2 -3 2 1 2
1532261154878993 22 -1 0 2 0 7 -1 20
1532261154946812 27 2 1 -2 -3 -22 0 -6
1532261155030588 5 -3 -6 -3 1 -5 -3 7
1532261155059513 -5 0 -2 2 4 -2 -7 6
1532261155082449 14 1 2 7 15 1 8 6
1532261155142290 20 0 -5 -1 5 9 -6 8
1532261155209111 -7 -1 -1 1 4 12 15 -17
1532261155254989 -3 -5 -6 -4 -3 9 -20 -10
1532261155291889 -14 -2 -3 -1 -6 -6 -4 -21
1532261155337767 -7 1 -3 -7 -23 18 -7 -26
1532261155359708 30 -9 -9 -7 0 -16 -6 30
1532261155382646 -14 -5 -7 -2 -7 -17 -9 -9
1532261155457446 17 23 11 11 25 30 28 -12
1532261155502326 -10 -9 -6 -1 8 2 -12 -1
1532261155652924 6 -1 -3 -3 1 0 -6 -23
1532261155690823 0 5 2 -1 -4 -12 -1 3
1532261155803521 -2 -5 -1 -2 -2 -3 -2 -1
1532261155922204 -2 -3 -3 -2 -41 -7 0 0
1532261155967084 -6 -3 -7 -13 7 21 2 -5
1532261156063825 -6 -6 3 9 25 -8 5 0
1532261156171537 -3 -1 -1 -4 31 73 -1 -4
1532261156222402 1 -1 -1 -2 -16 -4 0 -1
1532261156245340 0 -2 0 -3 0 -4 -2 -1
1532261156358038 -1 -3 -1 -1 -3 0 -1 -1
1532261156380976 0 -1 0 0 -4 -3 1 0
1532261156432838 -1 0 -1 -2 -1 -2 -2 -1
1532261156463755 -2 1 -1 0 -1 -2 -2 -1
1532261156509652 0 -1 -1 0 -2 -1 -1 -2
1532261156643276 0 -1 1 -2 -1 -2 0 0
1532261156689166 -3 0 -2 -1 -2 -2 -1 -2
1532261156710097 1 -1 -1 -1 0 0 -3 -1
1532261156734037 0 -3 -2 0 -1 -1 0 -2
1532261156739032 -1 -1 0 0 -2 0 2 -1
1532261156752982 -1 0 -2 -1 -1 -2 -3 0
1532261156784896 -1 -1 -1 0 0 -1 -2 -2
1532261156852716 -2 -1 -1 0 0 -1 -1 -1
1532261157003313 0 0 -1 -1 0 0 -2 1
1532261157017275 -1 -2 -2 -1 -1 0 -1 -2
1532261157047196 -1 -3 -3 -3 -2 -1 -1 -1
1532261157069138 0 0 1 0 -1 1 0 -1
1532261157122002 -1 -3 -3 0 -1 0 0 -1
1532261157235691 -2 -1 -1 -2 -1 -1 -1 -1
1532261157258630 -2 -3 -3 -2 -2 -2 -1 -1
1532261157283563 0 0 -1 -1 0 0 -1 -2
1532261157297526 -1 -1 -2 0 -1 -1 -1 -1
1532261157303510 -2 -1 -1 -1 0 -1 -3 0
1532261157339414 -2 0 0 0 0 0 0 -1
1532261157377313 -1 -1 -1 0 1 0 -1 0
1532261157423190 0 -3 -1 -2 -1 -1 -1 0
1532261157444134 0 -1 1 -2 -3 -1 -1 -2
1532261157572804 -1 -1 -2 -2 1 0 -2 0
1532261157594731 -1 -2 -1 -1 -2 -1 1 1
1532261157626657 0 -2 -2 0 -1 0 -1 -1
1532261157630636 -2 0 0 -1 0 1 -2 -1
1532261157721393 -1 -1 -1 -2 0 0 0 -2
1532261157791206 0 -3 -2 1 -3 -1 0 -2
1532261157813147 -1 -2 -1 -1 -1 -1 -1 -1
1532261157859042 0 4 0 1 -2 -1 -1 -1
1532261157901910 -1 -1 -1 -1 -1 0 -2 0
1532261157931830 0 1 0 -1 0 -2 0 -1
1532261157978705 -1 -1 -1 1 -1 0 1 0
1532261158112347 -1 -1 -2 1 -1 -2 -1 0
1532261158172187 -1 0 -2 1 -2 -3 -2 -4
1532261158202107 3 -1 -2 -2 0 0 -2 -1
1532261158368662 -2 0 -2 -2 -1 -2 0 -1
1532261158391600 -1 -1 -1 0 -1 -1 -2 -1
1532261158405563 -1 -1 -3 -2 -1 -1 0 1
1532261158434486 1 -1 0 0 0 -1 -2 -2
1532261158487344 -3 -2 0 0 -3 10 0 0
1532261158557158 -2 -2 0 -1 -2 -2 2 -1
1532261158643926 0 0 -1 -1 -2 -4 0 1
1532261158685814 0 -2 -1 -3 -1 -2 2 0
1532261158690800 1 -3 -1 0 1 -8 0 0
1532261158734683 -2 -1 -1 -1 1 -2 -1 -2
1532261158763606 -2 -1 -1 -2 0 -1 1 -1
1532261158811485 -2 0 0 -1 -1 -1 -1 -2
1532261158901237 -1 -1 -1 -1 -2 -2 -1 0
1532261158924176 -2 -1 -1 -1 -1 -3 -1 2
1532261158967062 -2 -1 -2 0 -3 -2 0 -1
1532261158990000 0 -2 0 -1 -2 -4 0 -1
1532261159012940 -1 -1 -1 -2 1 2 0 -3
1532261159033883 0 -1 -1 1 -1 -2 2 -2
1532261159063803 -4 -1 -2 -2 -1 1 -3 -1
1532261159200437 -1 1 -2 1 -1 -1 -2 -1
1532261159267259 -1 0 -2 -2 -1 -1 -1 -2
1532261159297179 -2 -1 -1 0 -2 0 -1 -1
1532261159350037 -2 0 -3 0 0 -2 -3 -2
1532261159409877 -1 -2 -1 -1 0 -3 -2 -1
1532261159505623 -1 -2 -2 0 -1 0 -1 -1
1532261159538533 -1 -3 -1 -2 1 0 -2 -1
1532261159629291 -2 1 2 -1 -1 0 -3 -2
1532261159739014 -1 -1 -3 0 1 -1 -1 0
1532261159779888 -1 -1 0 -1 -2 -2 -2 -2
1532261159784874 -1 -1 0 -1 1 -1 0 -1
1532261159829755 -1 0 0 0 -1 1 -1 1
1532261160056158 -1 -3 -2 -1 -1 1 -1 -2
1532261160071108 -1 -2 -2 -1 -1 -1 -1 -2
1532261160121973 0 0 -1 0 0 -2 -1 -1
1532261160182811 0 0 -1 0 -2 1 -2 0

1532261160347371 -1 0 -1 0 0 -2 -1 -1
1532261160356347 0 -3 0 0 -1 0 0 0
1532261160376293 0 -1 0 -1 -1 -1 0 -2
1532261160506944 0 0 -1 -2 -2 -1 -1 -1
1532261160593800 -1 -1 -1 -1 -1 -2 -1 -2
1532261160625730 -2 -2 -2 -1 -1 -2 1 -3
1532261160632696 -1 -2 -1 0 -1 0 0 0
1532261160654636 -1 0 -2 -2 -3 -2 3 2
1532261160691538 -2 0 -2 -1 -1 0 0 -1
1532261160737438 -1 0 0 -2 -1 0 -1 0
1532261160865476 0 0 0 0 -3 -1 -2 1
1532261160894399 -1 0 -1 0 0 0 -1 -2
1532261160931300 1 -1 -1 -2 0 -1 -2 0
1532261160954239 -1 0 -3 -3 0 0 -1 -1
1532261161075913 -1 1 -2 1 -1 -1 0 1
1532261161180634 0 0 0 -1 -1 -2 -1 -1
1532261161187628 -2 -1 -2 -2 0 -1 -1 -3
1532261161224516 0 -2 -1 0 -2 -2 0 0
1532261161247455 -1 1 0 0 -2 -2 -1 -3
1532261161254436 -3 0 1 -1 -1 -1 -2 -2
1532261161398052 -1 -2 -1 0 -1 0 -2 0
1532261161422986 1 -1 -1 -3 -1 -3 2 0
1532261161479834 -1 -3 -2 -3 -1 1 0 -2
1532261161540671 -3 -2 1 -1 -2 1 -1 -3
1532261161563612 -1 -2 -1 -1 -2 0 0 -1
1532261161721188 0 0 -2 -1 0 -1 -1 -1
1532261161736147 2 0 -1 -1 -1 -1 0 -1
1532261161780031 -3 -1 0 -2 -2 -1 -1 0
1532261161838873 0 -2 0 0 -2 -2 -1 -1
1532261161999444 0 -1 -3 -1 0 0 0 -1
1532261162003433 -3 -1 -2 0 -1 -1 0 -2
1532261162567924 0 -2 -1 -2 -2 -1 -1 0
1532261162574905 1 -1 -2 -1 0 0 -1 -1
1532261162619784 0 -1 0 -1 -1 0 -1 -2
1532261162701566 -2 -2 -1 -1 0 -2 0 0
1532261162749439 0 -2 2 -1 -2 0 0 0
1532261162763401 -1 -2 -2 0 0 -1 -1 -2
1532261162807284 0 -2 0 -3 2 0 0 -2
1532261162830222 -1 0 -1 -1 -2 -1 0 1
1532261162845193 -3 -2 -1 -1 -1 -2 -1 -1
1532261162859144 -2 -2 -1 -2 0 -2 -2 0
1532261162888067 -1 1 -2 -2 0 -1 -2 -2
1532261162993785 0 -1 0 0 0 -1 1 -2
1532261163109477 -2 -3 -1 -3 0 -1 0 1
1532261163159343 1 1 -1 -2 -2 -1 0 -1
1532261163272041 -3 -2 -2 0 0 0 -1 0
1532261163297971 -2 -3 -2 0 -1 0 -2 -1
1532261163342852 -1 -1 -1 -2 1 -2 0 0
1532261163363796 1 -1 -1 -1 -2 0 -1 1
1532261163387732 0 0 -1 -1 -1 0 0 0
1532261163422638 -2 -1 -1 0 0 1 -1 -2
1532261163451560 -1 -2 -1 0 0 -1 -2 -1
1532261163527358 -2 -1 -1 -1 -1 -1 -2 -3
1532261163639060 1 -2 -1 -1 -1 0 0 -1
1532261163678960 -2 -1 0 0 1 0 -1 -1
1532261163736797 2 -2 1 -1 -1 1 1 0
1532261163760734 -3 -1 -1 0 -1 1 0 0
1532261163941252 -1 -1 -2 -2 -1 0 -1 -1
1532261163955214 -3 -2 0 0 -2 -3 -1 0
1532261163984137 1 -1 0 1 0 -1 0 -2
1532261164043977 -1 -3 -3 -1 -2 0 -1 -1
1532261164061929 -1 -2 -1 0 -1 0 1 -1
1532261164195571 -1 -1 -1 0 -1 -1 -1 -1
1532261164233469 -2 0 0 -2 0 -2 -3 0
1532261164241449 -2 -2 0 0 -1 -1 0 -1
1532261164284334 -1 -2 0 -1 -1 -2 -1 -1
1532261164298296 0 0 -1 1 0 -2 -1 0
1532261164344174 -2 -2 -3 -1 1 -1 0 1
1532261164426952 -1 -1 0 -1 -1 0 0 0
1532261164451888 -1 -1 0 -2 0 -1 -1 -1
1532261164475822 0 -1 -1 0 -1 0 0 -1
1532261164496765 2 1 1 6 1 1 0 0
1532261164515716 0 0 -4 -7 -5 5 -2 -2
1532261164547630 1 0 4 20 7 13 5 1
1532261164592510 -3 -2 -1 1 8 21 0 1
1532261164615449 1 -1 1 19 45 18 -1 1
1532261164749091 2 2 4 -3 2 -2 6 2
1532261164816910 -28 2 -1 6 10 -4 -7 3
1532261165028344 -4 -1 2 -2 -9 1 1 -14
1532261165051283 -10 -4 -3 -1 -7 8 3 -8
1532261165066243 -25 -1 -1 1 13 21 -3 -11
1532261165124088 -6 -1 0 3 19 -5 1 -14
1532261165191906 5 2 1 -1 -4 -4 -16 -13
1532261165214845 -6 0 1 -2 -7 -23 -6 -9
1532261165236787 -23 4 -2 -1 -19 -9 0 -3
1532261165306601 -9 -16 -7 0 -18 -19 15 -8
1532261165328548 -5 4 0 0 -2 17 -33 -2
1532261165355470 0 -1 1 -1 -4 -6 4 -3
1532261165378408 -1 -7 -1 0 1 -5 -6 22
1532261165425282 15 -2 -4 -5 -1 8 0 -2
1532261165470162 -7 -1 0 0 2 2 -3 -3
1532261165517038 6 2 2 1 -2 -7 1 6
1532261165606798 -1 -4 -1 -2 -1 24 -4 0
1532261165643703 0 -3 0 0 10 -4 -2 1
1532261165678606 1 0 0 -2 -18 -5 -1 0
1532261165702542 0 -1 3 22 7 16 0 -1
1532261165745427 0 -6 -2 2 0 -8 1 0
1532261165791304 3 -3 5 18 -8 24 1 2
1532261165838179 0 -1 1 6 34 3 -3 -1
1532261165883059 -1 10 6 8 5 -1 -1 0
1532261165896029 0 3 2 -4 2 38 8 2
1532261165919973 -4 -2 -3 -3 -15 -4 -8 -5
1532261165964840 0 -4 4 3 3 -46 -5 -2
1532261166026675 -1 0 -2 -4 -1 2 2 1
1532261166175278 -2 -4 -4 -3 -4 -6 -3 -3
1532261166204199 -1 -2 -3 -1 0 0 0 0
1532261166285981 0 0 -1 -2 0 1 -1 -2
1532261166392696 -2 -2 0 -2 -2 -2 0 -1
1532261166438596 -1 -2 -4 -3 -2 -1 1 -2
1532261166454531 1 -1 0 2 -1 0 0 0
1532261166498425 -2 -1 -2 -3 -2 -1 -2 -2
1532261166587176 -1 3 0 1 0 -1 -1 -1
1532261166624077 0 -1 0 1 -1 -1 -1 -1
1532261166693891 -3 -4 -2 -2 0 -2 1 -1
1532261166715832 -2 0 -1 1 -1 -1 -1 -2
1532261166730792 -3 -5 -4 -3 0 -1 0 -2
1532261166774674 -1 1 1 -2 -1 0 -2 1
1532261166863437 -1 -4 -1 0 1 -1 -2 0
1532261166972165 -3 -2 0 2 0 -1 -1 -2
1532261166993091 0 0 0 0 -1 0 -2 -3
1532261167009059 -1 0 0 -1 -3 -1 -3 -3
1532261167014035 -1 0 -1 -1 1 1 0 0
1532261167059912 1 -1 -1 -1 -1 -2 -2 -1
1532261167081865 -1 0 -1 0 -1 -1 -2 -2
1532261167103794 2 -2 0 1 0 0 0 0
1532261167270349 -2 0 -1 -1 -2 -2 0 -3
1532261167285309 1 0 -1 -1 -2 -2 -1 -3
1532261167307251 2 1 -2 1 0 -2 -2 0
1532261167331187 0 0 -1 1 -1 0 0 -1
1532261167406003 0 0 -1 0 1 0 -2 -1
1532261167412967 -1 0 2 -1 -1 0 0 5
1532261167437901 4 0 -1 -1 0 -1 -2 -2
1532261167481784 -5 -4 -2 -1 -1 -1 -1 -3
1532261167503725 -2 -1 -2 -1 0 -2 -3 -1
1532261167525667 -2 0 -2 -1 -2 1 -2 -4
1532261167615427 -5 -1 -1 0 -1 -1 1 2
1532261167802925 -1 -1 0 0 1 0 -1 -5
1532261167840824 -4 -1 -2 -3 -10 -5 0 -1
1532261167884706 -1 0 0 -1 0 -2 -2 -3
1532261168103122 0 1 0 0 -1 -1 -4 -8
1532261168140025 0 -3 1 1 0 0 -2 0
1532261168154984 -1 -1 -2 -1 0 -2 -1 3
1532261168295615 0 0 0 -2 -4 -1 -2 -2
1532261168381378 -2 0 1 0 1 1 2 -2
1532261168461165 0 0 -1 -2 -1 0 0 1
1532261168500061 0 -2 -2 -3 0 0 0 -1
1532261168575857 0 -2 -1 -2 -2 -3 -1 0
1532261168634701 1 0 0 1 0 0 -3 -1
1532261168674611 0 -2 -2 0 -2 -2 1 2
1532261168698535 1 -1 -1 0 -2 0 0 0
1532261168830178 -3 -1 -1 -1 -1 -1 -1 -1
1532261168948861 -2 -1 -2 -1 -2 -1 -2 -2
1532261168958834 0 -1 0 0 -2 1 0 -2
1532261168978781 -1 -2 -1 0 -1 -2 -2 -1
1532261169084498 -2 -1 -2 1 -1 -2 0 -1
1532261169228114 -1 1 -1 -1 -1 1 0 0
1532261169236093 -1 0 -1 -2 -2 0 -1 -1
1532261169340812 -2 -2 -2 -2 -4 -2 0 -1
1532261169356770 1 -1 -1 -1 0 -1 0 -2
1532261169423591 0 -1 0 -1 1 0 0 1
1532261169506369 -2 0 -1 0 -1 -1 -1 -2
1532261169520332 0 -2 -2 -3 0 -3 -5 -1
1532261169557233 0 -2 -1 0 0 -1 -3 0
1532261169587154 -3 -1 -1 -1 -1 0 1 1

1532261169633032 -2 0 -2 -1 0 -2 1 1
1532261169682898 -2 0 0 -1 -2 -1 -2 1
1532261169700849 -1 0 0 0 -2 -1 -2 -2
1532261169768668 0 -1 0 0 1 0 -2 0
1532261169789612 0 2 -1 -2 -1 0 0 0
1532261169819532 1 -2 -1 -1 -1 1 -1 -1
1532261169865410 -2 -1 -2 -2 -3 -1 -1 -1
1532261169961153 0 -1 -2 -2 0 0 1 -1
1532261170059889 -1 -1 -1 -1 1 -2 -1 -2
1532261170081831 -1 0 0 -2 1 -1 -1 -1
1532261170095793 -1 -2 -2 -2 -1 0 -2 0
1532261170119729 -1 -2 -2 0 -3 0 -2 -3
1532261170164609 -1 -2 0 0 0 -1 0 1
1532261170209490 -1 -3 -1 -2 0 0 0 1
1532261170279303 -2 -1 -1 0 0 -1 -1 -1
1532261170301244 -1 -1 0 -1 -2 -1 -3 -2
1532261170346124 -3 0 -1 0 -2 -1 -2 0
1532261170373052 -2 -1 -1 0 -2 1 1 1
1532261170396988 0 -1 -1 0 -1 0 -1 1
1532261170419927 -2 -3 -2 1 0 -1 -1 -1
1532261170532625 -1 -1 1 -2 -2 -3 -1 0
1532261170600460 -2 0 0 -1 0 0 -2 -1
1532261170614423 -1 -2 -3 1 0 -1 -1 -3
1532261170643345 0 -1 -1 -1 0 -1 -1 -1
1532261170698199 0 -1 -1 1 -3 2 -3 1
1532261170788961 0 -1 0 -1 -2 -1 -1 -2
1532261170831842 -3 -2 -1 -1 -2 0 -1 1
1532261170857772 1 -1 -2 -1 -1 -1 0 -2
1532261170878716 0 -1 -2 -1 -1 -2 -1 0
1532261170900657 0 -2 -1 -1 -2 0 1 -1
1532261170959500 0 -1 0 -1 -1 -1 -3 -1
1532261171019340 -2 -2 -3 -2 -1 -1 -1 0
1532261171096136 -1 -2 -1 1 -1 0 -1 0
1532261171160962 0 -2 0 -1 0 -2 -2 -2
1532261171184898 0 -2 -1 -1 0 1 0 0
1532261171280650 -1 1 -1 -1 -1 -2 -1 -1
1532261171350455 -1 -3 -1 1 0 -2 -1 -2
1532261171410294 0 -1 0 -3 -3 -3 1 0
1532261171450188 -1 -1 -1 0 -1 -1 -2 0
1532261171484098 2 -2 0 0 -1 1 -1 -1
1532261171575852 -2 -1 -1 -1 -1 0 -2 -2
1532261171666610 0 -2 -1 0 -1 -1 -2 0
1532261171687553 -2 0 -2 -1 0 -1 -1 -1
1532261171725451 -1 -1 0 -2 -3 -1 -1 -2
1532261171761355 1 -2 -1 1 0 -2 0 0
1532261171791276 0 0 -1 -2 1 0 -2 -2
1532261171807233 1 -2 -1 -1 -2 -1 0 -2
1532261171874055 -1 -1 -2 0 -2 1 -1 -1
1532261171925916 0 0 -2 -2 -1 -1 1 0
1532261171965809 -2 -1 -1 0 0 0 0 -1
1532261171988748 -3 -2 0 -2 0 0 -2 0
1532261171992738 -1 -2 -1 -1 -2 0 -1 0
1532261172061553 4 1 -1 -2 -3 -1 -1 -2
1532261172265009 3 -1 -3 2 -2 1 0 -2
1532261172279969 -2 0 -1 -3 -1 -2 -2 0
1532261172324849 0 -1 0 0 -1 0 1 -1
1532261172368732 0 -1 1 -2 -2 -2 -1 0
1532261172545260 0 -2 -2 -1 -1 -1 1 -2
1532261172558232 -2 -1 -2 -1 1 -1 -3 0
1532261172566204 -2 -2 -1 0 -2 -2 -1 0
1532261172589143 -1 0 0 -1 1 -3 -3 -1
1532261172820524 0 -1 -1 -2 -1 0 -1 0
1532261172843463 -1 0 -1 0 0 -1 -1 -2
1532261173097782 -3 -1 -3 -1 -3 -1 0 0
1532261173113740 0 0 -1 0 0 -2 -2 -2
1532261173134684 0 -3 -3 -3 2 10 2 0
1532261173262346 2 3 8 17 -6 1 -1 0
1532261173353099 -4 -4 -5 -1 41 8 1 -3
1532261173449841 37 4 2 5 -10 -14 21 11
1532261173494721 4 1 0 -3 -11 1 14 2
1532261173652300 -1 0 0 1 13 -14 -28 2
1532261173669254 -21 -6 -5 0 8 -21 -17 -17
1532261173681222 -3 0 0 0 3 17 6 -16
1532261173728097 13 -1 -4 2 7 12 9 14
1532261173795918 -22 -5 -2 -3 -14 0 -4 10
1532261173838800 1 -2 -1 1 8 -10 3 12
1532261173908614 34 -3 4 9 28 28 12 38
1532261173930555 -11 -22 -22 -4 -10 -35 -15 6
1532261173958480 -97 28 22 8 -45 -5 9 -21
1532261174003361 -4 -3 0 1 22 -1 3 -13
1532261174073174 3 6 5 1 12 11 2 -8
1532261174096113 23 0 -2 0 3 -1 -6 -5
1532261174141007 -5 -5 -3 -1 -3 -7 -2 1
1532261174207814 -2 0 -2 -5 -8 -3 -2 -5
1532261174223776 -1 2 -1 0 -1 0 -1 -2
1532261174259676 -4 0 26 75 -3 18 0 -3
1532261174288598 -14 -3 -1 0 -2 -1 -1 -3
1532261174401297 2 1 -5 -15 -5 -8 -6 -1
1532261174443185 3 2 1 -6 -5 -12 0 -3
1532261174464141 1 -5 -7 4 16 8 10 1
1532261174486070 -4 -7 1 9 -5 -16 -8 -3
1532261174521974 1 0 -2 -7 -1 -9 -3 0
1532261174583809 -2 -7 1 9 17 5 -6 -3
1532261174628689 0 7 7 5 11 12 -4 -1
1532261174672590 -2 -4 1 4 6 14 11 2
1532261174738395 -1 -2 -4 -2 -5 16 0 -1
1532261174830150 -1 -3 -3 -4 -2 6 2 0
1532261175056558 -1 0 3 1 1 -1 -2 -1
1532261175098432 0 -2 -1 1 3 5 2 1
1532261175130347 -3 -7 -1 -3 -3 -4 -1 -3
1532261175317846 -3 -1 -2 -2 -1 -3 -1 0
1532261175333803 -1 2 -2 -2 -2 -1 -1 -1
1532261175354747 -2 -1 0 2 0 3 -2 -3
1532261175415584 -2 -3 -1 -3 1 4 -1 -2
1532261175461461 -1 -2 -2 -2 -1 -4 0 -2
1532261175529281 -2 -2 0 -2 -1 -3 -1 -2
1532261175597099 -2 -2 -2 -2 0 0 0 -1
1532261175616049 0 -1 0 0 -1 -1 0 2
1532261175728746 -1 -1 -1 0 -1 -1 -3 -2
1532261175788589 1 0 -1 -3 -3 0 2 1
1532261175895302 0 -1 -1 -3 -1 1 -1 -1
1532261175920235 -3 -3 -2 0 -1 0 0 -2
1532261175941179 -2 -3 -2 -2 -1 -3 -1 0
1532261176060859 1 1 1 1 -2 -1 -1 0
1532261176128677 0 -1 0 -1 -1 0 -1 0
1532261176150619 -1 -1 -2 1 -1 -3 0 -1
1532261176217440 0 -1 0 0 -1 -1 1 -1
1532261176245365 -1 -2 -1 0 1 -2 0 -2
1532261176382997 -2 -1 -2 -1 0 0 0 0
1532261176406934 -2 -2 -1 1 -1 -1 0 -1
1532261176429872 1 -1 -2 0 -2 -2 1 -2
1532261176451814 -1 -1 -1 -1 -1 -2 -2 0
1532261176478742 -1 -2 0 -3 0 -2 -2 -3
1532261176705136 0 -1 -1 1 0 0 -1 -2
1532261176727077 -2 -2 -1 1 -1 -1 2 -2
1532261176763978 -1 1 0 0 -1 0 -1 0
1532261176846757 0 -1 -2 -1 -1 -1 -2 1
1532261176871690 1 -1 -2 -1 -1 -3 0 -2
1532261176936517 -1 -2 -2 -1 -1 -1 -1 -1
1532261176961450 -3 -1 -2 -2 -3 -3 -2 -1
1532261176983391 -2 -2 -1 0 -2 -1 0 0
1532261176999349 -1 -1 0 -1 -2 -3 -2 -3
1532261177020293 -2 -4 -2 -1 -1 1 -1 -1
1532261177064176 -2 0 -1 0 -2 0 -1 0
1532261177168896 -2 -1 0 -1 1 1 -1 -2
1532261177178869 -1 1 -1 -2 -1 0 -1 -1
1532261177238720 0 -1 -1 -1 -2 -2 -2 -2
1532261177259652 -1 0 0 -1 0 -3 0 -2
1532261177305531 -2 -1 -3 -2 -1 -1 -3 -2
1532261177320490 -2 -1 -2 0 -2 -3 -1 0
1532261177493029 -1 0 0 -4 0 -1 -2 0
1532261177515967 -1 -1 0 -2 1 1 -1 0
1532261177560848 2 0 -1 -1 0 -1 -1 1
1532261177573813 -1 0 -1 -1 -1 0 -1 0
1532261177604738 0 0 -2 -1 0 1 -1 -1
1532261177680528 -1 0 -2 -1 0 -2 0 -2
1532261177703485 0 0 0 -1 -3 -1 -3 -1
1532261177748365 0 -2 -2 -2 0 0 -1 1
1532261177793245 0 1 1 -2 -1 -1 -1 0
1532261177817181 0 0 -1 1 -2 -2 0 0
1532261177852105 -2 -2 -1 -1 -1 0 0 0
1532261177882007 -1 -2 -1 -2 -2 -1 -3 0
