1532262579027249 2 4 -5 -7 -4 -3 0 0
1532262579118006 7 0 -8 -23 2 2 2 2
1532262579184827 0 -19 -10 -2 21 19 15 2
1532262579215758 -2 -38 -2 5 -3 -8 -6 -1
1532262579237686 2 12 34 22 8 4 11 1
1532262579290545 0 15 4 -17 -9 4 3 -1
1532262579305504 1 2 -40 -11 1 -3 -4 -2
1532262579328449 0 3 -24 -1 -6 2 2 2
1532262579357366 2 -4 -51 -6 0 -1 0 2
1532262579395264 1 3 -4 2 0 -2 -2 -1
1532262579456101 -4 6 -9 -2 -2 -1 -2 -3
1532262579478043 -7 0 4 -18 -3 1 0 -3
1532262579493003 1 29 -2 8 -1 -5 2 2
1532262579507964 -9 -47 -24 -14 -14 -2 -1 -4
1532262579529904 -6 -44 18 -19 2 3 3 -4
1532262579552843 -1 -45 -29 6 6 10 3 -1
1532262579567803 -4 -7 -27 -16 -28 -14 -3 -2
1532262579589744 0 -7 14 34 5 0 -2 -1
1532262579620661 -3 4 -42 1 -19 -3 -3 -5
1532262579635622 -3 18 66 9 1 -8 -3 -3
1532262579680501 2 9 9 -10 -39 -4 2 0
1532262579695462 -4 -11 -75 -2 -67 -5 1 -1
1532262579717402 0 -10 3 2 -7 -16 -2 0
1532262579740349 1 -2 40 0 15 1 -1 0
1532262579755302 -1 6 36 -9 13 4 -2 -2
1532262579777242 1 -6 -5 12 4 2 4 1
1532262579808160 0 7 -48 -2 2 -68 -5 25
1532262579830101 -7 0 -41 -2 -7 -18 -3 -17
1532262579874982 8 7 75 -16 -7 14 1 3
1532262579904902 -22 1 -50 18 6 7 -5 -1
1532262579949781 14 -18 17 3 -3 0 1 4
1532262579980713 -11 12 29 1 -3 -9 0 -10
1532262580040539 -1 2 74 -3 1 6 -3 -4
1532262580062480 21 -3 -37 -10 0 2 0 5
1532262580085419 5 16 53 8 6 12 9 -3
1532262580130299 -1 -16 -111 -12 4 39 17 -13
1532262580198117 -1 1 97 -35 -11 14 9 -12
1532262580279899 9 -17 -40 5 0 -24 -19 -18
1532262580294859 8 8 23 6 7 15 9 20
1532262580324779 -1 -11 -84 -28 -9 -25 -9 -70
1532262580385617 -3 -15 -3 -24 -15 -1 0 -3
1532262580407558 -2 -54 77 20 8 1 4 -5
1532262580467397 6 -3 25 10 10 -1 0 12
1532262580535216 -4 1 -1 -9 -1 -1 -10 -8
1532262580595056 -16 6 -3 -6 1 2 5 -4
1532262580662875 5 -9 -7 -7 -1 1 5 -1
1532262580722714 -3 -9 -39 -5 0 1 19 -3
1532262580745653 -15 -22 -8 1 1 3 6 -28
1532262580857354 -81 -67 -1 -3 -4 -5 -10 -51
1532262580880293 31 8 -30 4 -2 -3 -2 -2
1532262580925173 -2 -63 5 -7 -7 -4 15 46
1532262580940134 58 127 27 8 5 1 -5 -23
1532262580978032 4 -68 0 -6 0 13 101 8
1532262580999973 14 -97 14 9 7 48 14 11
1532262581022912 -85 5 -3 -2 8 71 -21 -48
1532262581044853 -22 -128 7 1 -7 -109 -50 -41
1532262581076768 -112 1 -10 5 4 8 -5 -36
1532262581121648 41 -6 -76 22 9 -3 -12 2
1532262581135611 -2 -2 -16 2 -3 1 2 7
1532262581157551 9 -3 -41 -11 1 -16 2 -6
1532262581210410 40 0 28 -16 -4 -7 -19 28
1532262581232352 0 -3 -83 5 -1 -24 -23 2
1532262581285211 2 -3 -15 -11 -8 -3 -4 -15
1532262581315130 -1 -1 -12 3 -1 3 6 -5
1532262581345051 -2 11 -49 -6 -1 1 3 0
1532262581383953 2 -12 19 -7 9 5 -1 0
1532262581397909 0 -113 -23 0 2 4 -1 -1
1532262581419851 3 -116 -49 -3 -7 0 3 -1
1532262581465733 0 44 41 -6 -8 0 9 -2
1532262581496645 -6 10 -6 -3 -4 -8 -12 -5
1532262581517589 4 3 -11 -5 -6 -12 8 7
1532262581547508 14 7 17 5 16 16 24 2
1532262581570448 -5 5 -58 0 -9 0 -4 -4
1532262581622309 -16 -9 -2 1 3 -8 -9 -15
1532262581645247 -23 21 28 -5 -19 -7 -10 -9
1532262581668186 25 -5 21 22 12 7 15 18
1532262581690129 -15 -19 -1 -23 -19 5 2 0
1532262581728026 25 70 16 10 52 0 1 6
1532262581757947 -16 31 3 -8 -21 -9 -5 -11
1532262581794848 38 -27 42 -7 -1 4 1 2
1532262581809808 -35 -11 -10 5 3 4 -2 -1
1532262581847706 -18 7 -2 1 0 -1 -2 0
1532262581870645 36 9 -13 -2 0 -2 -1 -3
1532262581915525 -10 0 -8 1 -2 -1 -3 -10
1532262581945444 -2 24 -16 3 3 2 0 -5
1532262581990364 -13 -12 -3 1 -1 -1 -3 0
1532262582035230 13 -21 3 11 6 2 2 3
1532262582058169 2 2 0 -3 -3 -3 4 5
1532262582132969 -13 10 -3 11 -2 2 0 -5
1532262582154910 0 -8 21 -10 -3 -5 -3 -1
1532262582184830 -7 -7 1 10 4 17 2 -3
1532262582214750 8 7 2 28 9 -1 1 2
1532262582230720 4 -7 -22 -11 -19 -5 0 -6
1532262582267620 -1 53 9 3 2 3 1 -3
1532262582297541 10 16 12 -13 30 7 0 4
1532262582455120 -13 -39 -7 6 10 3 -1 0
1532262582478058 6 -7 0 -20 0 -2 -1 -1
1532262582529920 2 -20 9 -16 2 4 3 2
1532262582544879 -17 -49 -25 -4 0 1 1 -2
1532262582589760 8 22 12 4 3 -1 0 1
1532262582620683 10 7 0 5 3 1 0 -1
1532262582672538 -6 -18 -3 0 1 -5 -1 -3
1532262582860042 14 6 -1 4 2 4 6 3
1532262582889963 -3 -30 -11 -11 -12 -3 -4 -8
1532262582912901 -1 -3 -2 7 -1 -3 -1 -1
1532262582927861 -2 1 30 7 3 -3 -1 -1
1532262582949803 11 -11 -11 -20 -22 -5 2 5
1532262582987701 0 -6 -9 -10 1 -2 -1 -1
1532262583010640 -3 -11 -2 5 13 4 2 -1
1532262583032581 1 7 -15 -26 -7 -7 -2 1
1532262583064496 -3 -8 2 -12 -30 -10 -2 -3
1532262583087434 3 3 -16 5 3 3 1 -1
1532262583100400 -3 -6 -4 18 17 2 0 1
1532262583123339 -6 -7 15 0 -7 -2 -1 -10
1532262583145279 -4 -6 -96 0 1 -14 2 -36
1532262583160244 3 6 11 0 -4 -1 -1 7
1532262583213098 0 4 -51 4 -1 -23 -6 -21
1532262583250040 11 4 56 1 14 55 14 42
1532262583287937 -14 -1 2 11 -5 -28 4 -6
1532262583309879 -9 -5 66 4 -9 -8 -9 -15
1532262583339800 19 5 -4 3 -9 -9 -56 2
1532262583362738 -12 -2 -53 4 -1 -8 3 -1
1532262583385676 18 -3 18 0 -9 -9 -20 2
1532262583407618 43 -3 -65 -7 -8 -34 -25 13
1532262583452498 -21 -10 1 -4 -7 -27 -50 -11
1532262583527298 22 16 10 6 4 8 22 1
1532262583551233 -11 -4 3 9 1 -2 -23 -8
1532262583573175 5 -8 1 -6 -6 -2 0 4
1532262583618055 21 -3 0 -6 -8 -3 5 14
1532262583633015 0 -8 -12 15 6 13 18 0
1532262583677895 -6 -2 24 5 3 -53 5 -2
1532262583692855 50 7 57 33 18 -2 -13 14
1532262583722775 -12 4 -40 21 2 17 -9 -1
1532262583790594 -9 -20 16 -7 -2 2 16 -1
1532262583897309 -1 9 7 25 -2 -7 -9 -1
1532262583919250 -8 1 0 -8 -1 0 5 -2
1532262583964130 -8 -8 -2 -7 -4 -2 -2 -2
1532262583985074 20 10 -8 9 1 20 1 7
1532262584000034 14 2 6 4 1 11 1 -3
1532262584068849 10 -3 -24 24 19 36 -4 4
1532262584091789 3 2 -85 26 9 81 0 -3
1532262584142652 -7 1 -2 -12 -13 -2 4 -3
1532262584157612 -1 -8 -7 -13 -13 -38 -7 2
1532262584172572 -15 -19 12 9 -2 -4 -6 -4
1532262584195511 3 -7 -13 -6 -4 13 3 -4
1532262584210471 7 11 11 5 1 -11 -2 -4
1532262584240411 -2 14 -4 0 -5 16 4 -5
1532262584345111 8 19 9 -2 3 34 5 2
1532262584389991 1 4 -5 1 2 0 0 1
1532262584442850 1 -4 -14 -10 -1 4 0 0
1532262584472770 7 5 -3 -3 2 -19 -6 1
1532262584517650 7 46 41 3 -2 -15 -5 2
1532262584540603 -2 30 35 1 5 -25 4 3
1532262584570508 -1 -7 -18 -7 -6 -7 -4 3
1532262584607414 5 34 51 12 7 26 -2 -5
1532262584637329 3 -18 -73 3 -9 -17 -3 8
1532262584675228 1 -8 -16 0 0 6 4 -5
1532262584690201 -2 -7 -3 -3 -2 12 -1 -13
1532262584714124 -1 7 20 1 1 4 3 7
1532262584728086 -2 20 11 -15 -7 4 -2 -11
1532262584758007 -4 2 23 -11 -1 -1 -1 4
1532262584772968 -4 -4 -13 5 -3 2 -1 -10
1532262584817847 -4 -7 -55 -2 -8 -7 -4 4
1532262584832807 2 -5 39 7 7 -2 2 2
1532262584885666 -3 -9 3 -6 -9 55 3 0
1532262584915585 -2 -4 -8 1 -10 -6 -1 -2
1532262584945506 -3 -2 8 1 3 0 -1 3
1532262584967447 -7 -2 -19 -1 -3 -4 2 1
1532262584990405 0 1 8 0 5 6 0 1
1532262585005345 3 9 46 0 8 4 -1 1
1532262585035266 3 -4 -15 0 2 -3 2 1
1532262585058209 0 -4 48 6 -2 -4 1 5
1532262585073164 -1 1 -18 -1 0 -1 -2 3
1532262585110065 3 3 3 -6 1 6 2 -1
1532262585133004 2 -5 0 2 -3 -3 0 11
1532262585154945 -3 7 -26 1 -1 -1 5 -4
1532262585184865 -6 -18 -50 0 -1 11 -3 -8
1532262585222764 0 10 0 1 0 3 -1 0
1532262585245703 3 0 5 -2 3 12 1 7
1532262585260662 -3 5 8 -1 -5 0 -4 -3
1532262585305542 3 3 -3 9 4 4 0 2
1532262585335462 -2 4 22 -8 -6 0 0 -4
1532262585357404 -3 -1 -15 5 -1 16 2 -18
1532262585380342 3 -2 -8 -2 6 5 0 4
1532262585395303 1 -4 -39 0 -3 -2 1 7
1532262585472097 -2 -6 -22 -2 -5 -4 -3 -13
1532262585494039 4 -7 -10 -4 0 -1 3 13
1532262585516977 -5 1 19 -5 4 5 7 20
1532262585544903 -1 -7 11 6 2 -58 -13 -42
1532262585567841 13 1 -23 7 3 39 11 60
1532262585589783 -30 -5 -16 -5 -3 -10 -5 -76
1532262585612721 6 -1 7 -5 2 -12 -3 -13
1532262585627681 3 -1 -59 -7 2 -8 0 -8
1532262585657601 16 7 5 3 -6 -10 -3 34
1532262585680540 -5 -11 -55 -1 2 -11 1 -4
1532262585702481 2 -4 1 26 0 4 1 -4
1532262585732401 -2 -16 8 -21 3 22 2 -3
1532262585755340 18 11 -1 -1 1 8 6 19
1532262585777281 0 0 52 7 1 -19 -9 -5
1532262585807203 -4 3 -23 -9 -5 -15 -3 5
1532262585830140 -9 -4 -56 -1 2 3 -1 -4
1532262585882998 -9 -10 -17 2 -2 -7 4 17
1532262585897958 -9 6 -1 2 7 -16 1 -9
1532262585919900 4 0 -9 -1 -3 -7 -3 -7
1532262585934860 -15 7 73 6 1 3 3 28
1532262585957798 -3 -2 11 -5 1 9 0 -4
1532262586002679 12 8 11 -6 -4 -4 -4 18
1532262586025625 -3 -6 0 6 0 -1 1 -6
1532262586100417 0 1 -2 3 3 0 -1 -21
1532262586279937 3 13 21 3 -4 -3 1 -4
1532262586490375 -2 6 -23 -2 -2 -12 -6 1
1532262586520294 -3 -61 -97 -11 0 -3 3 9
1532262586671889 5 -8 4 -11 5 -12 -12 14
1532262586737713 0 9 12 -7 -9 5 7 22
1532262586752673 5 2 17 2 -3 -37 2 -7
1532262586775611 1 19 83 2 -5 1 -2 11
1532262586835451 0 -1 2 6 4 10 4 17
1532262586887313 3 3 -3 4 8 -7 1 17
1532262586917233 1 8 13 6 7 14 4 -1
1532262586940171 0 1 -5 4 6 3 -1 -8
1532262586978070 -3 -5 -10 -4 -13 2 -1 1
1532262586993030 2 0 6 5 6 15 4 6
1532262587053884 1 -2 6 -1 0 3 0 -5
1532262587112711 -1 0 -21 0 1 -5 -5 0
1532262587150609 2 -18 -8 5 1 0 3 -1
1532262587180529 -4 -2 8 1 11 -1 -3 -5
1532262587225408 2 -4 15 -5 -8 -11 -3 20
1532262587262310 -2 5 -1 -7 -13 -6 -3 -4
1532262587292229 -1 -12 -20 -2 -1 -1 -3 -5
1532262587339105 0 5 16 -2 -3 -3 0 2
1532262587362044 0 7 -9 -2 -11 -1 0 -1
1532262587389988 2 2 -46 2 -3 -2 1 -1
1532262587419889 -1 -20 7 1 2 0 2 -1
1532262587442827 2 8 -12 4 18 6 2 0
1532262587457787 -3 0 -22 -4 -9 -3 -3 -2
1532262587540596 -2 -13 -9 1 -3 -3 0 0
1532262587577497 3 4 46 6 0 2 1 1
1532262587600437 -1 9 -14 -4 -2 -1 -2 0
1532262587622377 0 -6 -14 -1 -2 -2 -2 -4
1532262587675265 -1 8 -40 3 2 -2 1 -1
1532262587774001 -1 1 -3 -1 -2 0 1 1
1532262587802922 0 -7 -29 2 2 1 1 1
1532262587817883 0 3 27 1 0 -1 -2 -2
1532262587869745 -1 -10 -12 -6 -2 0 0 1
1532262587885704 1 0 11 0 -2 0 0 -1
1532262587907643 2 3 -4 19 7 1 1 0
1532262587945542 0 7 -8 -2 -3 1 0 -1
1532262587975462 -2 -10 -16 -5 -1 0 0 0
1532262588027323 2 -11 -67 -6 0 1 1 -1
1532262588044278 -2 4 11 0 2 -1 -1 -3
1532262588057243 -2 -6 35 0 -2 -1 -1 0
1532262588088160 -2 -8 -13 2 1 2 -3 0
1532262588118080 -6 24 -17 2 3 -4 0 -9

1532262588154982 17 19 -22 -2 1 1 -2 33
1532262588192881 -3 36 25 -3 -4 -3 5 -114
1532262588222800 1 -21 40 35 16 4 3 29
1532262588244742 0 11 -8 -2 -4 -2 -2 9
1532262588306576 -11 7 7 -10 -6 0 1 10
1532262588365419 -2 -5 -8 3 4 -1 -3 2
1532262588448198 3 14 -23 7 -2 -4 1 3
1532262588515019 4 0 -4 -1 -4 -5 -2 0
1532262588552917 -3 -21 6 10 4 -3 1 1
1532262588583837 2 1 -22 -2 -2 -5 -2 -1
1532262588627717 4 29 -2 1 1 1 1 3
1532262588710502 -2 -22 8 -2 0 1 0 6
1532262588762363 -1 6 -6 -4 -2 -3 -2 -2
1532262588883040 -1 -6 33 -7 1 1 0 2
1532262588927921 2 -5 -40 -14 -1 11 2 -7
1532262589017681 -17 18 6 2 -2 -14 -5 -1
1532262589107440 8 5 2 4 -9 -4 -2 -1
1532262589130379 -8 -11 -3 -2 1 7 -2 0
1532262589213158 -3 -2 4 -41 -23 -12 -1 -1
1532262589228117 4 3 -23 -9 5 1 2 3
1532262589250060 3 -1 -14 5 3 2 2 2
1532262589273995 -3 1 15 -1 -3 -1 -1 -4
1532262589332837 2 24 11 -1 -2 -3 -1 -2
1532262589467477 4 11 9 -1 -9 -1 0 1
1532262589542278 -1 -11 -34 1 3 0 1 -1
1532262589567211 -1 -5 6 -1 -3 -2 0 -2
1532262589595136 -1 -7 -7 -1 -1 0 0 0
1532262589610097 13 -5 6 0 0 -5 1 4
1532262589627051 -3 1 -3 1 0 -2 0 -21
1532262589647995 2 -5 -6 1 -1 -1 -1 11
1532262589693888 -2 -2 -4 -4 -3 -3 1 2
1532262589723793 -3 -4 -1 -3 0 -1 -2 0
1532262589752714 1 -3 -3 -1 -8 -3 1 1
1532262589767675 0 6 0 -3 -1 -3 0 2
1532262589820533 1 8 -16 1 -1 1 0 1
1532262589902316 -1 1 -6 -39 -29 -13 -4 -1
1532262590001051 -1 -11 -32 -5 -8 -11 -3 -1
1532262590104774 -3 4 85 22 10 0 -1 -2
1532262590172593 1 -10 -1 0 8 5 1 1
1532262590240411 -6 -2 -5 3 0 -8 -1 0
1532262590292272 -3 7 81 7 2 3 -3 1
1532262590353110 -6 -8 -21 -10 0 5 -3 -2
1532262590383029 -3 17 -35 3 -2 -2 3 -1
1532262590479770 6 -14 -53 -15 10 16 2 -9
1532262590592470 -24 12 55 -3 -10 -13 -13 -7
1532262590652309 -16 49 -35 0 -8 -11 -1 -18
1532262590824848 5 46 -7 -6 -3 -3 -1 0
1532262590855781 2 9 3 -2 -1 0 -1 2
1532262590930565 19 2 4 -7 -5 -4 19 3
1532262590945526 -10 24 5 2 -4 -8 3 -9
1532262591005365 11 16 -6 -1 6 7 7 30
1532262591057227 -15 -20 -9 -1 0 1 5 15
1532262591080166 -16 -14 9 -10 1 -5 -24 -43
1532262591118063 68 -33 11 -2 -2 -2 -3 20
1532262591147984 38 -90 -22 0 -1 0 -2 19
1532262591192864 35 27 -5 2 6 3 9 20
1532262591214805 -27 83 -11 -6 -2 -3 -14 -47
1532262591237744 7 -63 -27 -7 0 2 34 36
1532262591275642 24 18 6 -2 3 11 -13 18
1532262591297584 -59 57 -3 -3 -2 -4 -14 -14
1532262591350443 -83 57 -28 -15 -12 -8 -18 -1
1532262591417264 -23 35 3 1 1 -9 -3 84
1532262591485082 37 6 -24 11 -1 6 7 39
1532262591544922 -13 -9 -3 3 0 -11 -6 -2
1532262591582821 -10 1 -36 4 -2 0 0 6
1532262591665599 -5 -2 36 1 -3 -3 -3 -8
1532262591740400 -5 20 -18 1 1 6 5 -2
1532262591770320 9 -30 -6 -2 1 -4 -3 1
1532262591807221 0 -4 -7 4 1 -3 11 0
1532262591824182 -2 25 -15 -2 -6 -4 -4 2
1532262591875040 -1 3 0 -4 2 -4 -3 -1
1532262591943870 1 8 -3 -8 -4 -12 -3 -3
1532262591972779 6 22 13 16 -7 -2 5 4
1532262591995724 -31 -35 -6 -37 5 14 -7 -11
1532262592017659 -4 -42 7 -10 -7 -7 -3 -3
1532262592032618 8 46 -9 -22 19 4 1 0
1532262592062538 20 31 -31 -7 6 1 -4 -2
1532262592077498 11 -47 4 0 0 -2 -2 -2
1532262592092459 0 -36 1 6 -11 -3 -2 2
1532262592131369 -4 -11 -27 4 1 -2 -2 0
1532262592152298 20 35 22 11 5 3 4 5
1532262592182218 4 -38 -4 -6 -1 0 4 14
1532262592213135 -22 -6 0 3 1 1 -4 -18
1532262592243055 -1 4 25 9 4 2 0 -13
1532262592294917 0 8 0 -9 -2 1 -1 -1
1532262592317856 -26 12 5 -3 0 6 -2 -13
1532262592416592 -3 10 -1 -9 1 4 -2 1
1532262592430554 -20 28 8 20 -5 1 2 2
1532262592452496 1 5 -11 -1 -12 -9 0 11
1532262592490394 11 -7 -18 15 2 -18 2 3
1532262592505355 13 7 6 33 -61 -4 -1 -7
1532262592527296 -13 -31 -6 -42 8 4 3 -1
1532262592550234 1 -6 -8 -38 -25 -9 -6 -6
1532262592588132 17 -30 14 -32 50 -6 -3 3
1532262592610074 -9 -9 -15 -15 -35 -5 -2 -8
1532262592626032 -1 23 -4 36 65 -3 1 4
1532262592647973 7 45 -13 10 -39 -7 -3 3
1532262592677892 -16 -11 -9 -1 -26 0 -2 0
1532262592714794 -8 -28 -20 -6 -7 5 2 5
1532262592730758 -6 -21 -47 2 -8 -3 -3 1
1532262592760672 -9 -20 18 4 -8 4 0 7
1532262592776629 -6 -13 9 4 -5 -1 0 5
1532262592797572 14 11 8 4 -4 0 0 1
1532262592820512 -8 -17 -2 0 -6 1 -1 -4
1532262592865392 -9 15 -1 -2 -2 -1 -3 -10
1532262592948170 8 -4 -6 -4 0 1 0 -4
1532262593000031 -7 -25 -5 3 -5 2 2 0
1532262593016986 -2 8 9 -25 0 -6 -1 5
1532262593037930 -12 2 -4 -11 -11 1 -2 0
1532262593059871 11 21 -1 -12 2 -1 0 1
1532262593074831 -13 6 0 -5 8 0 4 -5
1532262593089792 -11 23 -19 15 8 8 1 -3
1532262593119711 -10 -31 -8 -30 16 4 1 1
1532262593150629 -5 44 5 15 4 0 0 -2
1532262593180548 -12 -14 -10 -17 -55 -21 -7 -4
1532262593210468 4 -16 -3 12 -1 -1 2 -1
1532262593226429 -4 -9 -2 -10 1 -3 -2 1
1532262593240388 2 -7 19 -9 6 -1 1 3
1532262593270308 1 -47 -5 27 20 3 -2 1
1532262593285269 6 -8 0 13 -6 -7 -1 1
1532262593307210 5 9 5 8 4 2 -1 0
1532262593330148 0 -32 0 -5 0 -1 -1 2
1532262593368047 5 28 -1 -4 -2 -2 0 -5
1532262593419909 -8 16 -3 -1 -1 0 1 -1
1532262593449828 1 2 8 0 -2 -2 1 -1
1532262593502687 0 12 20 -2 0 0 0 3
1532262593563524 2 0 -3 -1 -3 0 1 0
1532262593592447 2 12 -8 0 -2 -1 0 -2
1532262593615386 0 9 -14 0 -4 -3 0 3
1532262593652287 -4 6 -21 5 -2 0 0 0
1532262593675225 0 -3 24 1 5 -1 -3 0
1532262593705146 1 0 -44 -9 -9 -4 2 15
1532262593720107 -5 2 -87 -10 -11 0 -18 -20
1532262593750025 8 1 6 1 -1 -11 6 3
1532262593787925 -18 1 -31 -1 35 7 1 -9
1532262593809866 25 -4 -23 1 35 -82 -26 18
1532262593847765 8 1 -57 -19 -31 -43 -62 -3
1532262593870703 -29 -8 24 -21 -21 39 101 -1
1532262593892644 5 0 68 -8 -9 -36 -11 8
1532262593907604 -16 3 13 8 9 31 10 -5
1532262593937525 -6 0 -6 -4 -4 8 83 5
1532262593967445 -3 13 31 13 -1 -16 -32 0
1532262593990383 14 18 -45 -1 -2 7 6 10
1532262594012325 23 11 12 -9 -7 2 13 -1
1532262594042244 -6 0 -36 -15 -1 -8 2 5
1532262594067177 20 -15 -15 -1 3 9 6 17
1532262594118041 -10 -15 -5 3 -3 -2 6 2
1532262594139983 16 1 -9 -6 0 4 4 -1
1532262594252681 -28 13 7 -5 -6 7 14 0
1532262594335460 4 1 56 -1 30 -34 -2 6
1532262594357401 -6 13 1 -58 -27 26 -10 -1
1532262594410260 -13 -34 -7 -2 -1 1 12 -10
1532262594440181 -18 -11 -6 -13 0 5 -1 -10
1532262594494041 0 1 5 6 3 1 -1 -1
1532262594537919 -3 4 -3 3 -3 -22 -23 -7
1532262594635657 12 3 27 -12 45 41 9 1
1532262594672559 -13 -3 -24 -32 -65 -25 -24 -8
1532262594747359 -3 -17 2 5 18 -1 -25 8
1532262594770298 -6 -9 18 -9 5 -18 -38 -1
1532262594800218 0 -2 5 -2 4 0 6 -4
1532262594845098 -11 9 9 12 9 13 26 0
1532262594889979 -5 -31 21 0 0 2 8 -4
1532262594919897 -6 -37 -35 -6 -1 4 23 4
1532262594979738 7 36 59 20 7 6 4 7
1532262595032596 2 12 -58 9 3 2 -2 -5
1532262595070495 0 -1 -22 2 -1 2 0 8
1532262595137316 -7 -15 14 -2 -1 -3 -7 -7
1532262595167235 -6 -9 7 -10 2 20 7 5
1532262595213114 0 13 33 -2 -11 -12 -5 -8
1532262595279936 1 -3 -61 6 2 1 -9 -15
1532262595309854 -7 14 8 9 -7 3 -17 -11
1532262595324814 1 -24 20 -2 5 7 0 37
1532262595385652 -4 16 44 10 7 19 12 -6
1532262595430532 -8 6 27 1 1 -13 -4 -8
1532262595452473 3 2 46 -4 5 7 -18 -6
1532262595497353 -1 -7 -31 -10 -4 -6 -4 1
1532262595520292 6 10 0 -1 1 -5 1 8
1532262595542233 -6 -11 -43 7 0 10 2 4
1532262595565172 -3 -13 10 -14 -3 30 -7 -12
1532262595603071 -4 -9 -13 4 2 -1 5 21
1532262595632991 -2 -11 -47 -7 1 0 -2 -2
1532262595699812 -5 -10 -1 -5 -4 -7 5 3
1532262595790570 -11 5 22 2 -1 5 3 5
1532262595827470 16 -4 -29 7 0 -2 -3 8
1532262595857400 6 10 -92 -25 -7 -2 -2 -4
1532262595948148 -6 2 39 11 -3 1 -3 5
1532262596014969 9 5 9 6 0 13 -5 3
1532262596180527 8 -20 31 5 2 1 1 11
1532262596217460 -6 -30 -50 -2 1 -6 -6 -14
1532262596247366 7 5 0 -3 -6 -4 -1 14
1532262596285264 -6 16 44 3 -2 5 3 -15
1532262596397963 4 2 11 2 8 3 -2 -14
1532262596419904 -3 -5 11 -3 -4 10 -4 -6
1532262596457804 -1 -7 -7 3 1 1 1 4
1532262596472762 3 11 12 2 22 3 2 -11
1532262596494705 -1 11 6 -10 0 -12 -3 -7
1532262596540581 -5 -7 -2 2 4 -3 -3 1
1532262596577492 1 -8 -14 24 9 0 3 6
1532262596615382 1 0 -7 2 19 4 0 -3
1532262596675221 2 -2 -3 -6 -2 0 -1 -2
1532262596698160 -5 -12 -9 -4 -1 1 0 1
1532262596720101 -1 3 5 -1 -4 -1 -1 -2
1532262596735061 -1 -1 -1 1 6 -1 -3 5
1532262596758000 5 4 -1 1 1 2 2 2
1532262596824821 1 -8 -10 -4 -7 1 -1 6
1532262596870698 -2 -6 -5 -3 13 4 0 -1
1532262596885700 1 -3 3 4 4 -1 2 -1
1532262596907640 0 -4 -9 1 7 4 2 8
1532262596923597 -2 -2 1 -2 -2 -3 -3 -4
1532262596937558 -1 -6 -2 1 2 -2 -2 -2
1532262596967479 1 4 0 0 1 -2 0 0
1532262596990425 1 10 -2 1 2 1 1 -3
1532262597020338 1 9 1 -2 -5 -2 -2 -1
1532262597042279 -1 11 1 -2 1 -1 0 0
1532262597065217 8 15 2 11 1 0 0 2
1532262597103116 -7 -20 -5 -3 -4 -1 -1 -1
1532262597133037 0 5 -16 -5 -1 -2 -2 0
1532262597154978 4 43 1 3 0 0 0 0
1532262597184898 -3 21 -22 -27 -6 1 -4 -5
1532262597199858 0 17 -70 -1 -3 0 -1 0
1532262597222796 1 5 29 1 0 -1 0 -2
1532262597237757 -2 0 28 -1 2 -3 -1 0
1532262597275655 0 5 17 -5 -2 1 -1 -1
1532262597297596 3 6 9 5 2 0 2 1
1532262597328514 -5 -25 -36 4 4 1 0 -1
1532262597342476 -1 -3 -25 2 1 0 1 0
1532262597380375 -1 -3 -16 1 1 -2 -1 0
1532262597402316 -1 24 -8 -9 -4 -2 -3 -2
1532262597448205 1 -2 7 -2 -1 0 -1 -1
1532262597470135 -1 27 -15 -5 -3 -1 0 -2
1532262597500054 2 26 -36 -3 0 -1 0 1
1532262597529975 -2 6 14 -5 -2 -1 0 -1
1532262597552914 3 9 -1 -10 -4 -2 0 4
1532262597582834 2 21 -23 4 3 -2 -5 10
1532262597635692 4 -4 104 -5 -5 -7 -5 -7

1532262597657634 9 -3 29 -29 -11 -5 -1 -31
1532262597672594 4 -8 33 -9 9 1 6 10
1532262597695532 7 -16 -52 4 -5 -9 -2 3
1532262597732434 1 6 10 -12 -7 1 1 -2
1532262597762354 -3 1 -14 -14 -8 -6 -1 3
1532262597792273 0 5 -4 25 16 2 3 2
1532262597808231 -2 6 3 -5 -10 -5 -2 0
1532262597868071 3 0 -19 -1 -5 -4 0 3
1532262597890013 2 8 54 4 1 0 -1 1
1532262597927911 1 -4 -7 -6 -3 -2 1 1
1532262597942871 -7 -2 -21 2 1 -1 -2 -3
1532262597987751 -4 -22 -54 -9 -1 -1 -1 -2
1532262598010690 4 -19 -18 -6 -4 -4 0 5
1532262598025649 1 2 4 1 1 3 0 -1
1532262598062551 2 -3 -5 2 0 0 1 1
1532262598077511 -3 -3 -25 -2 -1 0 -3 -2
1532262598100450 0 -2 8 -3 -3 -4 -2 1
1532262598130369 1 7 21 2 -1 -10 -5 -1
1532262598145329 1 -8 -2 2 1 4 2 1
1532262598160289 -1 -2 -1 1 1 2 0 0
1532262598190210 -3 1 49 0 1 0 -1 -2
1532262598213148 3 7 14 0 -2 3 3 -1
1532262598250049 -1 3 17 2 1 5 1 -2
1532262598272988 -1 3 11 -4 -4 -1 -2 -2
1532262598317868 2 -1 -17 -9 -5 -5 -3 1
1532262598347788 1 5 18 2 1 3 -3 -2
1532262598362748 -1 8 6 0 1 0 -2 -2
1532262598415617 -1 -4 1 -3 -2 -2 0 0
1532262598430567 -2 3 -5 2 2 1 0 -4
1532262598445527 -3 9 14 -1 -2 -1 -1 -4
1532262598490406 -2 -3 3 6 1 2 -5 -5
1532262598507362 -2 -4 -3 -3 -3 1 3 2
1532262598550269 2 13 42 2 0 1 0 1
1532262598603128 2 1 0 -2 0 -1 -2 2
1532262598633048 0 -3 23 7 0 -2 1 -2
1532262598684909 -4 1 -46 5 3 5 0 -2
1532262598714829 0 5 -18 -2 2 17 5 3
1532262598729800 5 6 -22 -3 -4 33 22 3
1532262598760706 15 11 -5 1 -1 -8 57 25
1532262598775666 -3 2 -4 -8 -2 24 32 8
1532262598805586 -23 -102 -17 -7 -10 -51 -21 -15
1532262598835506 11 32 -82 17 -2 -9 -5 1
1532262598857470 2 -5 2 -27 -6 -7 -4 0
1532262598880409 2 16 46 -2 14 16 0 2
1532262598895368 -4 -8 -16 6 -6 -10 -4 -2
1532262598910329 3 4 3 11 17 12 -2 -1
1532262598955208 2 3 -6 4 0 11 -1 1
1532262598970168 0 2 16 2 3 1 -4 -1
1532262598993107 2 -4 -1 5 6 -3 1 1
1532262599008067 -6 -38 -11 1 4 -4 -2 -2
1532262599023028 2 10 -8 -4 0 4 -1 0
1532262599052948 4 18 -2 13 9 3 0 0
1532262599074889 1 0 -20 -2 -9 0 2 2
1532262599104809 1 -18 -47 20 20 8 0 1
1532262599119768 -5 -29 -26 -1 2 0 1 -2
1532262599142707 1 7 16 -7 -10 -2 -2 3
1532262599180606 -1 2 21 -9 -7 -1 0 -1
1532262599202547 -21 -17 36 -7 -8 1 -2 -19
1532262599217507 0 -35 35 5 -2 -5 0 3
1532262599240446 7 8 -37 0 -2 -2 0 7
1532262599330206 -4 -20 -15 0 -2 -2 0 3
1532262599383064 9 7 -3 -2 4 0 4 19
1532262599428942 -2 -13 -7 2 -9 -4 0 -9
1532262599442904 -7 1 3 3 5 1 -2 -21
1532262599472825 -6 4 -1 1 -6 -2 -1 -5
1532262599502744 0 -10 -7 9 4 -5 1 1
1532262599652345 3 10 51 46 25 7 2 1
1532262599677278 -1 7 -14 -13 -76 -9 2 -1
1532262599697225 -2 -3 31 21 -98 -33 0 -1
1532262599735123 -3 6 26 -37 63 5 -4 -2
1532262599750083 -1 -4 -3 -9 -13 1 -2 -3
1532262599817902 0 -1 39 -3 -2 -4 -3 0
1532262599877742 -1 -6 5 -12 -3 3 1 2
1532262599945561 7 12 45 1 2 -19 -1 2
1532262600088178 -2 13 -35 -21 -5 -18 -6 0
1532262600155000 -16 1 26 12 -3 -11 0 -5
1532262600170958 18 -18 -32 5 3 20 18 8
1532262600230797 -3 -8 2 -1 2 13 -22 38
1532262600290637 16 21 -48 -9 -6 -4 3 5
1532262600357459 8 -3 74 29 1 -12 -7 -8
1532262600432259 -5 -6 23 -14 -14 -8 -2 5
1532262600508056 4 6 8 50 11 4 2 -1
1532262600604802 -11 -18 -10 -15 -7 -1 -1 -6
1532262600642696 -11 3 -6 -2 0 -1 -5 -6
1532262600657656 4 -1 -9 -2 1 4 5 1
1532262600725475 -13 -2 4 1 -1 -3 5 -14
1532262600809268 123 65 -20 -2 5 5 9 16
1532262601010712 15 2 -5 -2 -1 -2 -6 -9
1532262601070552 -17 -29 -7 -10 -12 -11 -22 -29
1532262601137373 29 -9 16 2 3 0 1 23
1532262601205192 -24 -2 9 6 1 -2 -1 2
1532262601356787 -6 -56 -47 -4 -2 29 1 -4
1532262601415629 -9 -7 35 -11 1 -4 1 6
1532262601445549 -17 -6 -2 -4 0 8 10 -6
1532262601482450 24 -12 -13 -6 -2 -4 -1 0
1532262601505389 49 15 5 -8 0 1 14 28
1532262601535309 -8 -15 -6 8 -11 -5 -1 -6
1532262601619085 38 -38 17 1 0 1 -3 6
1532262601656985 -24 -22 -5 -4 -1 -2 1 -9
1532262601686904 -4 18 2 10 4 3 2 -4
1532262601729790 10 9 -9 -17 -6 -2 0 7
1532262601752728 -4 0 -7 -5 -3 -3 0 2
1532262601827528 -34 -25 -5 5 1 -5 -8 -14
1532262601925267 0 15 1 9 -5 -6 0 0
1532262601970146 -7 -46 -17 4 -3 -13 -7 -5
1532262602008045 -17 16 -10 -8 7 -2 -3 -5
1532262602029986 10 0 -3 -33 -14 -12 -1 6
1532262602059906 1 -6 -39 8 -11 -10 -1 2
1532262602091821 -25 27 31 36 9 13 1 -6
1532262602166621 9 -11 2 12 -6 0 -3 -2
1532262602202525 6 -33 -8 -14 -10 -4 0 5
1532262602232445 1 14 -10 -3 6 1 1 -2
1532262602270344 3 16 0 -4 -1 -3 -4 -18
1532262602300263 -1 4 -5 -4 -3 0 0 -2
1532262602368082 -8 -12 -2 -2 0 -2 -3 -5
1532262602442882 11 1 9 2 1 2 1 9
1532262602494743 -10 -11 5 -2 -2 -5 -1 0
1532262602585501 0 -7 14 -23 1 -2 1 4
1532262602622402 -8 -85 -10 4 8 3 1 1
1532262602660300 -1 -9 -28 -10 -9 -3 1 0
1532262602682242 -2 7 10 -3 -5 1 0 -2
1532262602720141 -2 13 -31 7 10 0 -18 -6
1532262602743080 -2 -22 49 0 -6 -7 0 4
1532262602779981 3 14 73 10 6 2 -2 18
1532262602802919 0 4 -37 -9 1 1 0 -3
1532262602854781 -3 3 -44 -5 -5 -9 -16 -11
1532262602892679 -20 -9 26 1 -4 11 0 -15
1532262602945538 10 7 16 15 -2 87 -3 1
1532262603057240 -37 -2 16 39 27 0 -9 -11
1532262603110098 -26 -4 14 -8 -4 -3 -5 -3
1532262603133037 -16 6 -6 -4 -4 -4 -11 -3
1532262603147997 -6 16 9 2 3 0 6 -2
1532262603207837 -5 -41 16 -2 -1 4 8 -20
1532262603275655 -2 -18 -5 -2 -3 -6 -8 10
1532262603335496 -1 2 -7 0 -1 0 5 -4
1532262603395335 -26 -7 22 -12 31 0 -64 -14
1532262603425255 6 8 32 43 -16 -3 -10 1
1532262603463153 21 3 15 -6 -3 13 62 7
1532262603478114 -28 2 1 -1 6 -6 -54 -1
1532262603493074 9 -41 -6 -1 -2 -1 -5 -5
1532262603529975 -21 -15 2 43 13 2 5 2
1532262603552914 -4 5 21 0 -4 -5 -17 -6
1532262603589816 -1 3 5 0 3 -2 -3 -2
1532262603619735 -5 -5 -10 -6 -3 1 -6 -9
1532262603642673 -5 -1 -6 1 -1 0 -1 -9
1532262603687554 20 -1 -8 -6 -5 0 -4 6
1532262603710493 -5 5 4 7 6 31 7 0
1532262603762353 36 4 43 12 -3 -13 -8 2
1532262603785293 -26 -10 -39 -11 7 32 9 -4
1532262603815213 -8 -6 20 6 -23 11 -36 -3
1532262603845142 2 -2 91 49 10 18 -2 2
1532262603875053 -7 -4 10 -23 4 6 1 -1
1532262603897991 0 -34 16 6 9 -1 -2 -5
1532262603927911 3 -6 -33 -18 -10 -2 1 3
1532262603942872 6 33 -1 8 5 0 -11 8
1532262603972792 -24 -7 7 -3 -2 -10 -1 -10
1532262604017670 3 -12 -19 -10 -3 -10 -5 8
1532262604040609 -8 -1 4 1 3 6 3 0
1532262604077511 0 7 -4 5 -2 -2 0 -7
1532262604107432 -4 -10 9 -6 -1 -1 -5 -5
1532262604152311 0 11 40 3 2 4 6 -1
1532262604182231 8 20 11 7 1 -4 -8 -3
1532262604228109 -1 -68 -66 -11 1 1 2 11
1532262604250049 3 7 -13 -3 -1 -1 3 6
1532262604281965 -2 -18 -34 3 -4 -4 0 -2
1532262604311885 -3 -11 -22 3 -6 -11 9 11
1532262604324850 -4 -5 -65 3 2 9 5 22
1532262604377708 -13 -24 -58 -14 3 4 -3 -11
1532262604400647 17 21 0 13 1 21 5 42
1532262604460486 -3 20 93 11 -2 -6 -10 -5
1532262604520327 3 5 -42 -8 -1 -10 -6 5
1532262604640007 2 -20 -32 -17 1 12 7 11
1532262604707825 14 2 -1 -13 1 -20 7 23
1532262604729766 -5 -18 -20 1 -1 -4 5 -7
1532262604745723 -10 0 -63 -2 0 -13 -3 -18
1532262604782626 2 7 25 6 -1 9 10 11
1532262604805564 1 -16 8 -11 1 -1 -2 -7
1532262604880364 8 7 -6 -11 -5 5 6 21
1532262604949180 -11 -35 -116 -22 2 -4 0 -14
1532262604971122 7 -6 -59 -10 -3 -4 -7 3
1532262604985084 -5 -4 9 8 -8 -7 1 16
1532262605008023 2 -3 21 -1 0 -7 -4 5
1532262605029964 -5 7 9 0 -7 -4 2 -9
1532262605059884 -8 -1 6 5 -2 -18 -10 -11
1532262605089804 5 -2 1 -5 -2 -11 1 37
1532262605150641 -10 14 18 0 1 0 4 6
1532262605232422 -5 -9 1 0 -2 1 1 -5
1532262605300242 4 -4 -4 -2 -3 -2 -1 0
1532262605345121 6 7 17 5 1 -19 -5 11
1532262605383020 -9 -4 -4 -2 -2 4 -5 -41
1532262605404961 14 3 -1 -5 -4 -30 -8 47
1532262605427900 -8 1 -1 -2 3 5 2 -12
1532262605465799 3 17 4 -3 -8 -6 5 0
1532262605496716 -16 -1 -4 -3 1 6 -5 -60
1532262605510678 -2 -4 -5 -3 -13 -7 -1 -7
1532262605585479 3 -4 -7 1 2 -2 11 6
1532262605622380 0 -3 -7 -1 -8 -15 -3 12
1532262605668264 -2 -3 -8 2 7 -20 6 11
1532262605714135 -3 -4 -6 -4 2 0 -4 12
1532262605779964 2 1 2 -14 -12 3 1 13
1532262605811873 -6 -1 -4 6 -4 -4 -2 1
1532262605839799 -1 6 1 2 -17 -5 -2 -6
1532262605854758 1 -14 7 9 11 4 0 -3
1532262605892657 0 3 6 -6 1 -6 0 -2
1532262605915596 1 3 4 3 -12 -5 0 6
1532262605946514 -1 -3 1 1 0 -1 3 5
1532262605976434 -3 -8 -7 0 4 7 4 0
1532262606012337 0 -1 1 -5 1 4 -2 -2
1532262606042257 2 5 3 -4 -4 -4 -2 1
1532262606073174 1 4 -5 -5 5 11 -2 -8
1532262606110076 -1 -2 -1 2 0 -4 -2 -6
1532262606133014 1 6 0 0 2 -2 -1 5
1532262606169916 -4 -5 -2 0 -2 -1 0 11
1532262606192854 3 -3 -4 -7 -6 -1 -1 4
1532262606267654 4 4 38 -13 -3 -2 -2 1
1532262606290593 2 -2 -5 -7 2 1 -1 4
1532262606327495 0 28 24 5 -1 -3 -1 1
1532262606352427 1 51 20 -3 0 -2 2 3
1532262606395313 0 16 -3 2 0 -3 -1 -1
1532262606410273 -4 -22 27 1 -1 -6 -6 -3
1532262606447174 -2 -9 -33 -2 -4 -2 -1 0
1532262606478092 -3 4 11 0 -2 -4 -1 0
1532262606522975 -3 -15 -27 -3 1 1 1 1
1532262606604753 3 -19 -53 -2 2 -1 0 -1
1532262606687531 -4 -7 51 5 2 -1 1 9
1532262606755350 12 19 88 -5 -2 -11 0 63
1532262606785270 4 -22 -27 -6 -2 -13 -14 -27
1532262606816188 -6 -27 48 8 4 11 7 16

1532262606830151 -1 20 69 69 26 10 2 -13
1532262606868048 -4 10 -35 -7 -4 -2 -3 -7
1532262606883009 -3 9 1 -4 -7 -2 1 7
1532262606905381 3 6 3 21 6 10 1 3
1532262606927323 1 -2 -18 -6 -1 1 -3 -5
1532262606942282 0 -9 -1 12 7 0 -2 -1
1532262606972202 -3 6 13 2 -1 0 -2 -5
1532262606995182 -2 5 8 -26 -10 -5 0 -1
1532262607018121 -1 11 6 -4 -2 -2 -1 -1
1532262607048041 0 -1 21 1 -6 -1 -2 0
1532262607084943 -4 -9 -1 13 5 1 -1 -4
1532262607137801 -6 0 -8 -2 0 -4 -1 -1
1532262607152761 0 -1 -19 -4 -3 2 -2 -1
1532262607174703 2 -1 16 4 0 2 1 3
1532262607250514 0 -2 1 4 1 0 -2 -2
1532262607280433 0 -5 -43 -8 -4 -5 0 -1
1532262607325314 0 -3 -4 -4 -3 -7 -5 -2
1532262607340274 0 3 23 2 0 1 1 1
1532262607357237 -1 6 -13 1 2 4 -4 -2
1532262607385154 -1 -8 -15 1 -1 2 -2 0
1532262607424050 -1 -2 21 2 1 -3 -1 0
1532262607444994 1 -11 -12 -8 -3 0 -2 -3
1532262607468174 -1 -4 19 -1 1 0 -2 -1
1532262607483133 -1 2 8 -3 1 -4 -3 -3
1532262607505075 -2 10 -33 -16 -6 -3 1 -1
1532262607543000 3 -1 18 -18 -5 -3 0 2
1532262607564942 -4 -9 40 -5 -3 -1 1 0
1532262607587880 -6 -32 -101 1 -5 -33 -22 -5
1532262607609822 -1 2 -14 -5 3 17 3 19
1532262607632760 -19 27 29 1 -1 -8 -17 12
1532262607654701 2 6 0 5 8 10 -3 -22
1532262607707573 1 -7 -31 2 3 19 12 4
1532262607760419 8 49 5 -31 -8 -10 -3 -6
1532262607812280 -5 -5 -3 -4 -4 -3 -4 -7
1532262607939939 1 -7 4 11 13 -2 -2 -4
1532262607977838 4 -3 4 -69 -17 0 11 -1
1532262608007758 -32 -15 0 -31 -20 -10 -32 -9
1532262608052638 5 13 6 5 -1 -3 4 1
1532262608067597 -2 1 16 -6 12 4 -3 2
1532262608097518 1 3 14 0 -6 -3 0 0
1532262608127437 4 -5 -16 11 0 0 1 1
1532262608165336 -5 12 25 -5 -11 -2 -2 1
1532262608188275 2 29 56 -15 5 4 0 0
1532262608218199 -3 -7 -9 -1 -2 -2 0 -1
1532262608240140 -2 -2 -6 13 7 8 2 -1
1532262608278034 -1 -12 12 4 3 0 -1 -1
1532262608299976 1 -6 -42 4 -4 -3 -1 -3
1532262608344856 -3 -3 26 -19 -22 -11 -3 -1
1532262608367795 -3 6 16 -47 -17 13 4 2
1532262608412675 2 -2 23 9 -3 -2 -1 3
1532262608442594 2 10 4 -13 12 15 2 4
1532262608472515 3 2 38 10 2 3 2 -5
1532262608585214 -3 -3 -29 14 8 -33 0 9
1532262608615133 4 1 55 -7 -3 3 -3 -5
1532262608682952 11 -9 53 38 13 0 1 3
1532262608749773 17 35 11 -18 -7 -14 -2 7
1532262608847512 4 -6 77 -4 -9 -27 -5 -47
1532262608900371 6 -15 4 1 -3 38 9 30
1532262608961210 -4 -4 83 19 -1 -1 -1 8
1532262608975171 -2 1 2 -17 -10 -3 -1 -5
1532262609042989 -20 -12 -49 -49 -5 0 -2 -10
1532262609109811 -24 11 -4 50 14 3 -7 1
1532262609185608 5 10 3 8 7 1 28 5
1532262609275368 -22 5 16 13 -7 -10 -16 -36
1532262609358146 -54 -34 7 7 3 5 -2 -27
1532262609417986 -95 35 18 4 2 1 4 4
1532262609477826 46 -3 3 -2 3 1 -40 18
1532262609725165 -10 -36 7 14 5 3 -6 -25
1532262609859805 2 37 -46 -1 -3 0 1 1
1532262609905682 -6 10 -29 5 1 5 -1 -1
1532262609935602 0 28 -24 -1 -4 0 -2 0
1532262610002424 7 6 14 -1 -5 -5 1 3
1532262610017384 -19 -11 17 0 -2 -1 3 1
1532262610055282 14 -1 -49 -29 -19 7 9 6
1532262610176957 -8 -5 15 23 27 9 -9 0
1532262610213857 13 -21 15 8 3 0 11 -6
1532262610250770 22 36 -2 0 -4 -3 3 8
1532262610280679 -10 5 -3 -1 -4 -5 -5 3
1532262610295640 5 -6 16 -1 -5 -5 -2 -6
1532262610340523 3 12 59 15 2 -1 -1 -6
1532262610362461 -13 -18 23 8 2 1 -1 -1
1532262610407341 -17 9 -57 -6 -5 -13 -8 -33
1532262610453222 -31 -10 -11 -2 -2 1 -12 14
1532262610498098 5 10 1 6 -2 4 10 1
1532262610557939 12 16 -22 1 -1 21 12 16
1532262610587858 5 -21 -18 -8 -1 -12 -26 -3
1532262610624760 11 46 7 -4 5 1 3 -3
1532262610640716 -1 27 1 -3 6 -5 -21 -1
1532262610670637 -5 -53 9 -12 -34 1 5 4
1532262610692578 2 1 -2 2 -14 -8 2 3
1532262610722498 17 10 -7 2 15 21 -2 1
1532262610760397 -3 -12 -2 -14 2 -3 -9 0
1532262610782338 10 7 -5 -3 11 2 1 4
1532262610820237 8 -27 -6 -3 22 5 1 14
1532262610858135 -4 20 5 8 15 5 -3 -3
1532262610917975 -13 17 1 -1 2 1 0 -13
1532262610969837 -7 -3 5 -1 1 1 -1 -23
1532262610999757 1 -20 1 -5 1 6 2 15
1532262611037655 1 18 9 6 26 18 6 6
1532262611083543 -3 1 -4 8 7 3 1 1
1532262611112455 -4 16 2 -20 -14 6 1 0
1532262611127415 5 -4 0 11 -2 2 0 0
1532262611165314 4 -14 -9 2 15 2 -2 -3
1532262611203213 -22 -1 1 -8 20 2 -7 -10
1532262611323897 5 -3 19 5 -19 -2 -1 -5
1532262611346829 6 -1 -34 -5 16 6 13 4
1532262611367773 0 0 -62 28 -9 -1 -5 0
1532262611390727 -7 2 61 -4 9 -4 -2 -6
1532262611412653 -1 10 80 6 17 68 -8 -28
1532262611435591 -10 4 -56 7 18 -30 -9 -3
1532262611450551 48 5 -33 5 6 -42 1 15
1532262611473490 -10 -2 31 -12 3 -4 3 5
1532262611502413 20 2 22 -9 16 -15 18 8
1532262611533330 9 1 42 6 20 -2 1 0
1532262611563255 -7 1 -18 -9 4 12 -6 1
1532262611600151 -3 -5 20 0 6 38 -32 -5
1532262611623093 4 3 12 -3 6 -9 0 -16
1532262611668967 -4 1 16 24 3 -11 12 9
1532262611697890 0 16 7 -2 -3 -2 2 2
1532262611727821 -7 6 33 -8 -1 1 0 -1
1532262611742770 14 12 1 -1 -2 -4 1 -4
1532262611802610 -17 6 13 3 6 58 17 -3
1532262611848487 1 10 6 -10 -15 -21 -9 -5
1532262611887383 -12 -2 2 0 24 -5 2 -1
1532262611922291 -1 8 39 41 9 22 6 3
1532262611953218 -10 4 23 21 3 -2 -1 -7
1532262611968167 10 3 3 -2 2 -5 0 -7
1532262611990108 4 -6 -10 -5 5 5 33 13
1532262612013047 3 -14 17 0 -1 2 2 -5
1532262612034988 0 -26 -11 -14 -6 -5 -5 8
1532262612064908 -3 13 10 0 -5 -1 -2 -6
1532262612079869 10 -17 -2 6 5 -4 -7 -8
1532262612094828 2 1 -4 0 1 -2 -8 0
1532262612109787 -2 3 6 5 1 1 1 4
1532262612140706 -5 -20 -3 6 -1 1 -2 0
1532262612162647 5 1 1 -1 -3 0 -1 4
1532262612200545 -17 1 -2 -3 -1 1 -1 -2
1532262612252407 -9 -4 -7 2 -1 16 2 -4
1532262612305265 -7 2 -12 -6 -10 -16 0 2
1532262612358124 -1 -8 -49 -8 -7 14 7 3
1532262612424946 19 -1 33 2 -5 -2 0 -2
1532262612447884 6 -4 4 2 0 -2 -9 2
1532262612514705 -8 3 1 7 0 -5 0 3
1532262612567564 -16 -2 6 -1 3 0 1 -7
1532262612582524 -6 2 10 8 -3 0 -1 5
1532262612657339 -1 -8 -8 -6 -3 -3 -1 -1
1532262612710182 3 7 -2 8 7 5 4 3
1532262612770023 4 18 47 19 6 3 2 2
1532262612784983 -17 -54 -108 -8 -5 8 28 8
1532262612807922 -3 3 63 22 14 -5 -4 -10
1532262612859783 6 10 52 12 4 1 -5 2
1532262612882721 -1 -11 -19 -18 -10 -7 0 1
1532262612950540 -4 -5 -30 -9 -5 0 -6 -4
1532262612987441 -1 8 4 -11 -6 2 -1 -11
1532262613019356 -8 -7 -37 -2 0 -21 -8 -1
1532262613033319 4 -7 -24 -7 4 -1 9 32
1532262613047281 4 5 56 6 9 0 5 -7
1532262613062242 3 3 20 4 2 5 -6 5
1532262613123079 -5 -5 9 5 -2 24 1 -2
1532262613174940 -14 9 -12 7 0 15 5 11
1532262613242759 -5 -10 44 0 -5 26 -2 -14
1532262613257719 -2 31 -41 20 -5 -5 -4 -32
1532262613310577 -13 2 2 7 5 2 14 -42
1532262613332519 9 -23 -21 -7 -4 -25 -7 13
1532262613347479 -3 7 -48 -1 0 29 -1 12
1532262613400337 -5 16 -15 2 -4 -25 0 -3
1532262613423276 -2 -7 23 -11 -1 -1 1 11
1532262613460177 0 -5 108 3 -3 19 6 -14
1532262613490106 1 0 12 -2 -1 9 -1 -4
1532262613564897 4 6 26 0 -2 1 3 0
1532262613588833 6 -3 -12 -2 -2 -4 -1 2
1532262613624737 -9 -16 55 16 2 64 7 -3
1532262613670615 -12 -3 -36 -2 -3 -25 -5 -11
1532262613692555 2 0 -11 0 -2 -2 -4 2
1532262613730455 2 8 18 2 0 -8 0 0
1532262613752396 8 10 -6 -1 0 -2 -3 7
1532262613805255 1 -20 -39 -2 -1 -19 2 12
1532262613835175 0 6 10 4 2 5 2 4
1532262613902992 -2 2 4 1 6 21 2 -7
1532262613924935 2 0 4 -3 7 -3 -2 3
1532262613962834 6 7 -1 1 5 -20 -4 13
1532262613999735 -2 -25 18 1 -19 1 -1 -15
1532262614106449 -4 1 -11 -21 -12 5 -4 -4
1532262614135372 -1 -3 -25 3 -3 -5 -3 0
1532262614151329 -2 -6 -15 -2 -24 -22 -4 2
1532262614180252 -2 -4 -10 3 24 10 -2 -12
1532262614225131 -3 -10 -15 10 -5 0 0 2
1532262614248070 -2 7 5 -1 -6 2 -2 -3
1532262614374732 0 14 19 -4 -14 -3 0 -1
1532262614442550 2 1 2 2 0 3 1 -2
1532262614465489 0 -2 4 10 16 4 2 20
1532262614519345 4 -2 8 -7 -8 1 2 0
1532262614690887 -2 -5 5 -3 0 -1 -1 0
1532262614712827 -4 -16 -30 2 0 -2 1 -1
1532262614787628 -1 -51 -27 1 1 0 0 0
1532262614855446 -2 -32 4 14 9 -2 -2 0
1532262614909302 0 2 43 -4 -2 -1 -2 -4
1532262614960172 5 20 -2 0 -3 -1 -3 0
1532262614998065 3 14 -41 0 4 2 -1 1
1532262615057905 -3 -21 19 -3 -2 -2 0 -2
1532262615079846 -9 -2 29 0 -3 -2 0 -1
1532262615132705 10 -1 -38 2 2 0 0 7
1532262615170603 -17 -32 -69 -9 -4 -18 11 39

1532262615267345 -3 7 5 11 0 1 -5 -9
1532262615297265 0 -1 -4 2 3 2 0 3
1532262615365083 -3 -7 9 10 4 -6 -13 3
1532262615484764 -3 -2 5 7 2 1 -1 -1
1532262615545440 2 -3 -44 -4 1 2 -2 1
1532262615567383 -2 -2 1 -2 -4 -3 0 -1
1532262615627222 0 2 16 5 2 6 1 0
1532262615726955 1 2 28 5 -1 3 -1 -2
1532262615777819 2 9 34 -5 -7 -3 -1 0
1532262615822736 0 1 -11 -3 -2 -1 -2 -3
1532262615905514 0 -8 -41 -1 0 0 2 10
1532262615950394 -2 -6 0 0 -2 -2 -1 -4
1532262615980315 3 -1 3 2 0 -6 2 1
1532262616033173 6 -13 -26 -2 -3 -8 -1 2
1532262616107973 -3 1 8 3 0 -3 0 1
1532262616212703 2 3 41 -2 -2 -1 1 0
1532262616280512 0 2 15 0 -1 -8 1 3
1532262616445072 -8 -2 6 5 3 1 0 -1
1532262616527576 -3 -15 -15 -6 -5 0 0 -1
1532262616587684 -3 -6 -35 1 1 -12 -3 1
1532262616677444 1 8 -3 3 -1 -1 -1 -3
1532262616730302 -2 12 10 1 1 0 -2 0
1532262616813080 7 1 -14 3 6 18 3 9
1532262616864943 -4 -3 19 5 4 -8 -3 1
1532262616879902 -1 1 28 12 4 21 9 -3
1532262616924782 0 -18 -29 3 3 7 3 0
1532262616947721 0 4 38 14 -3 -1 2 1
1532262617015540 -3 -7 -4 -3 0 -2 0 -1
1532262617037480 0 15 20 -8 -3 1 0 0
1532262617082362 -5 -13 24 6 2 -1 -3 -3
1532262617112281 1 14 6 3 1 -1 -2 1
1532262617142201 -3 -5 -6 28 7 -4 -4 -5
1532262617158158 3 -1 -11 -17 -9 -5 -1 1
1532262617203038 -2 -3 -4 -3 -5 0 0 0
1532262617254899 -1 16 12 -5 -10 -3 0 -1
1532262617292798 -1 2 -2 -3 -3 -2 -3 -1
1532262617345657 1 -3 -11 -3 3 4 0 1
1532262617360617 0 0 0 -11 0 -2 -1 0
1532262617375576 0 5 -39 15 -10 -1 0 -1
1532262617444393 1 18 49 15 12 4 2 0
1532262617465337 -4 3 26 -28 -13 -2 -4 -3
1532262617487278 3 -12 6 0 -7 -5 1 2
1532262617518196 -3 -5 55 9 -10 -7 0 0
1532262617563076 -4 -22 -36 -31 -8 -2 -2 -4
1532262617585016 -3 -1 0 10 4 -1 0 -1
1532262617607956 0 0 -22 3 0 -2 -2 1
1532262617631891 4 44 79 -1 -4 -1 0 -1
1532262617652836 6 14 -15 11 1 1 0 3
1532262617697731 -5 -6 -43 4 4 -1 -1 -3
1532262617765534 2 -10 -19 -6 -4 -1 -1 1
1532262617787475 8 15 11 -3 -5 -2 -3 0
1532262617870255 -3 -1 50 -29 -4 -1 0 3
1532262617923115 -2 16 99 -23 -1 7 -1 -18
1532262617938073 -25 9 57 2 1 5 6 -1
1532262618027833 20 -10 38 11 2 -31 -21 -11
1532262618117593 11 -18 43 -7 0 -8 2 48
1532262618132553 -2 4 -13 5 0 2 -22 -14
1532262618192393 -7 37 36 4 -9 -5 7 7
1532262618237272 5 5 6 -2 -3 3 5 14
1532262618275171 11 5 4 -12 -4 4 2 0
1532262618357950 5 3 -3 -31 -11 -3 1 -2
1532262618394851 14 13 3 1 4 2 1 -3
1532262618454691 -18 -18 -17 4 5 2 2 -6
1532262618492590 -2 17 29 11 -7 -10 -3 -17
1532262618568387 -6 -7 -8 -6 -7 1 -2 -10
1532262618605289 5 21 14 7 7 2 10 43
1532262618628227 11 18 -63 -19 -9 6 -2 29
1532262618673108 -21 -44 -2 1 2 3 -2 -13
1532262618688067 -11 80 32 21 2 -5 0 -89
1532262618717987 -9 -32 -14 -70 -17 1 -4 -33
1532262618739929 17 57 34 15 16 8 1 -32
1532262618754888 -28 -94 -33 6 -6 -8 -21 -56
1532262618784809 20 46 25 7 -2 -3 12 45
1532262618822706 15 -19 -21 53 25 6 6 22
1532262618845645 -3 -77 -7 -22 -7 -13 -17 -30
1532262618890526 10 50 -2 -26 -10 -3 -4 -54
1532262618905486 -9 52 -14 -4 -7 -3 0 17
1532262618957347 -8 -6 -26 1 4 -3 2 6
1532262618980285 -7 -20 -10 -4 2 4 2 -15
1532262619025166 1 -63 15 2 8 4 -2 -2
1532262619040125 -2 -71 79 0 -2 -5 1 -6
1532262619139860 -1 -118 -39 -2 1 1 2 0
1532262619174766 1 27 -46 3 5 -6 1 -1
1532262619189728 0 26 2 2 -5 3 -2 -2
1532262619212664 -16 33 10 10 -1 14 9 -6
1532262619235603 -13 4 2 1 2 -1 2 7
1532262619257545 23 -2 -2 0 2 1 -6 -1
1532262619332344 -37 -21 -1 0 2 0 -7 -13
1532262619416120 -4 -41 -6 -11 -13 16 -5 13
1532262619432078 29 -5 11 -13 -64 -6 -3 6
1532262619460003 -28 -1 -61 -14 -63 -21 -24 -15
1532262619482942 -5 -12 2 1 3 2 3 0
1532262619504883 35 24 15 13 14 7 2 10
1532262619519843 -12 11 32 1 1 -3 -6 -5
1532262619557742 18 -9 24 -10 1 -6 0 -15
1532262619587661 -11 22 -19 2 -1 -3 -4 1
1532262619632541 3 -3 -17 -4 -1 -1 -2 -4
1532262619692381 -26 11 5 1 -1 -1 -4 0
1532262619722302 -18 0 -1 -2 -1 -1 4 3
1532262619737261 -10 -4 -10 -4 0 4 7 3
1532262619775159 15 3 1 -2 -2 -3 0 -1
1532262619792114 4 -3 -21 1 4 -1 3 1
1532262619805080 -16 0 5 4 -3 8 3 -2
1532262619821038 16 2 -3 3 16 3 -6 -15
1532262619849960 0 4 42 -5 -13 -2 1 2
1532262619902818 -3 -3 -5 3 -10 -1 0 -1
1532262619932739 6 1 20 2 3 2 1 -6
1532262619977619 6 -4 -30 -25 -50 -2 1 0
1532262619993576 6 -9 -2 -4 7 -1 -3 -1
1532262620045437 17 3 -8 -2 20 5 0 1
1532262620076355 0 4 6 9 -22 -11 0 2
1532262620090318 0 -1 28 -9 47 13 3 5
1532262620112258 -2 -22 -4 -9 -51 -18 -3 -2
1532262620127219 5 -21 -2 9 19 -4 -3 -1
1532262620150157 -5 -11 -15 -8 -3 -3 -1 -2
1532262620173096 1 2 -11 3 -13 -6 0 -11
1532262620188056 12 -1 -5 -4 14 3 2 4
1532262620262856 -2 5 -4 1 1 -1 0 8
1532262620284797 15 -31 1 2 -5 -4 0 3
1532262620337656 -15 -1 -3 -1 -3 -3 -2 0
1532262620360595 6 5 -25 -2 -4 -1 -1 -5
1532262620405475 7 -12 1 -4 -6 9 -1 5
1532262620465315 10 31 2 3 -4 -1 1 2
1532262620495235 4 3 7 8 7 2 2 3
1532262620533133 -15 -11 4 10 9 -3 -3 -1
1532262620570035 1 34 4 1 -3 3 8 -1
1532262620584995 10 7 3 13 8 0 4 3
1532262620599955 3 -1 21 -10 1 -4 1 1
1532262620622893 10 22 -7 -5 -11 2 2 0
1532262620637853 0 19 -3 -8 -10 -7 -3 -2
1532262620667773 -2 0 -2 -10 -13 -2 -2 0
1532262620690730 -5 -2 9 0 -5 2 2 -1
1532262620712653 -2 -1 33 -15 -11 4 0 0
1532262620727613 -6 -3 6 2 7 4 -1 -2
1532262620750551 0 -5 -17 5 0 1 0 3
1532262620772493 -7 22 -111 -9 -7 7 4 -4
1532262620795432 10 -3 3 20 7 5 -5 17
1532262620832333 1 5 47 7 3 -6 0 -4
1532262620855272 0 -9 -49 -4 -10 -15 -6 -7
1532262620893179 -38 -10 2 -6 -9 4 -18 -14
1532262620923108 -3 -3 32 -2 4 25 0 10
1532262620953010 -7 -3 -65 -16 -11 -29 5 -12
1532262620982937 19 1 65 0 -2 -14 -1 12
1532262621021833 -10 7 26 7 1 3 7 5
1532262621042776 -7 -21 -10 -3 -1 1 2 -15
1532262621065715 10 -23 5 -9 -4 -8 -3 -5
1532262621080674 -13 -2 16 6 1 -1 6 -2
1532262621102616 -6 -7 12 3 2 2 1 -4
1532262621140522 -1 -7 -1 2 -3 -3 -4 2
1532262621177416 3 -6 -5 7 1 -6 1 -3
1532262621237256 -2 -1 -1 5 7 13 1 -6
1532262621260194 -1 3 10 32 17 10 6 3
1532262621283134 -13 -3 -1 -20 -12 -11 -4 -6
1532262621349955 10 -3 -26 -27 6 18 9 4
1532262621379874 4 -4 3 16 0 4 1 0
1532262621432734 11 -19 0 0 3 5 -1 9
1532262621462653 12 -3 3 -2 -8 -2 3 7
1532262621485591 -10 -11 1 1 -5 -15 1 -7
1532262621515511 9 1 9 -15 -5 -2 -2 -3
1532262621530472 -21 0 8 12 4 4 3 -9
1532262621552413 3 -6 -3 -1 -3 1 0 2
1532262621575352 -6 -4 -3 5 0 -2 0 6
1532262621597294 5 0 15 0 -3 -11 -3 -1
1532262621635192 8 11 -4 0 6 21 1 -5
1532262621688050 -15 -10 9 6 18 5 0 -2
1532262621754872 -1 0 33 68 8 -6 0 -2
1532262621799751 -5 -2 32 14 9 -1 -1 -1
1532262621837651 5 -5 6 -16 -11 -7 -3 2
1532262621875550 -3 -3 31 -6 1 0 -3 -3
1532262621935389 -2 2 -6 2 1 -2 1 3
1532262621972291 -3 3 -10 -3 0 6 -21 -4
1532262622040115 -1 9 5 2 -2 -15 4 -5
1532262622055069 2 -15 -37 10 -1 -1 4 2
1532262622099949 -5 22 24 -6 -2 -8 -11 3
1532262622182729 1 -13 -9 -11 4 -2 2 7
1532262622227607 -18 -15 21 3 0 -19 -10 -22
1532262622257528 -5 -3 -25 -3 2 21 10 -29
1532262622287448 11 16 14 -4 -3 15 7 11
1532262622340306 -1 -4 -5 -1 -5 -22 -12 -7
1532262622363245 -1 -6 -2 -2 5 -1 6 -3
1532262622393165 1 12 -26 -5 -1 -12 -3 12
1532262622445026 2 14 17 9 -1 11 1 -6
1532262622542765 -4 -2 3 -3 5 -18 4 23
1532262622610584 -17 -5 -9 3 4 -19 3 -10
1532262622625543 -17 -10 9 -3 -1 2 0 -7
1532262622685383 11 -7 -12 -3 -2 -10 -3 -2
1532262622753202 -9 -14 -1 -5 2 6 0 -1
1532262622849944 5 0 0 -2 -3 -3 -1 -3
1532262622894824 -3 -2 -8 -3 0 0 -3 -5
1532262622992563 -5 -11 -4 0 -10 -12 -1 -4
1532262623060381 5 0 0 -16 4 14 0 8
1532262623090301 3 3 -2 9 53 11 2 -20
1532262623143159 1 2 2 -12 -24 -11 -2 3
1532262623202999 -2 0 2 5 10 21 4 4
1532262623217960 -4 -5 -10 3 -9 -23 -2 -6
1532262623269821 -1 2 -3 -6 -25 -16 -2 2
1532262623315698 0 0 2 -4 -3 -1 3 3
1532262623330657 -4 -1 -5 3 13 -10 0 -2
1532262623352600 -2 -1 -1 1 0 0 -1 -1
1532262623375538 0 3 -2 4 -6 -6 1 5
1532262623397479 1 -1 -2 -1 -12 -4 -1 -7
1532262623427400 0 -1 1 2 -2 -3 -1 1
1532262623457320 -1 -3 -3 -1 1 4 -1 2
1532262623480258 1 2 4 3 1 -2 1 0
1532262623495218 2 -4 -2 -2 7 3 1 1
1532262623518157 1 -1 -3 -3 -2 5 -1 0
1532262623548076 0 25 -1 -9 4 9 0 2
1532262623592957 3 3 4 -6 -4 -2 -1 -3
1532262623607917 0 -3 -2 -6 5 -1 0 0
1532262623667757 -2 -10 25 -5 -8 -5 -2 -1
1532262623682717 2 -13 0 -5 -2 -1 -1 -1
1532262623697676 0 10 18 0 0 0 -1 0
1532262623750535 -2 3 -11 0 -5 4 -6 -2
1532262623772476 -2 -4 -6 -4 -4 -5 0 1
1532262623810375 0 5 6 1 1 1 1 0
1532262623825336 -2 -1 3 0 -8 -3 -2 0
1532262623870215 0 -3 4 0 3 1 -1 -1
1532262623893154 -1 -8 -11 0 1 0 0 -1
1532262623923089 -1 2 -6 -1 0 1 0 0
1532262623945015 0 34 60 -4 -2 -2 -2 -1
1532262623959975 5 26 -19 5 -1 1 1 3
1532262623974936 -1 17 20 -3 -3 -2 -3 -3
1532262623997873 -2 2 56 0 0 1 -3 -1
1532262624012834 1 -2 -33 1 -1 0 0 -1
1532262624034776 -3 -1 -12 -3 1 -2 -1 -2
1532262624080653 2 28 12 2 0 1 -1 1
1532262624110573 -1 7 2 -3 0 -1 0 -3
1532262624125533 2 13 43 -4 -4 -2 -1 0
1532262624162433 -3 -4 -8 5 1 0 0 -3
1532262624177394 -3 -1 22 3 -4 -1 -1 0
1532262624222273 2 -6 -21 2 0 1 1 0
1532262624253191 -4 4 2 -3 -1 0 0 0
1532262624298071 1 -5 29 0 -2 -2 0 1
1532262624327991 1 -2 -2 0 1 0 2 0
1532262624372871 2 -7 -68 -6 -1 1 -2 0
1532262624447671 4 34 72 -11 -2 -2 3 97

1532262624552391 1 18 11 -22 -9 -21 -3 -2
1532262624605250 0 2 12 25 20 2 -3 1
1532262624643148 2 0 -2 -3 -3 6 1 -1
1532262624658109 2 -1 8 0 -3 7 3 5
1532262624673068 -2 -11 -9 -3 0 1 -2 -1
1532262624695048 -1 -4 -3 1 -1 0 3 -2
1532262624709860 0 -4 -4 1 -1 -5 -2 -1
1532262624739780 -1 3 4 -19 -7 0 -4 0
1532262624777678 -2 6 17 -1 -1 -7 1 1
1532262624800617 -1 5 6 -2 -5 0 0 -1
1532262624815577 -3 -3 -17 -1 -2 0 -2 -1
1532262624852479 -2 -1 8 -1 0 -1 -6 -3
1532262624867439 1 -5 -21 0 1 0 0 0
1532262624905337 -3 -2 -10 0 -5 -5 -3 -2
1532262624920297 1 3 30 28 12 2 -1 0
1532262624973156 -14 -16 -32 25 -8 -5 -7 -11
1532262624988116 0 16 39 0 0 -4 0 2
1532262625025018 -3 0 -35 3 7 50 23 -7
1532262625047955 -7 0 -1 1 4 22 13 -17
1532262625069897 1 -6 5 -2 2 -13 9 80
1532262625084858 -14 11 4 -2 -2 4 -20 -7
1532262625107796 -8 -6 -93 7 -1 5 6 -22
1532262625129737 -8 23 -46 102 27 -13 -5 -20
1532262625190574 4 -2 64 -17 -4 1 0 -17
1532262625212516 6 9 34 3 -2 -1 -5 28
1532262625257396 0 1 -21 -4 -7 -4 4 -2
1532262625287316 0 27 -3 -1 9 7 2 -7
1532262625340177 -3 0 -13 2 -4 0 0 8
1532262625370095 -9 24 -2 -3 1 -2 -2 4
1532262625407993 -3 0 69 -5 -8 -3 1 1
1532262625459855 -1 -3 -20 -6 0 2 0 2
1532262625513710 7 0 -23 2 -7 3 2 10
1532262625542633 -2 30 -37 0 -2 -2 -1 -1
1532262625572553 -4 -14 16 -2 -3 2 0 -7
1532262625602473 7 3 7 1 -5 0 1 17
1532262625617434 -1 17 2 1 -1 -2 0 1
1532262625685252 -3 -2 -12 0 -5 -1 -5 0
1532262625783988 2 5 -1 -13 4 3 1 -1
1532262625812911 -1 10 11 -15 -32 -4 -3 -2
1532262625857791 0 -8 -23 -30 -11 7 1 0
1532262625887711 4 8 -5 -8 -14 2 2 4
1532262625910648 -2 -6 2 21 1 -1 1 -3
1532262625962511 2 -2 -14 27 -6 -16 4 2
1532262625977470 -1 -9 5 -21 10 14 2 -2
1532262626045289 1 14 67 6 18 7 -2 0
1532262626105129 -1 -12 22 -1 9 5 -1 0
1532262626164969 1 -1 66 -8 -3 -2 -3 -1
1532262626179929 0 -14 -44 -8 -2 -3 0 -2
1532262626194889 -2 2 -15 5 1 1 -2 -2
1532262626254729 -13 17 44 11 4 -62 0 -1
1532262626300606 -65 -42 26 -7 -22 -18 -25 -50
1532262626367428 21 -39 -55 -70 -17 -7 -9 -12
1532262626397363 -18 46 19 -4 -5 16 11 -47
1532262626435262 -3 35 -88 -14 -6 9 -5 5
1532262626504082 11 28 25 -10 -5 2 -2 -1
1532262626584861 -3 -5 -1 11 6 6 6 -2
1532262626614780 3 18 -86 -15 -5 1 1 7
1532262626675618 1 7 -8 -9 -1 0 0 -2
1532262626720498 14 1 2 10 5 0 2 2
1532262626772359 16 30 11 10 5 5 4 9
1532262626855138 14 -6 -13 30 7 3 5 -3
1532262626878077 26 3 -1 -8 -2 3 4 -1
1532262626914978 26 64 21 1 -5 -8 -10 7
1532262626944898 36 86 9 -3 -5 -5 -8 17
1532262627004738 13 -71 3 -5 -4 -1 -4 23
1532262627027677 10 -4 10 4 2 1 -5 25
1532262627050615 6 63 5 -1 -4 1 8 81
1532262627127415 7 -37 -24 -12 -12 -10 16 68
1532262627149351 -39 -45 -39 -3 -14 -9 -11 -52
1532262627185255 28 17 43 3 2 -3 12 25
1532262627230135 -53 29 -9 -4 -2 -2 -4 -24
1532262627282994 49 28 -2 -3 7 4 13 13
1532262627342834 -2 7 1 0 -5 -11 11 -8
1532262627364775 11 -1 2 3 -2 2 -15 2
1532262627381729 4 38 -19 -1 -1 -3 13 0
1532262627410653 -3 -78 55 7 -1 28 -7 -2
1532262627425612 5 33 99 7 16 4 5 -1
1532262627447553 10 13 88 6 -10 -2 0 2
1532262627500412 5 28 7 4 -1 -24 -1 2
1532262627537313 -4 6 -50 -3 2 -12 -2 -2
1532262627552273 0 9 8 1 -9 -13 0 -3
1532262627622087 -29 -9 -14 1 -13 -8 -3 -4
1532262627657991 6 2 -11 -2 0 -3 -8 -3
1532262627679933 2 1 13 -6 0 0 6 0
1532262627732791 17 0 -1 0 -13 -6 3 8
1532262627747750 -19 13 6 8 7 6 10 1
1532262627770689 -11 14 6 -2 0 -5 -10 3
1532262627785649 15 29 -5 13 14 -1 -11 2
1532262627815570 -17 12 9 -5 -11 5 3 1
1532262627845489 1 3 -11 0 4 1 11 5
1532262627860449 7 -11 -14 -3 -15 -7 18 3
1532262627890369 -7 -14 19 -2 8 -3 -4 1
1532262627912312 15 16 -7 34 -6 -2 8 4
1532262627958188 -2 36 7 -15 -5 -2 2 -8
1532262627973148 -8 4 -72 -6 -10 -3 5 -2
1532262628010049 10 1 18 -7 -5 1 -1 8
1532262628062908 8 -7 6 -12 -3 -4 -2 -4
1532262628152668 3 14 1 -3 -1 -2 -3 -5
1532262628227468 1 4 4 -3 -2 -5 -2 2
1532262628280326 2 5 -1 0 0 -6 -2 1
1532262628333186 1 19 -7 -6 -3 2 -2 -1
1532262628355126 10 -6 4 2 24 5 2 3
1532262628393026 3 44 -13 -4 -1 17 10 4
1532262628437906 -17 2 0 -10 0 -5 -5 -4
1532262628452865 13 4 4 21 -4 -6 -1 0
1532262628489767 -16 6 2 10 -4 -1 -2 -6
1532262628512706 -4 -3 -1 14 23 -7 -3 -7
1532262628550604 10 -13 19 12 9 5 0 5
1532262628587505 -1 10 9 -2 5 -3 0 2
1532262628610444 0 10 4 10 -9 -5 -3 0
1532262628625403 5 19 -11 -11 -10 -3 -2 1
1532262628662305 2 -12 1 -5 0 -5 -2 -1
1532262628701213 2 -3 -2 -7 -4 -1 1 -6
1532262628715164 -4 -21 3 1 0 1 3 7
1532262628745084 -3 19 -1 -1 -3 -2 -2 -2
1532262628768023 -7 4 1 -3 1 -1 1 -8
1532262628804924 -5 10 1 -3 1 -1 -2 -1
1532262628940586 -6 1 -2 1 1 0 2 1
1532262628985441 -15 10 1 -7 -5 -6 0 2
1532262629000401 15 -23 -7 -18 3 3 1 3
1532262629054264 -11 11 15 4 9 -7 -4 -7
1532262629090162 -14 10 -1 -7 25 -2 0 -3
1532262629113100 -2 -19 -1 7 6 1 5 9
1532262629157979 -1 -3 5 -13 -7 -7 -1 3
1532262629179921 2 1 6 19 4 0 -3 -4
1532262629254721 1 29 -1 -3 7 3 1 3
1532262629307580 -4 4 -4 -4 -1 -1 0 -1
1532262629368417 -1 -5 0 -5 -3 -4 -1 -2
1532262629450199 -2 1 1 2 -1 1 1 2
1532262629518017 3 10 52 9 5 4 -1 18
1532262629577858 -10 -6 -10 -10 -4 4 2 -15
1532262629637697 -1 1 -52 -8 -7 34 -8 -1
1532262629653655 1 5 -70 -19 -1 -71 -15 -11
1532262629705516 -2 -21 -80 -2 11 -19 4 -24
1532262629802257 16 11 9 0 -10 60 76 23
1532262629857110 -6 8 -6 -21 -10 -14 6 12
1532262629893015 18 26 -25 33 26 5 4 10
1532262629937894 10 -2 13 -6 10 -8 1 -4
1532262629959836 1 -3 8 -23 -20 -21 -5 -2
1532262630042614 30 29 11 16 8 14 11 2
1532262630065557 -7 -6 -5 1 -1 1 -2 -30
1532262630102454 31 4 2 -2 -1 1 -13 -1
1532262630132374 -3 -6 -9 -4 -4 -12 -5 -2
1532262630155313 -16 -14 8 -1 8 16 8 10
1532262630185232 24 3 -14 -3 -6 -59 -6 14
1532262630208172 -10 -2 29 6 12 -5 4 2
1532262630230113 -3 9 17 29 26 20 2 -1
1532262630260033 7 -3 -10 -7 45 21 8 3
1532262630289953 14 -17 -85 -31 -61 -3 -5 5
1532262630304912 3 -3 10 -12 -8 18 1 2
1532262630334833 5 9 29 -11 21 6 -2 -9
1532262630387692 20 -22 -6 -6 22 -5 -10 5
1532262630410629 8 14 0 -1 0 -15 4 15
1532262630447531 -35 10 8 0 1 6 1 -2
1532262630485430 28 21 1 -1 -6 -4 -1 -4
1532262630530311 -36 -4 0 -4 0 2 1 -7
1532262630553257 -2 4 3 6 5 0 2 7
1532262630575191 5 0 -3 -10 3 -8 7 1
1532262630605110 -4 -4 -4 2 9 -6 -3 -5
1532262630657968 15 21 0 -11 7 -7 -7 7
1532262630679910 7 -1 17 -11 3 51 -5 -8
1532262630702848 -12 -10 -5 6 -4 11 4 -2
1532262630755707 -4 -9 -2 1 -78 -18 -9 -5
1532262630792609 0 0 -8 -21 -9 -8 4 0
1532262630815547 -14 -14 1 -15 -7 -8 -4 -11
1532262630830507 2 -60 -19 4 13 8 4 1
1532262630875387 11 21 0 11 2 1 -3 5
1532262630905308 2 3 0 4 2 -2 -4 -19
1532262630943215 16 -2 -9 0 5 -3 -6 -16
1532262630967142 22 -2 -12 -3 0 -1 1 8
1532262630995067 16 -37 -4 4 6 1 2 21
1532262631047926 -12 -21 -13 -10 1 2 0 -2
1532262631069867 -4 -1 -7 -2 -2 -2 -1 0
1532262631145670 -5 -8 6 7 -2 3 -4 2
1532262631167606 -1 -2 4 -5 -2 -3 0 -3
1532262631197526 -2 8 16 -7 -2 7 0 -2
1532262631257366 0 1 28 -3 -5 -4 0 -1
1532262631288283 -7 4 -19 -3 -8 -9 -5 -9
1532262631363083 0 1 -14 0 -10 -8 -12 -3
1532262631422923 0 -16 -45 -12 -3 15 4 16
1532262631437884 8 13 -53 5 -6 -8 -5 5
1532262631459824 5 -2 -41 -2 5 5 8 29
1532262631505714 -3 3 -9 -4 1 -1 8 -1
1532262631527643 -3 6 5 3 -5 -8 3 11
1532262631558561 0 -5 14 -4 2 0 2 17
1532262631580501 -3 -6 -6 9 1 -2 1 6
1532262631611420 -10 -12 -37 -6 -5 -1 -4 -19
1532262631632364 -11 4 33 -11 -10 0 -4 2
1532262631647323 4 3 7 -2 -2 -3 0 6
1532262631670261 2 11 3 8 0 -2 -1 -5
1532262631700182 11 9 80 9 2 -11 -5 28
1532262631715141 -12 -10 -14 4 5 7 1 -11
1532262631738081 1 3 29 6 2 9 10 33
1532262631753041 5 -20 -13 -7 -3 16 4 52
1532262631774982 7 19 -1 15 2 -12 -7 5
1532262631804901 -4 -6 19 -1 -1 0 -3 2
1532262631842801 0 -1 -38 1 7 5 -1 -32
1532262631872720 14 -7 -29 -4 3 3 4 7
1532262631925579 -11 -14 -59 1 0 -3 0 -5
1532262631940539 6 7 26 1 -3 -20 -2 24
1532262631992401 13 4 -19 1 2 -2 0 2
1532262632022320 -3 -10 -1 -7 -1 1 0 -6
1532262632202837 -8 -2 6 1 -2 -2 0 3
1532262632270656 -3 -1 -14 -5 -3 -3 -1 -4
1532262632345456 0 3 11 -2 0 -1 -2 -7
1532262632382357 1 -2 -2 0 -4 6 2 9
1532262632427238 -2 6 6 -5 -3 -6 4 9
1532262632459153 4 -3 -37 6 6 -13 -2 14
1532262632480096 0 -2 1 -4 3 2 3 0
1532262632503034 -6 8 -19 -5 1 -15 -7 -35
1532262632532955 -2 2 11 -1 7 -2 -1 5
1532262632562876 1 -1 -29 6 6 7 5 10
1532262632584816 -1 1 3 -13 -5 -7 -1 4
1532262632607755 0 2 -20 -6 -7 -1 -2 4
1532262632631691 5 -4 2 7 0 8 0 -4
1532262632682555 -1 3 6 -2 -2 6 0 -4
1532262632712474 -2 -4 -12 -6 -6 -3 -4 1
1532262632757354 1 -5 -5 -3 -1 -2 1 3
1532262632780293 -1 -6 -2 -1 1 3 0 -5
1532262632802235 0 1 -14 -2 -9 1 -2 -2
1532262632818192 -5 -10 -19 -9 -3 -5 -3 -6
1532262632833152 0 -2 -7 1 1 -2 -2 -2
1532262632855093 -1 13 19 1 2 -1 2 -6
1532262632885014 -4 -12 -13 0 -2 1 0 -9
1532262632907952 2 2 1 2 14 4 -2 -1
1532262632929893 0 -9 -2 0 -3 -4 -2 -4
1532262632967792 -4 -1 3 -3 -4 0 -3 -12
1532262632990745 1 4 5 -3 -6 -2 -1 -2
1532262633027632 0 4 27 3 -3 1 0 -2
1532262633042592 -1 0 -4 -3 -4 -3 -1 -3
1532262633065531 -3 -9 0 -6 0 -1 0 -1
1532262633095451 1 -8 -1 -1 1 0 0 2
1532262633110412 -4 -22 -22 -2 -1 0 4 -2
1532262633140331 -3 2 26 -4 0 -1 -3 -2
1532262633162272 1 -28 -11 -2 2 0 -2 1
1532262633193189 -3 4 69 2 -1 0 -1 -2
1532262633230091 4 28 29 2 0 0 1 2
1532262633253030 0 -43 8 1 0 -4 -2 3
1532262633282950 -3 -23 -11 -2 -1 0 -2 0
1532262633304890 0 3 29 5 4 -1 0 2
1532262633319851 0 -10 -16 4 1 0 -1 -1
1532262633342789 -1 5 16 -6 -4 -2 -1 -1
1532262633364730 -4 -10 -20 -2 -2 -2 -3 -2
1532262633380698 0 -8 -37 1 3 -2 0 0
1532262633402629 -5 -10 -18 -1 -4 -2 -2 -2
1532262633440528 2 2 -33 -2 -2 -3 0 0
1532262633455487 -1 24 114 -1 0 -1 -2 0
1532262633500368 0 -4 0 4 -1 -2 1 1
1532262633530288 -2 -10 25 -4 0 0 -1 1
1532262633568187 -2 -17 -38 -3 0 -2 -9 1
1532262633598106 4 -2 9 -8 -2 2 0 12
1532262633628026 9 13 59 1 -1 5 -4 29
1532262633672918 -27 -29 24 -9 -4 -7 -12 -4
1532262633717791 -7 -4 -1 -52 -14 0 17 -12

1532262633740725 -6 -27 -28 -46 -21 2 6 -9
1532262633770645 -3 1 2 28 12 0 3 -1
1532262633792587 1 -9 0 -12 -4 0 19 0
1532262633815526 -8 -26 -18 -7 0 6 -10 -13
1532262633837466 -2 0 16 14 13 9 1 0
1532262633867408 2 -10 -7 -4 -4 -7 -2 0
1532262633905319 -2 29 -5 6 2 0 1 0
1532262633935239 -8 12 -2 5 -1 0 -7 -12
1532262633973143 0 4 -8 3 -2 -9 -3 3
1532262634024999 1 -7 31 22 4 -2 -3 -2
1532262634092818 3 2 9 0 0 0 -1 1
1532262634108775 1 -14 -67 -14 -5 -3 -2 0
1532262634129719 -2 2 32 5 -2 0 0 0
1532262634145677 7 33 1 1 -5 -3 -1 2
1532262634175596 -6 -48 -35 -2 -1 -6 -3 -8
1532262634205712 -9 -8 -29 -7 0 0 -3 -7
1532262634227655 3 -23 -8 -7 3 43 -2 46
1532262634259570 11 -26 -26 -4 -2 -17 2 -2
1532262634295474 -1 -2 78 -13 -1 2 22 -11
1532262634317415 -3 5 -13 -7 -4 -14 7 -4
1532262634340354 2 24 74 17 -4 -4 -21 -4
1532262634415154 -1 -4 -5 -16 -17 -21 -24 15
1532262634474993 3 6 -12 3 -6 -5 2 0
1532262634504913 -2 -6 -6 6 -6 -4 -3 -2
1532262634534834 -1 1 28 5 -3 -2 -2 -2
1532262634564754 0 -3 5 -3 -3 -2 0 -2
1532262634595670 2 7 -1 11 -1 -2 -9 8
1532262634617612 6 -26 -26 -1 -5 -1 -2 -14
1532262634671483 -3 4 -4 2 -7 0 3 -10
1532262634685430 9 -11 -6 0 6 1 0 11
1532262634707372 -5 26 -38 -8 -2 -2 0 2
1532262634730317 0 -9 42 0 -1 -1 1 1
1532262634752252 3 -12 7 -5 -4 -5 -1 0
1532262634790151 16 -20 9 5 7 3 0 33
1532262634813089 -3 -15 8 -2 4 1 0 -17
1532262634828050 11 -6 -8 0 1 1 1 -1
1532262634849991 -15 6 6 1 0 1 0 14
1532262634917810 -5 1 0 1 0 -1 -1 -8
1532262634932770 10 -3 -4 0 -1 -1 1 7
1532262634947729 11 -1 -1 0 -3 1 0 16
1532262634970668 0 6 2 -1 -2 -3 -1 -4
1532262634992610 -7 -4 0 1 -3 -3 -1 -5
1532262635007570 -4 4 0 -2 -2 1 -1 -11
1532262635037489 -4 -2 -1 0 1 -1 -1 -2
1532262635060428 -1 -1 13 1 -2 -2 -3 -3
1532262635084364 0 -3 24 2 -1 -1 0 -4
1532262635097329 -3 -3 4 1 0 0 -1 -3
1532262635128247 -2 0 -25 -4 -4 0 0 -1
1532262635150187 -4 -2 -1 1 15 3 -1 0
1532262635173130 1 2 -10 -1 -2 0 0 1
1532262635188087 -2 -1 -1 -3 -7 -5 -2 -3
1532262635210028 -1 -9 2 -5 -7 -5 -1 -1
1532262635239948 0 0 -5 4 8 6 1 0
1532262635254908 -2 -21 -59 -20 -3 -2 -1 -1
1532262635292808 -3 -5 -103 -9 -28 13 1 1
1532262635307767 0 12 43 -3 -19 -12 -3 -3
1532262635330706 -2 -4 73 2 21 7 0 0
1532262635352646 0 -9 -81 -3 -7 9 2 1
1532262635375585 3 3 5 10 -61 -13 4 3
1532262635397527 2 1 64 25 -12 -22 -3 1
1532262635457367 1 -1 -21 4 23 3 0 0
1532262635487291 -1 -7 40 -15 16 13 -4 -3
1532262635533164 0 2 -14 -7 0 -14 -9 -3
1532262635548125 0 6 -69 -12 2 -18 -1 2
1532262635563084 -3 -9 -70 0 -1 -21 -9 -3
1532262635593004 -18 -5 -59 6 13 18 9 3
1532262635607964 1 0 81 10 9 34 14 5
1532262635675783 14 1 70 -11 -3 -11 1 10
1532262635697725 3 -12 28 -31 -11 8 -5 -2
1532262635772523 -30 0 38 -35 -1 -10 -4 -23
1532262635847324 -16 35 -33 -15 -9 -84 -24 -7
1532262635877244 -11 -51 -3 -8 -3 85 7 15
1532262635900183 -10 -12 -10 -6 -2 -31 2 20
1532262636012881 8 10 86 6 -2 -17 1 19
1532262636034822 1 2 5 -23 -8 -7 -5 -14
1532262636110619 -23 -10 19 -65 1 4 0 -3
1532262636177441 15 25 34 -2 -7 -3 1 3
1532262636305099 6 58 8 4 -2 -5 2 42
1532262636373916 -37 -55 -21 -13 -10 -29 -5 -27
1532262636492598 15 -44 5 5 -2 -17 -19 -27
1532262636567398 13 17 -6 -1 -5 -8 8 22
1532262636650177 36 -34 6 5 3 -9 -6 -4
1532262636732955 -4 -17 -3 -6 -1 -6 -4 -5
1532262636852636 -3 -10 -20 12 13 11 -3 -4
1532262636868593 -2 1 20 -12 -15 -2 0 0
1532262636882555 8 11 -11 1 3 2 1 0
1532262636920454 -6 -6 -26 -3 -8 -2 -1 -2
1532262636950374 -28 -16 -77 -4 0 7 -3 -4
1532262636987275 5 -10 -6 2 4 -1 -1 -2
1532262637002235 9 -9 -3 -4 -11 -3 -1 -3
1532262637025174 -6 -9 -5 8 18 1 -1 -1
1532262637048112 -27 -14 10 4 -32 -6 -1 -1
1532262637122913 -11 7 0 -9 0 -2 -1 -3
1532262637182752 11 15 28 57 19 14 10 10
1532262637205692 7 -8 7 -22 -2 -4 -4 1
1532262637227632 15 -54 39 18 4 0 0 0
1532262637242593 -8 10 -47 -12 -17 -10 -2 2
1532262637272513 -11 25 4 1 20 3 -4 -2
1532262637295451 -13 6 -22 -16 -6 1 -3 -12
1532262637349308 -23 -74 -4 1 0 1 0 1
1532262637363270 11 -7 -9 3 1 -1 -4 -3
1532262637385212 12 -18 -18 -8 -4 -2 -5 -4
1532262637423122 15 7 -6 -5 -5 -4 -1 11
1532262637445052 -5 -6 4 0 -3 -1 -2 -1
1532262637467990 -9 0 6 0 -2 -1 1 1
1532262637542791 0 16 -2 -6 -2 -1 -1 -1
1532262637587669 -13 0 -1 5 2 2 -1 -4
1532262637611606 19 -2 -2 0 0 -4 0 3
1532262637670448 -9 -8 1 23 31 10 2 1
1532262637685409 17 -23 -3 -4 -16 5 1 0
1532262637700369 -6 28 10 25 -3 -13 -2 -3
1532262637737270 -4 -20 1 4 9 -22 -11 -6
1532262637753230 -6 -12 0 81 -23 -9 -2 -3
1532262637775168 -17 -23 -12 -112 113 19 -13 -13
1532262637813068 32 -24 -9 -121 -38 15 0 4
1532262637835008 3 5 -2 59 -88 -15 -4 -2
1532262637864929 -10 -24 -2 0 93 -5 -1 -4
1532262637902827 -6 0 -8 -44 -6 -23 0 10
1532262637933744 7 -26 0 5 0 -5 0 4
1532262637947707 -14 -15 -2 17 21 8 1 5
1532262637985606 -18 2 1 -8 -6 -3 -4 -29
1532262638030495 8 12 -2 -1 -4 -2 2 39
1532262638052427 -1 20 -1 1 4 1 -1 1
1532262638105285 3 6 0 5 6 2 0 4
1532262638165126 5 -6 -2 -1 0 -3 -1 2
1532262638217985 6 2 0 7 -3 0 0 -2
1532262638254885 -2 4 1 -3 -2 4 1 0
1532262638292784 11 0 4 1 17 13 3 6
1532262638307744 1 -4 -3 -9 -43 -7 -2 -6
1532262638337664 -3 -52 -12 -10 -8 -6 -4 -2
1532262638367585 -10 15 8 20 -36 -4 -2 -3
1532262638390523 4 -2 -10 -5 -4 -3 1 4
1532262638420443 1 39 4 0 53 15 -1 1
1532262638435403 4 -4 -13 -10 -88 -14 -3 -2
1532262638465323 7 -1 0 8 4 -1 1 0
1532262638497237 0 2 -7 21 -57 -4 0 0
1532262638518182 5 -5 -6 -13 -13 -13 0 2
1532262638540125 4 24 6 -12 29 0 0 -1
1532262638563063 3 19 -5 -16 2 -7 -1 0
1532262638585003 2 3 1 -1 19 4 0 -1
1532262638652821 4 -5 -3 -7 14 -1 -1 2
1532262638667782 8 13 10 -1 5 0 -2 -1
1532262638727621 4 -42 -6 -5 6 0 -1 -2
1532262638802422 -1 22 6 1 1 -3 -5 -23
1532262638870240 4 0 20 6 7 -3 1 -1
1532262638900160 -7 1 102 -10 2 0 0 7
1532262638915121 13 8 6 -2 -26 -10 0 4
1532262638945040 -20 -4 -42 17 -6 -1 7 2
1532262638982939 5 3 34 11 14 2 1 -7
1532262639027819 -11 -4 63 25 -3 10 -3 -6
1532262639080678 20 9 -13 1 -1 -11 -1 1
1532262639095637 2 0 -10 -11 8 -2 4 -4
1532262639140526 -16 -25 1 -5 8 1 0 -1
1532262639155478 1 -7 4 -2 -2 -2 0 3
1532262639207338 -5 1 -4 -4 6 0 0 22
1532262639222299 -9 6 -6 1 2 -3 -1 -12
1532262639245238 12 -6 -7 -1 4 3 0 1
1532262639268177 11 10 0 -3 -2 -2 -1 2
1532262639298096 12 5 -7 -3 2 1 1 -4
1532262639334998 -4 7 0 3 0 1 2 7
1532262639409797 -3 -5 3 12 0 -1 1 5
1532262639425754 -23 5 -4 -2 -3 20 -3 -6
1532262639537456 -11 -1 -1 -20 -2 -2 3 1
1532262639576353 7 -3 10 44 32 8 -1 -2
1532262639612256 4 17 0 -20 -6 -3 -1 2
1532262639628213 14 -3 -12 -23 1 -3 2 0
1532262639650155 14 -20 -16 -12 -6 -1 0 11
1532262639688053 -18 15 11 1 6 5 1 -42
1532262639709995 -11 -15 9 17 7 1 0 -7
1532262639724955 2 4 0 -3 3 1 1 10
1532262639769835 22 7 0 2 1 -3 -1 12
1532262639800752 -21 -20 0 4 1 1 1 5
1532262639860591 20 8 -5 -5 0 2 -2 -8
1532262639897494 12 -7 -4 -7 -3 -1 1 0
1532262639965312 -7 -7 -6 -8 -20 -2 -5 -10
1532262639995231 0 -1 16 -1 -12 -11 -5 -5
1532262640048090 8 10 7 -9 -13 -6 -3 13
1532262640129872 -23 2 5 2 1 3 0 -6
1532262640161786 -4 -22 2 3 3 2 0 -7
1532262640189712 14 -24 1 6 5 1 -4 -3
1532262640205669 -24 10 7 3 2 4 2 -8
1532262640235589 -17 -2 2 3 0 2 -2 -20
1532262640257530 13 -3 0 -2 -1 0 2 12
1532262640317371 -6 6 1 1 2 -1 -1 -4
1532262640408127 3 -6 -8 -3 -3 -1 -3 -4
1532262640490922 5 10 2 0 1 -1 -2 2
1532262640549749 3 9 23 8 13 2 7 5
1532262640617568 1 -13 73 2 5 -10 -4 -1
1532262640715307 -4 -5 29 -6 -12 -9 -3 -7
1532262640745226 0 9 -45 7 9 -14 -5 -6
1532262640769165 -4 4 -17 -3 -4 3 8 -7
1532262640790106 4 3 56 -5 4 17 8 10
1532262640805066 4 -3 -12 4 -2 5 7 -2
1532262640820026 3 0 -9 3 6 -1 3 -1
1532262640887845 4 5 12 6 -3 -6 -1 6
1532262640902805 4 -7 -15 -7 -3 -5 -3 7
1532262640947685 3 -3 -39 0 1 17 3 16
1532262640971621 -6 -10 -30 -6 0 -5 -4 0
1532262641007525 -1 5 23 -8 -11 -19 -3 17
1532262641022485 -4 -1 -12 0 6 0 0 18
1532262641067366 -4 -1 -47 7 -1 -2 -2 -16
1532262641090304 10 5 -14 1 -4 -15 -1 32
1532262641128203 -2 -3 -61 2 4 1 4 -5
1532262641143162 8 6 8 -6 1 -10 -1 5
1532262641165104 4 -1 -85 2 13 4 -4 -18
1532262641195024 -13 -18 -68 -9 -1 2 -11 -10
1532262641239935 -13 -3 10 6 1 -2 1 -10
1532262641284815 -6 1 44 0 -1 -1 2 5
1532262641315739 11 1 35 1 2 -4 -1 11
1532262641367594 -9 4 52 4 1 -4 0 2
1532262641382554 3 0 -10 -3 2 5 4 3
1532262641435413 3 4 10 -13 -7 -3 -3 5
1532262641503231 1 0 -7 -15 -3 2 0 0
1532262641533152 0 5 26 -8 -6 -3 -3 4
1532262641570053 1 4 18 -1 0 16 9 -6
1532262641637871 4 -2 -18 -1 0 -4 0 7
1532262641659813 -3 -1 -7 -3 1 2 -2 -4
1532262641720650 -3 -3 -4 3 -2 -27 -8 -19
1532262641742592 -1 3 14 3 7 -11 -4 -27
1532262641787471 -4 -3 3 2 1 6 0 2
1532262641802431 -2 -4 -3 -5 -1 0 -1 8
1532262641909146 -2 2 1 -1 -8 28 16 -11
1532262641930090 1 -1 -5 -6 5 12 0 2
1532262641967989 4 -2 -7 -13 -15 -21 -3 2
1532262642065729 -1 0 4 5 1 6 2 3
1532262642126565 2 -1 -7 -2 10 -4 -3 -5
1532262642156485 0 -1 3 11 21 18 5 6
1532262642177429 -1 0 6 -8 -19 -6 -2 1
1532262642207349 0 -2 -5 -2 -5 -4 -2 -2
1532262642237269 0 2 2 4 11 -4 0 9
1532262642260207 -2 -2 -1 10 12 1 2 -3
1532262642305087 1 6 3 9 30 12 0 -4
1532262642342986 0 4 -2 -7 -5 1 -1 0
1532262642358944 0 -6 0 -3 -11 16 -1 -2
1532262642403823 -4 -1 -1 -7 1 -3 0 -3
1532262642424767 3 0 -5 1 6 -1 0 2
1532262642470645 0 1 1 4 1 -3 -2 -2
1532262642500564 0 9 -20 -7 0 0 2 0
1532262642560404 -1 -1 -21 3 -1 -1 -1 0
1532262642612266 0 -33 3 3 0 -1 0 -1
1532262642643183 1 24 -12 -4 0 0 -1 0
1532262642665124 -1 20 23 8 0 -2 -1 -1
1532262642695057 3 16 -16 -3 2 0 1 0
1532262642762863 -2 -39 7 -3 -2 1 -2 -1
1532262642777822 -3 -28 -49 17 1 0 -1 0
1532262642837663 -1 -5 10 2 3 2 2 -1
1532262642860601 2 -4 5 -1 1 -1 -3 -1
1532262642935402 -5 -22 -15 0 0 1 -1 1
1532262642957343 3 9 49 -2 2 3 7 20
1532262643010202 1 29 10 0 -5 -22 -1 -67
1532262643040122 -8 -86 11 -5 -3 6 12 5

1532262643099962 13 40 -78 -66 -26 -12 -5 -9
1532262643144841 -1 -14 -14 -8 -8 -9 5 -2
1532262643205679 -2 11 47 15 5 3 0 -11
1532262643310398 1 -6 -9 -4 -2 7 3 -3
1532262643482937 -3 7 72 -2 -2 0 2 1
1532262643504879 -1 4 -9 3 2 -6 -1 -2
1532262643557749 1 -2 5 0 -1 0 -1 0
1532262643588231 3 8 1 0 -2 -4 0 2
1532262643692953 4 -4 18 -2 1 3 1 -1
1532262643729854 2 28 -46 12 2 -1 1 -1
1532262643782713 1 38 56 5 2 -12 2 17
1532262643805651 1 0 21 0 -4 -12 -8 -16
1532262643880452 1 38 56 5 2 -12 2 17
1532262643902392 1 0 21 0 -4 -12 -8 -16
1532262643987220 1 0 49 1 7 11 5 1
1532262644015145 -18 -8 -10 1 -7 -2 -7 -19
1532262644046063 -10 0 6 -6 -16 -6 -6 -10
1532262644074986 3 -18 -55 21 3 -3 0 1
1532262644104906 2 -5 -12 -2 12 2 0 4
1532262644149786 -1 2 -11 -7 6 0 2 -4
1532262644195663 -4 9 72 -4 6 3 0 0
1532262644292403 -1 -16 21 -4 -12 -10 -2 -2
1532262644368201 -1 -5 16 -3 -6 -4 -1 1
1532262644390142 -2 -15 -5 -6 1 -3 -1 -2
1532262644435023 -2 -1 -4 -3 2 -1 0 8
1532262644464943 -7 7 6 2 4 2 2 0
1532262644487881 6 3 2 4 4 1 1 7
1532262644539743 -1 6 2 2 2 -1 -2 -2
1532262644563679 -11 -18 3 -3 -4 0 0 -9
1532262644577641 -9 7 -4 0 2 -1 -2 -12
1532262644607562 -6 -3 5 -3 2 2 0 -10
1532262644630500 -4 -12 18 44 23 4 -1 -2
1532262644669396 1 11 4 14 -4 -1 1 0
1532262644690371 -2 3 6 12 6 4 1 -2
1532262644705300 -1 2 -91 -26 -7 -1 0 -3
1532262644735219 1 22 -10 -11 7 0 1 0
1532262644758159 1 16 -17 36 2 0 -1 0
1532262644780100 -1 -6 46 -5 28 3 1 2
1532262644817998 0 -2 -15 5 -2 8 0 0
1532262644832959 0 5 29 8 -13 -11 -1 -1
1532262644854899 -1 -6 -43 -10 -8 -2 -2 1
1532262644892798 1 -8 -43 -1 11 2 1 -2
1532262644914740 -1 -8 -69 -3 -5 3 0 0
1532262645035418 0 17 34 0 -13 -13 -4 -3
1532262645065337 -6 -17 67 55 56 -3 0 -1
1532262645148116 5 10 -39 3 1 9 6 23
1532262645192996 18 -14 -96 -9 -4 -4 -7 65
1532262645214937 -13 10 -71 10 -1 -10 -9 -2
1532262645252835 -10 -39 37 -7 -7 22 7 -79
1532262645297716 -27 -28 -4 -20 -7 34 0 1
1532262645357563 -39 -12 23 -14 -5 10 4 37
1532262645402436 8 15 25 12 4 1 3 -23
1532262645455294 4 0 11 -1 0 -1 1 7
1532262645477235 0 -5 -13 -4 -1 1 2 2
1532262645530094 -2 7 -22 3 3 -2 -3 4
1532262645582953 -16 15 -17 -9 -5 -1 -3 -3
1532262645612873 7 -11 -12 0 0 0 -1 -1
1532262645642793 -6 -20 -22 -4 13 5 -2 -3
1532262645657753 3 4 -6 1 -10 -2 -2 0
1532262645680691 -4 4 -3 -4 -1 -1 0 -1
1532262645747513 -5 9 0 1 1 0 -2 -5
1532262645800372 -17 -3 0 0 -1 -4 2 -7
1532262645822313 7 6 -2 -6 -1 -2 -4 20
1532262645875171 -5 20 -16 -6 -4 -2 -4 3
1532262645920051 38 86 34 2 2 -5 -1 12
1532262646009811 -106 -101 -7 -10 -5 -5 -3 -31
1532262646092590 9 -11 -3 -1 -3 -3 -31 -38
1532262646115529 63 19 2 1 4 11 32 30
1532262646205288 -1 -107 -6 -7 -3 -6 1 8
1532262646295048 -15 10 15 -4 -3 -6 -11 9
1532262646362868 -8 25 -35 2 -2 -1 -4 -11
1532262646386803 0 39 14 -3 -3 4 -3 -7
1532262646422707 -8 17 9 2 -1 0 -3 -6
1532262646505486 2 18 -10 7 -1 -34 -3 -6
1532262646520446 1 -4 -13 -12 -12 -49 -3 3
1532262646550366 3 8 19 4 -1 7 -1 4
1532262646580286 2 27 79 0 4 47 -2 -1
1532262646603235 1 -25 -36 -6 -6 16 7 3
1532262646633144 -3 -1 -6 2 1 13 1 2
1532262646655086 2 11 11 0 -6 7 -3 4
1532262646678025 -1 -10 -12 1 3 -27 -2 2
1532262646707944 1 1 7 3 7 5 -2 -2
1532262646722905 -2 -1 10 -5 0 5 3 -2
1532262646744845 -3 -12 7 -3 -3 1 3 -2
1532262646767785 -2 0 18 0 -5 2 -3 -3
1532262646790736 -2 0 14 -5 -7 -5 -1 -1
1532262646812664 3 11 0 2 -5 -6 0 -2
1532262646827625 -4 1 23 7 3 0 11 -4
1532262646850563 1 17 17 5 7 11 -5 6
1532262646872505 17 10 6 -6 -7 2 -9 9
1532262646887464 -1 -6 -24 1 -4 4 5 -5
1532262646910404 48 -28 -30 4 -5 -10 2 4
1532262646932344 24 3 -26 -5 -10 1 -3 6
1532262646955283 20 -3 -18 -1 1 -7 -15 -13
1532262646978232 2 9 12 2 0 -1 4 12
1532262647000163 -17 -38 -11 -2 -3 -2 -1 -2
1532262647015123 -1 55 43 -20 -9 -4 -4 10
1532262647104883 22 -27 -18 -1 0 -3 -28 10
1532262647142782 47 -3 5 -4 -1 1 -5 6
1532262647187661 10 24 -6 0 1 3 6 -3
1532262647202622 2 2 -4 5 3 2 8 3
1532262647240521 34 -6 -21 3 4 0 65 -1
1532262647262463 -21 -5 -9 3 -2 -3 2 -8
1532262647277421 -42 -17 -10 3 3 -1 -7 -19
1532262647330280 4 15 5 1 -1 -14 -1 2
1532262647345241 43 3 -10 -8 -6 17 8 8
1532262647398099 55 -33 18 -5 -43 -29 3 24
1532262647435000 -19 -20 12 -10 -2 2 -21 -3
1532262647449960 -27 -7 -27 23 17 -5 -6 -3
1532262647472899 13 6 14 -14 -55 10 -2 12
1532262647494841 -23 -26 -19 -36 -44 -2 -9 -19
1532262647524761 -8 -5 -42 -50 13 7 -5 -6
1532262647547699 12 47 6 -28 32 10 -5 -6
1532262647585597 -11 18 3 -11 7 3 -1 -2
1532262647622499 -14 -6 2 -23 13 5 -2 8
1532262647645438 28 0 0 -6 4 1 -2 -1
1532262647669373 -5 -3 -4 -15 -8 -8 -3 2
1532262647697299 -14 -33 9 4 5 5 1 -13
1532262647728217 -6 -4 2 -3 1 2 3 11
1532262647743176 -5 -10 -1 -3 -1 -1 1 -6
1532262647765117 -13 4 5 0 0 0 -1 -2
1532262647795038 -12 2 -3 -4 -1 3 2 -3
1532262647824958 30 -10 6 -1 3 14 4 14
1532262647862856 -2 -4 -15 -3 -7 -7 1 1
1532262647884797 8 -3 -6 -14 -12 -7 -3 -4
1532262647915715 10 5 -4 45 26 -2 0 4
1532262647945635 -13 -12 -51 -23 -11 7 -5 -9
1532262647961593 -9 -8 15 -15 -5 2 -5 -5
1532262647975555 -8 2 -4 2 6 4 -3 -1
1532262648012456 2 13 1 -16 1 -12 -4 -2
1532262648035395 -5 -30 -25 47 25 -10 0 -2
1532262648058334 -2 -30 22 -6 -38 -3 3 5
1532262648095235 7 3 10 9 50 19 1 1
1532262648110195 3 4 -4 44 -22 -14 1 -1
1532262648140119 4 0 2 -10 21 3 -1 -4
1532262648155075 5 11 7 -13 2 2 -2 -6
1532262648178013 -3 -15 22 8 6 7 3 -4
1532262648207933 12 -23 -10 -8 -2 -1 -1 3
1532262648229875 -17 -5 -1 3 -3 1 -1 -6
1532262648267773 -17 -3 -5 -6 1 2 1 -14
1532262648320632 4 -6 -5 -2 -3 -2 -2 1
1532262648417374 5 2 4 0 0 -1 -2 3
1532262648447293 4 39 4 -4 -8 -8 0 -4
1532262648493171 -1 -23 -6 -2 -8 0 0 1
1532262648539063 6 -13 23 0 12 1 1 8
1532262648560990 -20 -8 -40 -29 8 3 -5 -3
1532262648574953 -1 -4 -99 22 2 -3 -5 -5
1532262648597891 -3 7 -6 5 5 -1 -2 -8
1532262648634792 6 10 5 1 -5 0 3 11
1532262648649752 7 4 0 -1 -7 -2 -2 5
1532262648695629 18 8 0 -36 -62 -6 -35 -3
1532262648732530 -16 -6 -9 19 24 19 5 -17
1532262648755469 -3 2 71 -11 -34 7 0 2
1532262648770429 -12 3 -4 23 33 -9 4 -15
1532262648792370 4 2 -58 1 -7 -1 1 9
1532262648807331 4 -7 -1 5 0 8 -6 -2
1532262648860189 -5 -2 -64 -24 2 -9 0 -18
1532262648913048 0 -15 4 -1 8 -9 -11 -6
1532262648928007 7 4 5 1 -4 6 5 9
1532262648964909 -8 -3 58 6 -9 -8 -3 -4
1532262648994829 6 10 43 -4 6 0 -1 -1
1532262649032742 -6 -6 -6 -3 3 0 -1 -1
1532262649055667 -22 1 -3 3 -2 2 4 2
1532262649130466 -15 4 3 7 6 3 4 7
1532262649145427 3 -12 -8 7 3 -1 -2 -12
1532262649280641 -16 -6 27 -20 -2 -15 6 1
1532262649317528 7 13 38 18 2 7 4 -1
1532262649340478 -2 2 -3 -3 -15 -21 -7 -3
1532262649392329 -1 11 -34 -2 0 10 -1 -4
1532262649415268 2 12 -7 -2 -7 10 0 7
1532262649453166 12 28 14 7 5 15 4 -1
1532262649490067 -9 16 22 4 3 -5 2 7
1532262649549908 15 -2 -2 -4 -1 3 2 8
1532262649610744 6 -1 -5 -8 -3 3 3 5
1532262649692526 -1 -13 -87 11 -7 0 -2 -3
1532262649760344 10 -5 -6 -3 -22 6 2 6
1532262649805224 5 10 60 35 -14 14 -1 -2
1532262649874040 -22 -3 5 -8 -16 -7 -10 -21
1532262649917923 13 3 -10 -11 -8 -4 -4 -9
1532262649977762 7 -4 -1 -9 -5 1 0 2
1532262650307903 2 -2 -24 -14 -6 -2 11 0
1532262650397662 9 1 0 3 4 -5 -2 3
1532262650412622 9 1 4 2 -5 -3 -3 5
1532262650442542 -2 3 -4 4 3 3 -6 2
1532262650517342 -7 -6 -7 -3 -3 -5 -2 1
1532262650585160 -4 -12 -9 0 -2 2 -1 11
1532262650645999 -2 -31 -40 -1 -6 13 0 -10
1532262650697860 4 23 16 -18 -6 1 1 -5
1532262650787619 -15 5 -5 3 6 -1 2 -8
1532262650802579 4 3 -24 0 -4 -4 -11 -15
1532262650832499 3 7 55 6 7 -4 -8 -5
1532262650847459 1 20 29 -2 -2 3 -11 -18
1532262650892339 9 -2 9 -2 -1 -8 3 23
1532262650922259 -1 -6 -1 -4 5 11 0 12
1532262650945198 8 8 0 -8 1 -3 1 -10
1532262650998056 -8 14 30 7 -2 -3 7 1
1532262651027977 -4 20 69 6 -6 0 -8 7
1532262651087817 2 -1 1 0 1 -2 -2 2
1532262651140675 -4 0 17 1 -1 -1 0 -4
1532262651290276 2 -1 1 -5 -2 -8 -1 5
1532262651373053 4 15 15 7 2 4 -3 -29
1532262651409955 -6 0 -10 -8 -9 26 -1 13
1532262651432894 -11 1 11 1 2 4 2 2
1532262651484755 1 1 -4 -3 -4 -11 -1 -18
1532262651545593 1 -7 -10 1 1 0 -1 -2
1532262651606429 8 2 12 2 2 -4 4 23
1532262651627374 -4 4 1 8 -3 -21 0 -1
1532262651657294 -4 -8 -7 -10 0 -18 -5 -14
1532262651695192 1 7 10 2 8 22 3 7
1532262651718132 0 -3 -10 1 3 -5 0 -2
1532262651763012 -2 -2 0 -13 -15 -16 2 2
1532262651822851 -2 -7 -6 -6 -7 1 -4 -5
1532262651844792 2 -5 -1 -13 2 1 0 4
1532262651906627 2 1 -9 -5 -18 -2 -4 0
1532262651927571 -2 -1 -4 0 7 7 0 1
1532262651957491 1 -1 -8 -10 -15 0 -2 -7
1532262651972451 2 -8 -11 0 5 1 -1 1
1532262652002371 -14 7 22 2 9 2 -1 -1
1532262652025309 6 6 3 -1 -3 -9 -2 9
1532262652040282 3 3 0 -4 1 3 0 -3
1532262652055230 3 -4 -6 1 2 3 3 -3
1532262652070189 5 4 7 5 5 5 2 6
1532262652108089 0 0 -3 -3 -3 15 -1 -5
1532262652152968 4 2 10 -1 -9 -5 1 11
1532262652189870 -1 1 4 0 -2 -2 -2 0
1532262652235746 1 8 127 10 1 -4 -2 2
1532262652257688 -1 1 32 -11 -2 -2 1 -1
1532262652287615 2 -1 15 2 1 1 -1 1
1532262652310554 -1 -4 -23 -8 -2 -1 -2 -1
1532262652332495 -3 -16 17 1 1 2 -1 -1
1532262652347454 -1 -2 15 3 0 -2 -1 1
1532262652385354 0 15 -18 -14 -5 -1 -4 -1
1532262652407295 -3 -26 -15 14 0 0 -2 1
1532262652445193 0 -12 71 5 2 -2 -1 -4
1532262652468132 -3 2 -13 1 2 -2 2 -11
1532262652483092 -1 -8 -57 -1 -2 0 -3 -4
1532262652505034 0 12 -32 3 5 1 2 7
1532262652542932 -5 -33 -24 -5 1 3 3 -3
1532262652572860 -19 -3 2 -2 -2 -2 -3 -17
1532262652589806 9 7 -6 -7 -4 -3 -1 7
1532262652609754 0 -8 -12 -6 -4 -4 -2 4
1532262652648649 -2 7 -67 6 1 0 -2 2
1532262652670591 -1 -8 18 -3 -1 -1 0 -3
1532262652752371 -1 7 60 5 1 -1 2 0
1532262652775311 -1 -23 66 -2 -3 0 0 0
1532262652813209 2 -1 -40 -4 -2 1 -2 2
1532262652888009 35 -7 -62 7 3 -2 17 103

1532262652954830 -7 15 -2 -8 -3 -5 -11 -16
1532262652985748 1 -18 73 -11 -10 -5 -1 -9
1532262653000708 -3 4 12 4 0 -1 -2 -10
1532262653015667 1 -18 -3 11 5 -7 -3 -4
1532262653060547 1 20 0 6 -3 3 3 -1
1532262653090475 5 -7 -13 -4 -3 1 -1 2
1532262653112409 -10 14 -19 -5 1 4 0 -2
1532262653142329 2 -3 -3 -11 -3 1 5 3
1532262653180227 -1 0 -2 0 3 13 1 0
1532262653203166 -3 2 -6 0 1 -1 0 -2
1532262653233113 -1 -5 -15 -7 -2 -9 -2 1
1532262653255054 -1 12 -1 -4 -4 -2 1 -1
1532262653299934 -2 -3 -11 8 1 -1 0 0
1532262653314903 0 -1 11 -4 0 -1 -1 -2
1532262653367752 1 17 -20 1 -2 -4 0 -1
1532262653397673 -2 -9 -5 -2 -1 0 -1 0
1532262653457513 1 -1 2 -4 -3 -3 -1 -2
1532262653489428 -5 2 0 1 2 -1 -2 -2
1532262653511369 1 3 -6 4 -1 -2 1 -1
1532262653525332 4 -6 -28 -4 -1 -1 0 0
1532262653570211 -1 -4 3 2 -1 1 -1 -3
1532262653593163 1 5 30 4 -2 -2 1 3
1532262653615091 -2 10 14 -6 -6 -1 -2 -2
1532262653630053 -3 -15 8 -27 -8 2 1 2
1532262653645012 -7 -8 23 5 -2 0 -2 -4
1532262653674932 1 -9 -18 -15 0 1 4 4
1532262653697870 1 -3 54 -4 3 1 0 0
1532262653712830 0 6 -19 12 2 0 0 -1
1532262653727790 0 8 37 8 5 2 2 -1
1532262653780649 6 8 4 3 -4 16 1 15
1532262653795609 0 4 11 5 2 -6 7 5
1532262653840489 0 15 15 0 -1 -13 0 2
1532262653855448 4 42 18 5 0 -2 -3 -6
1532262653907315 0 -4 18 -6 -4 -1 -2 3
1532262653945209 1 0 -32 1 -6 -11 2 0
1532262653960169 -1 10 -16 2 4 17 4 4
1532262653975129 5 1 -3 -1 -2 -4 -3 4
1532262654049929 4 -1 -19 6 -1 -5 -1 0
1532262654079849 -4 7 28 19 -4 -1 2 -2
1532262654124729 0 8 -23 -11 -6 -4 0 1
1532262654155646 -2 -13 -104 -11 0 -4 -4 -2
1532262654200526 -7 -2 9 -6 1 -1 -2 -1
1532262654230445 -4 3 1 -7 -2 2 0 -1
1532262654252387 4 31 20 -1 3 1 3 0
1532262654275326 -4 20 33 10 -6 -2 -2 -6
1532262654297267 -2 -6 5 7 14 3 4 1
1532262654320206 -17 -5 7 -4 0 4 3 -18
1532262654335166 3 -18 -37 -7 0 0 -3 -5
1532262654358105 -7 17 -9 -3 3 0 -5 56
1532262654380046 37 2 -2 -1 5 18 57 -51
1532262654395006 -3 -26 2 -6 -9 1 -13 52
1532262654417944 -7 8 -1 -1 -3 -2 -26 -29
1532262654432905 6 -17 -2 4 0 -2 12 -8
1532262654447865 0 16 -2 0 -1 3 8 -5
1532262654477784 2 -7 0 0 2 0 -7 6
1532262654515683 2 16 -5 -19 -5 1 -6 -2
1532262654545603 0 -11 15 -2 -11 -5 1 -4
1532262654560563 3 -5 -30 -32 -3 -7 -3 -5
1532262654582505 1 14 -95 18 22 8 1 0
1532262654612424 0 -6 -86 16 8 0 3 -2
1532262654651321 1 4 50 1 0 -3 -3 -1
1532262654672265 1 0 7 -9 3 8 2 -1
1532262654695203 0 -3 -5 50 -1 0 -1 -1
1532262654725123 2 12 38 12 -17 -8 -3 -1
1532262654748062 -2 2 33 -18 -4 0 4 0
1532262654786958 -2 -13 -86 -3 -10 -7 1 -1
1532262654799923 -1 19 66 -10 -9 -4 -2 -1
1532262654837821 4 9 50 3 -1 -15 -2 6
1532262654875733 -7 -13 -98 0 1 -1 1 -4
1532262654935560 -40 -4 34 12 5 12 0 -48
1532262654957502 25 5 -28 -23 -4 2 1 17
1532262655025320 -3 7 2 -16 3 -2 0 -10
1532262655063219 -6 -12 -57 9 1 8 10 13
1532262655123059 -34 40 7 -10 -10 7 -7 40
1532262655182899 2 -23 18 9 4 1 2 -3
1532262655242756 0 -8 -26 -3 -3 -1 1 -5
1532262655302579 -3 -5 -27 0 -3 -2 -3 -9
1532262655385357 4 20 19 -33 -8 -5 -2 0
1532262655407298 3 -4 2 9 2 2 0 5
1532262655445197 -3 11 -3 -7 1 3 16 1
1532262655460158 6 0 21 -1 0 -2 -3 -2
1532262655490078 1 5 6 9 -2 -2 4 4
1532262655527976 4 17 13 14 4 0 1 3
1532262655572856 -1 -5 -9 6 -1 -2 -4 7
1532262655594798 -33 7 20 11 3 -2 1 4
1532262655640688 -26 -7 12 16 5 5 3 -21
1532262655670595 25 8 7 -1 2 2 -4 27
1532262655722456 -3 -23 1 1 1 -3 -18 -10
1532262655745400 7 33 27 2 -1 0 8 6
1532262655812216 56 -128 -14 -13 -9 -11 -12 19
1532262655843134 -128 -59 15 7 5 4 18 -74
1532262655873053 -29 41 15 8 10 10 10 32
1532262655918931 8 -79 0 -5 -6 1 18 36
1532262656007694 -26 14 -14 -1 -2 -3 -11 -3
1532262656046590 23 -8 18 14 4 2 1 1
1532262656120392 9 0 -9 -10 -1 2 2 6
1532262656187213 2 -99 17 -2 -5 -13 2 -1
1532262656225112 2 -16 -78 -9 0 -36 0 7
1532262656277971 -3 52 -80 3 -2 6 -1 -1
1532262656329832 -4 -11 -50 -5 2 -5 -1 -2
1532262656344792 -2 13 5 2 -5 -1 -3 -4
1532262656390670 16 -12 -9 14 6 -9 -7 2
1532262656412611 13 17 12 -16 -8 -4 10 2
1532262656465469 -42 -2 -66 -1 -5 2 31 -3
1532262656517331 -1 -2 -10 -5 34 14 7 3
1532262656540269 -82 -10 -3 -4 -8 -3 13 -3
1532262656659949 -12 3 -10 2 3 3 2 1
1532262656704829 -4 2 31 9 -1 -3 -3 -7
1532262656780627 -15 18 -29 8 6 5 1 -12
1532262656870386 8 7 -17 -1 1 2 1 -5
1532262657007022 -4 4 -8 13 -11 -24 -6 -2
1532262657049906 -5 16 -14 -27 -17 -4 -10 -7
1532262657064866 7 -14 6 24 1 -57 4 0
1532262657079826 -11 -6 -4 -19 9 -13 -12 -1
1532262657095784 1 -8 -3 -8 -8 7 0 -2
1532262657117725 -12 -3 14 32 -1 3 -5 -8
1532262657147645 -4 6 9 -7 5 -4 -2 -5
1532262657162605 9 -2 3 -6 -2 23 7 -1
1532262657185543 -8 -10 1 -46 -20 -8 -2 -3
1532262657215464 5 -15 -29 48 4 -12 -1 -2
1532262657245384 2 8 15 -81 -65 8 5 3
1532262657284280 1 -34 4 -8 10 -7 -4 0
1532262657305224 1 1 0 15 18 2 0 1
1532262657328162 6 22 6 14 -10 -2 0 0
1532262657373042 -32 19 14 9 -1 7 2 -14
1532262657402962 0 14 6 4 -4 0 2 -2
1532262657432883 -5 3 1 1 -5 -3 -2 0
1532262657469784 9 -30 -2 1 -2 -3 -2 1
1532262657507682 -5 -11 -2 0 -4 -3 -2 -2
1532262657530621 -9 2 -2 -1 -1 -4 0 5
1532262657545580 5 -1 1 2 -1 11 0 1
1532262657582482 7 -35 -2 -1 31 7 2 0
1532262657605430 -1 14 1 -9 -7 -1 -3 -1
1532262657674237 -4 -6 3 5 7 6 2 4
1532262657711139 -1 9 3 -9 1 -4 -2 2
1532262657748040 -1 6 -6 -25 16 -8 -5 -2
1532262657784941 -5 12 -4 -3 -26 -5 -1 -5
1532262657807880 0 42 9 -27 -2 -10 0 1
1532262657822840 -10 -16 5 -13 2 -6 -4 -3
1532262657882679 3 -4 1 10 -10 -4 -1 1
1532262657905619 0 -9 -4 6 -11 -8 -4 -2
1532262657935539 -1 -41 -16 6 -2 -3 -1 -5
1532262657957480 -1 -5 -2 -2 -13 -3 0 3
1532262657980418 6 39 2 -5 -11 -5 -2 0
1532262658002360 4 -5 -6 3 -5 -1 -3 -14
1532262658017320 -7 -10 -3 0 -1 0 -1 -1
1532262658085138 -8 -3 3 -1 -2 -1 -2 -2
1532262658137997 -6 12 -31 -1 0 0 0 -3
1532262658159938 0 19 3 -1 0 -1 -1 -1
1532262658205816 -2 -21 0 -1 -8 -4 -3 -3
1532262658227757 2 26 5 -6 12 2 2 2
1532262658287597 -4 -22 -4 -11 -12 -2 2 -3
1532262658325495 2 2 5 5 11 0 -2 -3
1532262658484071 1 1 -54 -9 4 3 -2 2
1532262658542914 -35 3 72 3 3 17 3 -8
1532262658572834 12 3 9 -6 14 12 0 4
1532262658587794 14 5 -42 22 18 5 6 -8
1532262658632674 -3 4 34 10 -5 0 -8 4
1532262658647634 6 -6 8 -1 -10 -1 -15 -3
1532262658677554 11 2 -32 -16 -5 33 -5 -4
1532262658715453 -21 1 -34 3 14 28 -4 1
1532262658767314 -6 -11 4 7 0 15 -2 -6
1532262658790252 -6 1 -5 -22 -12 -17 -5 1
1532262658828151 1 -4 3 -11 -1 16 -2 6
1532262658850093 -39 6 13 14 9 -11 1 -13
1532262658894973 -4 -8 -5 5 -1 6 -2 7
1532262658924893 9 -6 -9 3 -3 0 -3 3
1532262658977750 -11 0 -5 0 1 21 1 -6
1532262658992711 19 6 -1 -8 -5 -6 -3 3
1532262659022631 4 6 -3 0 -3 -5 -1 -2
1532262659060530 -9 0 -12 -11 -16 23 1 -5
1532262659090450 5 1 13 -14 1 -17 7 3
1532262659127351 -4 9 19 38 7 9 1 -3
1532262659150290 -4 3 45 1 -14 -30 -4 -5
1532262659165250 5 -24 -3 12 6 -11 -2 -5
1532262659188188 0 -14 -25 0 0 7 -1 17
1532262659218109 12 8 -12 -5 -2 4 0 4
1532262659233068 -9 17 48 3 3 -15 1 6
1532262659248028 -7 -2 0 7 1 2 5 -4
1532262659269970 -7 13 -3 3 4 2 3 5
1532262659284930 0 -13 -5 -7 -5 -9 0 -4
1532262659299890 -4 10 3 -2 -3 5 0 4
1532262659329810 15 2 -18 -4 -3 -6 -4 0
1532262659344769 2 -2 -8 -1 -2 -1 -3 4
1532262659390659 7 -3 -5 3 1 -2 -2 -7
1532262659405607 11 4 10 6 -1 -2 -2 -5
1532262659465447 3 -2 -14 3 -2 2 2 10
1532262659487388 -2 2 25 -10 1 0 1 0
1532262659525287 10 -2 -7 -5 -10 -3 1 -6
1532262659540247 3 -1 13 2 0 -21 -5 -3
1532262659593106 1 -1 20 48 21 1 4 4
1532262659630007 -1 0 39 39 8 9 0 1
1532262659644967 -6 -4 51 -15 -24 0 -3 -3
1532262659682866 -1 6 -19 -11 0 4 -1 -4
1532262659704807 11 29 -29 -6 -2 -5 -4 -4
1532262659735724 -2 30 -4 0 -3 -4 -7 9
1532262659750684 -12 -6 19 -3 -3 7 4 -2
1532262659802546 -1 6 31 1 -1 2 3 -1
1532262659840445 -1 4 -16 1 -1 -1 0 4
1532262659877351 1 -16 -4 0 0 0 0 0
1532262659892308 -2 -6 -23 3 -2 -3 0 8
1532262659930204 4 16 5 5 1 -1 -1 3
1532262659945164 -2 -7 -16 2 -4 -21 -6 -3
1532262659968103 1 4 0 8 3 7 0 12
1532262660019964 6 12 40 -1 6 4 -1 3
1532262660049884 2 0 -5 -3 1 5 -2 -10
1532262660109725 -20 -9 -15 -6 -3 8 -3 -31
1532262660185521 0 0 5 0 -2 -7 -4 -14
1532262660207476 0 0 5 -6 -9 -3 2 3
1532262660222423 1 3 -38 5 3 -2 -2 -6
1532262660245361 -3 -16 -15 -2 1 -2 -12 -13
1532262660267303 -21 0 15 4 7 26 16 -67
1532262660282263 1 1 17 -5 -4 4 2 -1
1532262660313180 -3 4 31 2 -1 -4 2 -6
1532262660350082 5 -11 2 -10 0 0 -2 -9
1532262660424882 1 -14 -9 -15 -2 -1 -7 2
1532262660454814 -17 -4 -11 0 0 13 -5 -18
1532262660477753 9 -14 -28 -9 -4 39 19 52
1532262660507660 -2 -7 -32 -6 3 2 -4 -18
1532262660530598 0 1 1 -2 -2 13 3 11
1532262660545559 -3 3 10 -6 -2 -6 2 6
1532262660582460 4 -20 -101 0 1 -3 -1 -7
1532262660605399 -3 12 70 1 -3 2 1 -2
1532262660627339 12 14 22 3 3 -4 -1 2
1532262660688177 2 2 11 -1 0 0 1 -2
1532262660718097 2 10 -3 -1 -2 0 2 3
1532262660740039 -1 -1 5 -1 -3 -11 0 1
1532262660792897 -2 -1 7 -1 -2 -4 2 -1
1532262660852737 0 -2 -30 1 3 -4 -3 -2
1532262660882657 6 -1 -10 -3 -4 -12 -1 -1
1532262660897617 -2 8 32 -5 -1 -24 0 -4
1532262660935516 4 3 4 3 2 -2 1 11
1532262660950476 1 0 10 4 7 11 -1 -2
1532262660972417 -1 -3 -3 -3 -7 -3 -4 -8
1532262661002337 -3 4 1 3 9 -18 -5 -1
1532262661032257 -2 1 -2 3 -7 -16 -7 0
1532262661055196 6 0 -33 8 7 -4 2 7
1532262661078135 -3 4 7 6 25 22 2 -19
1532262661093095 -13 -4 4 0 -1 14 4 -12
1532262661115036 2 0 12 -5 -13 -9 1 5
1532262661145953 7 1 -2 -4 -9 -13 -2 -3
1532262661167895 1 0 0 4 4 7 8 3
1532262661319489 -1 -7 0 -4 -7 -7 -5 0
1532262661332455 -1 -4 -3 -1 -4 2 3 0
1532262661355393 2 4 2 1 -1 -3 0 -2
1532262661400273 -1 -1 -1 -2 -6 0 -1 -3
1532262661423212 -1 -2 -5 -3 -2 2 0 0
1532262661483052 -2 -4 -5 0 -11 -5 -2 0
1532262661504993 0 5 1 -4 -7 -4 1 -1
1532262661557852 -3 -2 10 2 3 4 0 -3
1532262661587772 -2 2 8 2 -2 1 1 3
1532262661610710 1 3 9 -1 1 -6 -4 -2
1532262661670550 0 -3 -8 3 0 -1 -2 -3
1532262661685510 -1 -4 -7 -6 -6 -3 1 1
1532262661760310 0 -7 -3 2 0 -2 -2 1
1532262661784246 -1 -1 -2 -4 -2 -2 -2 -2
1532262661820150 -3 2 33 4 1 -2 -3 -3
1532262661843094 0 -25 2 -8 -3 -1 -1 -1
1532262661879990 -1 -3 -22 0 0 -1 0 -2
1532262661909910 3 32 1 -1 0 0 -1 2
1532262661977729 -3 -2 18 4 0 0 -1 -1
1532262662000668 2 -5 53 1 -2 -1 1 1
1532262662067489 -1 -4 -1 -2 -1 0 -1 0
1532262662105387 4 1 -14 -6 -3 -1 -1 -1
1532262662158261 0 2 -12 -4 -3 -1 -2 0
1532262662195148 -1 16 3 6 1 2 -1 0
1532262662240040 7 20 21 1 1 -1 1 2
1532262662262966 -5 -1 -38 0 0 -1 0 2
1532262662337766 -41 4 57 -6 -8 11 -5 -93
1532262662367686 14 79 -23 -3 -1 1 6 11

1532262662390625 1 -1 -128 -1 -6 8 3 12
1532262662457446 4 -12 37 25 24 25 10 -4
1532262662480384 14 -2 82 -14 -4 -4 2 6
1532262662517302 2 -24 24 32 19 16 -1 3
1532262662563179 -1 -19 -28 -4 0 4 0 0
1532262662608059 -1 -7 -8 -5 -2 0 -1 2
1532262662637980 2 3 25 -4 -3 5 -1 0
1532262662682858 3 2 16 8 2 7 3 1
1532262662712778 -3 -2 -14 -11 -4 8 0 -3
1532262662810517 0 14 26 -4 -4 -4 2 2
1532262662900277 -3 -1 9 7 2 7 1 -2
1532262662938176 -2 -3 1 7 1 -8 -3 1
1532262662990038 -3 2 10 0 2 1 1 0
1532262663019957 -1 1 94 8 -1 -1 -1 0
1532262663049877 0 16 -13 -1 1 4 0 -1
1532262663117696 -7 -34 -26 -4 3 15 3 -7
1532262663147616 9 -2 14 -2 -10 -9 -10 27
1532262663200474 -12 48 8 -3 -1 -11 -11 -10
1532262663282256 -14 -12 -23 18 7 -3 -6 -23
1532262663373019 4 4 -19 3 -2 -14 4 1
1532262663567493 -6 23 -7 -5 0 1 1 -2
1532262663612373 -4 -31 1 -4 -4 -2 -4 -4
1532262663642293 -2 6 1 -2 -5 1 -1 -5
1532262663710111 -2 -11 0 1 1 0 -1 1
1532262663754991 1 21 6 -3 -3 -3 -2 -2
1532262663769952 3 8 -2 -1 -2 -1 1 1
1532262663792890 -4 -10 1 0 -2 -2 -1 -2
1532262663822810 1 -13 7 6 3 1 2 1
1532262663837770 -3 -7 38 -3 -1 -3 0 0
1532262663882652 -1 0 37 1 -1 -2 -2 -3
1532262663897610 0 -2 -22 -1 -2 -1 0 -1
1532262663920549 1 -17 -62 12 1 2 2 0
1532262663942490 0 -11 -1 -2 0 -3 -1 -3
1532262663972409 0 0 -20 -21 -13 -2 -1 -1
1532262663995349 -1 0 -8 6 -5 -6 -3 -3
1532262664032250 -1 -31 -41 13 5 -3 -2 -2
1532262664056186 -1 1 40 5 -10 4 1 -2
1532262664115028 0 13 62 -27 -8 -3 -3 -1
1532262664144949 -1 7 -27 -35 -20 -6 -1 -1
1532262664174869 0 -2 -10 -7 -5 0 -1 -1
1532262664235706 4 15 -41 -3 2 -1 3 5
1532262664287567 16 -15 -84 -5 -2 1 3 13
1532262664317487 -6 -3 -9 -7 -1 13 -2 2
1532262664362367 -9 -5 -102 -3 -3 -8 1 -25
1532262664392287 1 12 111 -19 -4 -3 1 10
1532262664468085 -1 -4 -41 -3 2 -6 2 2
1532262664579786 -14 14 25 1 3 14 -6 -7
1532262664602725 -5 -20 -70 -2 5 8 -4 -6
1532262664632645 -3 -10 -10 13 2 3 -1 0
1532262664677525 -3 1 37 -2 -7 -5 -2 -1
1532262664715423 1 -6 10 -12 6 2 -1 -1
1532262664752324 9 15 8 11 -5 -1 -2 6
1532262664775263 4 12 7 -6 3 -3 -4 -4
1532262664837098 2 8 17 -6 -7 1 3 2
1532262664954783 -17 -37 -30 -17 2 3 1 -2
1532262664977722 6 8 -6 2 5 15 13 -2
1532262665000661 22 -13 -29 0 9 -13 -31 3
1532262665052522 -22 -56 -70 -17 5 -5 -3 27
1532262665075461 -13 -19 -1 -5 11 -1 -4 -16
1532262665112362 4 -5 11 -23 -11 1 2 9
1532262665127322 -59 -27 -8 -6 -14 -11 0 4
1532262665150261 -2 32 20 6 -1 5 20 -3
1532262665188159 59 -64 -21 -15 -18 -1 48 -55
1532262665219076 -46 -20 -8 -3 -9 -20 -61 -10
1532262665240052 -46 67 19 12 9 7 5 -13
1532262665254980 -40 14 0 -8 4 3 -14 -9
1532262665284900 -2 -79 -16 2 -5 -7 -26 8
1532262665307839 10 14 -2 3 6 4 31 -24
1532262665360698 -2 27 -13 -19 -6 -8 -23 -2
1532262665382639 -20 52 -77 12 1 0 -5 -10
1532262665427519 -10 7 -6 -6 -3 1 10 3
1532262665442490 18 6 7 -13 -2 -2 -9 13
1532262665472399 -12 -86 1 1 -3 -7 -5 -6
1532262665495338 1 92 -3 -7 -2 3 -4 -2
1532262665517279 -2 35 23 2 15 10 8 5
1532262665532239 -7 -90 9 -5 -5 -4 -5 -7
1532262665563156 1 15 -47 -23 -6 5 -4 -2
1532262665593076 2 42 -12 3 0 24 2 3
1532262665637957 -5 -23 12 4 1 12 -6 -3
1532262665682836 2 -8 -20 -2 0 -11 -3 1
1532262665727716 5 -5 -17 2 5 22 -9 -4
1532262665780575 -3 -11 -5 -1 -3 -2 -8 -4
1532262665803514 34 3 6 -8 11 5 6 6
1532262665855375 -20 2 -19 7 12 5 -9 -12
1532262665885295 13 7 19 -1 19 8 -2 -5
1532262665924192 -6 -23 -19 -4 1 -5 6 -2
1532262665975055 9 20 2 -14 2 4 6 2
1532262665997994 -18 4 -9 2 0 1 2 -6
1532262666012958 6 4 -11 6 1 -3 1 2
1532262666051849 -7 -3 2 -3 1 -3 2 3
1532262666064815 1 27 5 -6 -2 1 1 5
1532262666110696 -17 -11 0 -1 -3 -3 -2 -7
1532262666200452 12 -1 0 -1 -1 -1 -1 -6
1532262666305173 -5 10 3 0 3 7 -4 -4
1532262666372990 -9 5 1 2 0 11 -4 -1
1532262666396927 13 -4 1 -2 -2 3 1 2
1532262666419865 -11 -1 20 15 -13 -6 -7 -5
1532262666439813 16 -2 3 14 -28 -1 -1 9
1532262666463752 -2 -1 4 13 2 2 -2 -5
1532262666477711 -34 -14 -4 -12 -33 -4 -1 4
1532262666560489 0 3 2 -9 21 8 -1 1
1532262666582431 -1 2 7 -5 -1 12 2 1
1532262666605369 9 -10 15 8 3 1 12 4
1532262666635289 -6 -6 3 6 22 9 5 -7
1532262666650250 -16 -7 1 2 17 1 -4 2
1532262666680169 0 -8 -3 0 1 1 0 1
1532262666754970 14 3 -10 5 3 -2 -1 9
1532262666784889 -19 0 4 -1 1 0 -3 -7
1532262666829769 6 2 0 -2 -1 -1 -2 1
1532262666890623 5 3 2 7 -1 -1 1 -1
1532262666935486 -2 5 -3 -2 1 1 0 5
1532262666965406 3 -9 -9 -3 -13 1 -2 -2
1532262666980367 0 -1 7 7 -7 6 -2 -4
1532262667025247 -3 9 23 23 6 3 1 0
1532262667064142 9 -6 -8 4 -13 -5 -1 5
1532262667108025 -1 -8 0 4 -8 -3 -5 -1
1532262667146926 5 -10 -8 -21 9 -6 -3 -1
1532262667167865 1 -17 -4 -10 -37 -13 -2 -5
1532262667182825 2 7 -8 -3 -12 -4 -3 -3
1532262667212745 0 -9 -3 -26 -26 -12 0 -2
1532262667235684 1 -2 3 -5 -13 -6 0 0
1532262667250644 -4 13 2 5 5 2 0 -6
1532262667310484 9 2 0 -7 -7 -3 -2 -1
1532262667340404 0 1 2 -3 2 -1 1 1
1532262667370323 1 -7 -1 1 1 0 -1 -3
1532262667445124 11 7 -5 -1 -2 -3 0 4
1532262667475043 0 12 -2 -2 -2 -1 -2 -1
1532262667504963 -3 -1 -2 -2 -1 -3 1 -1
1532262667527902 -4 -10 -4 3 4 2 1 -2
1532262667542862 -6 3 -4 -4 -19 -6 -3 -2
1532262667572782 -1 44 7 1 -14 -8 -1 -2
1532262667594724 -4 -19 2 -3 5 1 0 -1
1532262667610682 4 0 -3 -1 10 2 3 2
1532262667625641 -1 9 3 5 -30 -5 -1 0
1532262667716399 -4 -4 4 -1 2 -1 -2 0
1532262667745321 3 14 9 8 15 5 4 3
1532262667783220 3 5 64 -10 11 4 -2 4
1532262667806158 0 -3 -6 4 9 -6 -3 -1
1532262667828100 6 -5 -19 8 18 20 9 4
1532262667850040 1 -3 11 -5 -12 2 7 3
1532262667881956 0 4 11 0 -25 -4 1 -3
1532262667932820 -3 -1 5 -1 11 -6 1 9
1532262667970718 7 -5 -35 -1 -7 -19 -8 -3
1532262668000638 3 0 -2 -20 -6 7 -2 0
1532262668037540 0 1 17 -7 -6 -17 -7 -2
1532262668075438 -17 0 21 -3 -10 -17 -2 -14
1532262668090414 15 1 4 -7 6 7 3 6
1532262668135278 -1 1 3 0 10 4 3 2
1532262668158217 -5 -1 4 -6 3 -9 -3 -3
1532262668195118 -4 -3 16 9 -6 -14 1 -2
1532262668269918 -14 -5 -5 -3 9 1 -2 -4
1532262668307817 -3 1 7 -6 -4 -11 1 1
1532262668367657 2 -3 5 -6 -4 -3 -1 -5
1532262668420516 3 -5 -14 -6 -3 -4 -6 4
1532262668444452 11 1 -6 1 1 -2 2 -3
1532262668495316 -3 -4 -7 -4 -4 -19 -9 -1
1532262668578094 -7 -1 -4 0 1 -2 3 -16
1532262668622987 -7 -2 4 -6 0 30 -3 1
1532262668659875 -13 -1 17 8 -10 14 -5 -5
1532262668780552 8 -1 0 1 0 10 -1 0
1532262668840393 -7 0 16 5 2 7 -1 -11
1532262668900233 -17 15 4 6 4 2 -4 -10
1532262668915193 -5 -1 2 -2 -2 -3 -2 2
1532262668953091 3 13 1 -2 -2 -6 2 -5
1532262668989992 -6 -3 -18 -4 -2 -23 -2 -5
1532262669028889 11 0 -1 -6 -8 3 -2 -1
1532262669057811 -1 2 -27 -5 29 52 3 0
1532262669162531 -1 2 10 9 61 13 0 -2
1532262669200430 12 6 -24 32 -19 0 6 3
1532262669237331 20 36 -1 -4 -1 -8 0 8
1532262669267251 -13 -13 -1 -10 -2 9 -1 -14
1532262669358009 -30 -5 6 -1 4 9 1 -6
1532262669402888 0 1 1 -2 0 3 1 -2
1532262669447768 10 0 -2 -2 0 3 0 6
1532262669477689 -1 1 1 0 -7 12 6 0
1532262669522568 -4 0 1 0 2 9 -5 1
1532262669658206 -8 0 -6 -9 -74 20 0 -1
1532262669695106 17 6 5 17 19 11 0 -2
1532262669784867 -6 -14 -9 -13 -18 -9 -4 -2
1532262669799826 13 0 -2 -1 -4 1 -1 7
1532262669876623 4 0 -6 -1 -3 -4 -12 -1
1532262669972365 -1 2 12 1 -5 -4 -1 2
1532262670144918 -2 -3 -28 5 -6 -12 -9 -7
1532262670242657 0 2 5 -3 3 -7 -2 -9
1532262670310475 -2 1 0 3 7 8 -1 -3
1532262670347376 -1 3 -5 5 6 8 -2 -5
1532262670423215 -3 -5 2 -2 2 6 1 -6
1532262670445116 -5 11 31 13 4 48 1 -6
1532262670489996 -16 -14 -15 -1 3 0 -2 -6
1532262670504956 2 -6 -13 -3 1 -7 0 0
1532262670519916 -1 -8 -9 -2 -1 -4 0 0
1532262670557814 3 -1 4 -2 -5 -2 0 0
1532262670632614 4 12 7 -5 -3 0 -1 0
1532262670715392 -7 -2 1 -2 -2 -6 -1 -3
1532262670775232 0 -3 3 0 -1 30 2 5
1532262670805153 0 -2 -7 2 -5 8 0 2
1532262670858012 -2 1 6 1 -7 -9 -2 0
1532262670903889 0 -5 0 -5 -4 0 -2 -3
1532262670947771 3 0 -4 0 7 3 5 6
1532262670985669 1 3 9 -1 -10 -2 -1 -6
1532262671030550 4 4 7 0 3 6 -2 6
1532262671045509 2 4 -1 10 17 13 0 2
1532262671060469 1 -3 -5 2 9 -7 1 -7
1532262671105350 0 9 12 12 10 26 10 1
1532262671142251 -4 -7 0 -4 -7 -25 -1 -3
1532262671159205 0 -4 -6 5 8 17 1 0
1532262671173173 -1 -1 1 18 -1 -7 0 -1
1532262671195109 2 -5 -2 -7 8 -11 1 2
1532262671225029 2 -3 -4 -9 4 -28 -3 1
1532262671239997 -4 0 -6 0 -8 -19 2 0
1532262671262928 -3 -5 -5 -2 -6 -8 2 -2
1532262671300827 3 0 -1 0 -12 -2 -2 5
1532262671322769 -2 -3 -1 5 3 17 3 -1
1532262671345709 2 2 6 -1 18 3 5 2
1532262671360667 -2 -3 -15 -8 -21 26 -4 -5
1532262671382609 1 3 -1 19 30 11 1 3
1532262671427488 -2 0 4 -5 -6 4 -2 -3
1532262671457409 -7 -4 -4 -1 -12 -24 -2 -9
1532262671472368 0 0 0 4 20 -13 -2 4
1532262671487329 3 0 0 -19 6 11 -2 3
1532262671502289 -2 -2 -4 -7 -3 11 -4 -3
1532262671533205 0 -2 0 0 5 2 1 -1
1532262671555147 0 -3 -4 -11 -2 -2 -1 -3
1532262671593045 -3 -4 -3 -2 5 3 -2 -2
1532262671614987 -2 -1 1 -2 -4 1 0 1
1532262671637925 -1 -2 2 8 9 45 1 1
1532262671667845 0 -2 0 -1 -5 -9 1 6
1532262671682805 0 2 0 4 18 8 -1 0
1532262671705744 -2 -2 3 2 0 -9 -1 -3
1532262671720705 3 3 17 -10 -3 -1 -1 -2
1532262671735664 -1 -1 -4 1 9 5 2 4
1532262671765585 0 0 -7 -1 -9 -6 -2 -1
1532262671810464 -1 1 3 0 2 0 -2 0
1532262671826421 0 1 -4 -2 -4 3 -1 -2
1532262671862326 0 -2 -2 -2 -5 -2 -1 -1
1532262671885264 0 3 -20 -3 -2 1 -1 0
1532262671908203 1 -3 -5 0 0 -1 1 0
1532262671923163 -2 -2 1 -4 -3 -1 -4 -4
1532262671938122 1 -2 -3 3 9 2 0 0
1532262671968058 0 0 3 0 -1 -1 0 1
1532262671983003 -1 7 9 2 -2 -1 0 0
1532262672034865 0 2 -13 2 2 0 0 1
1532262672051819 0 -1 2 -2 0 -1 -3 -2
1532262672102683 -2 13 -14 -26 -8 0 0 1
1532262672125622 4 5 10 -8 -2 0 -1 0
1532262672147564 1 -2 -4 5 -1 -1 1 -1
1532262672162524 4 23 52 7 -1 -2 0 -1
1532262672185462 1 -3 1 3 1 -1 -1 -1
1532262672215381 -3 -5 -35 -1 -2 -4 -1 -3
1532262672237322 -1 -18 24 2 1 2 -1 -2
1532262672268240 -1 -18 -74 -4 -2 -3 -1 1
1532262672290181 -3 13 -32 -1 0 -1 1 -1
1532262672320101 -1 14 29 -3 -1 -3 -2 0
1532262672372963 -7 -10 -8 7 0 -3 0 -3
1532262672387920 2 -35 -87 -10 -2 -2 -1 0
1532262672439782 -3 10 46 1 2 2 1 0
1532262672462720 3 -4 -10 0 2 2 1 4
1532262672492640 23 3 -50 -1 -4 2 4 67
1532262672515578 1 67 81 4 1 15 31 68
1532262672537520 -41 -15 -49 -6 -4 67 -45 -111
1532262672575418 8 12 -63 -4 -6 -6 2 26

1532262672597365 -6 -19 45 8 8 16 0 -4
1532262672620298 1 2 31 19 6 -6 4 9
1532262672650218 7 6 1 2 -4 0 -1 7
1532262672688117 6 12 36 -2 -3 -19 1 2
1532262672725019 -5 8 35 -6 -5 -1 -2 -4
1532262672762934 2 1 5 -1 2 -3 5 11
1532262672807797 7 3 15 -8 -2 4 -2 -2
1532262672845695 2 1 -2 -6 -7 -4 5 1
1532262672867637 3 -1 -8 3 3 3 -1 2
1532262672897558 0 4 2 0 -1 0 -3 -2
1532262672927477 0 -9 -11 -2 -1 -4 0 1
1532262672942437 -1 6 4 -7 -2 4 1 2
1532262672972388 -6 7 51 -16 -6 -4 -1 -5
1532262672987348 3 5 -5 -6 1 6 -1 0
1532262673017268 1 7 -4 -3 1 12 3 0
1532262673079116 -3 -3 -1 3 0 -5 -4 0
1532262673123999 0 9 39 -1 -2 10 3 -1
1532262673152905 -1 1 1 -2 -2 1 3 0
1532262673174847 0 2 -4 -3 1 1 1 0
1532262673191802 -2 -3 23 -9 -5 -2 -3 0
1532262673213743 -3 -1 -2 0 -2 6 7 0
1532262673242666 -3 1 -4 -35 -4 1 -2 -3
1532262673265604 1 -2 9 5 -2 -4 -1 1
1532262673287545 2 -7 -12 -6 -4 2 1 -2
1532262673310484 0 -8 -13 9 -1 19 3 0
1532262673340404 0 -1 8 40 12 4 4 1
1532262673355364 -2 -5 -19 -5 -3 -1 -2 -1
1532262673378308 0 -4 -13 -6 -3 -9 -4 -2
1532262673408223 -3 4 31 0 0 5 3 -1
1532262673430164 -1 0 0 0 -2 1 -1 -3
1532262673445124 0 0 -3 2 2 -11 -3 1
1532262673468063 0 2 1 3 4 3 -1 0
1532262673497983 -1 3 11 -2 -2 -7 -3 0
1532262673519924 1 1 -11 0 3 2 0 -1
1532262673549844 1 -3 -22 -2 -3 0 -7 0
1532262673565653 -4 -12 1 -2 -4 -17 -4 -2
1532262673595573 -2 -5 5 1 0 4 -3 -1
1532262673610533 -1 2 4 1 0 -1 -2 -1
1532262673625493 0 16 -3 7 0 4 1 -1
1532262673662395 2 -6 -40 -16 -4 -2 1 -1
1532262673685333 -1 -16 17 -7 2 -1 1 1
1532262673730213 -2 1 36 6 2 11 0 -2
1532262673753152 1 9 -5 7 8 -2 -1 -5
1532262673768111 2 -21 -38 -17 -7 11 10 23
1532262673798032 -4 -2 -16 0 -5 21 22 -9
1532262673819973 -2 19 13 -4 3 -20 -24 -4
1532262673842912 -5 -45 -4 -5 -2 -34 -20 -8
1532262673864852 0 -5 57 -2 1 15 2 11
1532262673887792 -2 12 14 -14 -5 -13 -6 -12
1532262673910730 -4 -8 42 5 1 3 1 -5
1532262673925691 4 8 65 -1 -7 -10 -1 -5
1532262673956607 -1 24 34 2 0 2 -6 -3
1532262673970570 1 10 10 -4 -1 -9 -6 -1
1532262674022432 6 1 -6 3 8 0 -5 15
1532262674039387 -4 -55 -17 1 -3 -20 -2 -3
1532262674052352 1 16 -6 -10 -5 0 0 16
1532262674083279 -3 -38 -7 0 5 9 2 16
1532262674113197 0 19 -4 3 -1 2 0 -4
1532262674128149 -1 20 1 -1 0 -6 -3 -16
1532262674150090 0 13 2 4 4 3 3 3
1532262674173029 -3 38 -1 1 1 1 1 0
1532262674187989 17 18 8 -4 -6 -7 -7 15
1532262674209930 -1 24 4 2 -1 -1 -8 -1
1532262674247828 -6 -15 -5 4 13 2 2 -3
1532262674277749 -3 -68 -16 -2 1 -1 1 2
1532262674315647 -3 15 6 -2 -2 0 -2 0
1532262674330608 1 3 0 3 5 1 3 2
1532262674375487 2 3 0 4 2 3 -2 -1
1532262674390452 3 39 -2 -1 -1 -3 0 -1
1532262674405408 -2 -18 -1 -2 -1 -2 -3 0
1532262674450288 3 -6 -26 -21 -5 -2 0 0
1532262674481205 -1 -13 6 8 6 0 0 0
1532262674510128 -1 0 -11 -21 -14 -5 -3 -1
1532262674525088 -1 3 17 -16 -3 -2 0 -1
1532262674555007 0 -3 8 8 17 4 0 0
1532262674585927 -4 -8 -86 -25 -28 -11 -3 -3
1532262674607866 0 3 42 -15 -12 -3 -2 0
1532262674727546 -1 -5 24 -2 -4 -3 0 -1
1532262674802346 1 8 -117 -31 -8 -26 -7 -1
1532262674878143 15 19 -2 -2 -8 -8 0 0
1532262674908063 -18 -11 -52 6 2 20 -9 -9
1532262674952943 -9 -16 -82 8 -1 -7 9 -8
1532262675012783 18 15 -4 -23 -2 -5 -3 -19
1532262675034725 17 5 7 -24 6 7 1 0
1532262675072623 -3 46 57 5 3 2 -5 -40
1532262675364842 4 4 -2 51 5 0 -1 0
1532262675409722 13 2 2 -35 -10 -3 -1 5
1532262675507461 -20 -3 -3 -6 1 -1 -1 -5
1532262675552340 -13 -6 -6 -34 -7 -3 0 -6
1532262675575279 -6 -14 -14 0 2 1 2 1
1532262675724885 50 16 -10 1 4 0 -2 -29
1532262675792705 -12 19 -8 -4 -5 -7 1 74
1532262675846560 37 81 22 -34 -10 -3 1 11
1532262675920362 -30 7 -12 6 -3 -2 -5 -1
1532262675988181 1 -3 5 4 -1 2 2 -1
1532262676092901 2 121 -33 -3 -2 15 -2 3
1532262676137781 -2 -45 -25 -5 -2 16 0 -1
1532262676227541 2 -87 13 4 6 32 2 2
1532262676272421 -6 96 -7 1 0 -12 -3 1
1532262676317302 0 20 10 14 10 -12 6 1
1532262676355200 -6 21 -1 -2 0 1 -6 5
1532262676378138 19 24 14 -5 -4 -4 3 5
1532262676429999 -6 7 7 18 0 4 1 -1
1532262676476875 0 10 18 -9 -21 -4 2 -3
1532262676557661 12 6 -4 -9 7 -3 1 -3
1532262676580597 11 2 3 -3 -12 -2 3 4
1532262676632458 -6 14 -7 6 13 3 2 -2
1532262676693295 5 3 -11 -4 -4 -1 0 3
1532262676842895 -5 -5 -3 -3 1 7 -1 -2
1532262676985514 -2 1 -3 15 -32 -15 5 -2
1532262677024410 -18 -7 1 20 -13 -10 -2 -4
1532262677075274 6 -7 23 -47 12 29 4 1
1532262677099211 5 -4 -24 -66 -91 -43 -8 -5
1532262677128133 -14 20 -12 -2 -41 1 -2 -3
1532262677165035 -12 7 -3 -19 6 6 0 -2
1532262677187972 3 -19 0 3 10 2 2 5
1532262677217893 -12 -12 -2 3 18 6 5 2
1532262677239834 7 -1 0 -5 -2 0 -4 -10
1532262677277733 -2 -11 2 -4 -2 -2 -2 6
1532262677315631 -4 -4 -5 1 1 -1 -1 3
1532262677435312 7 0 2 -2 -1 1 1 2
1532262677457252 -23 -2 -1 -1 -1 -8 1 1
1532262677510111 -1 5 3 10 0 -2 -3 -8
1532262677548010 0 -17 -1 9 19 1 3 -1
1532262677584911 12 29 -2 -6 -4 1 3 5
1532262677614832 4 7 -14 -23 -24 -7 -1 1
1532262677637770 -3 9 -3 7 19 5 0 -3
1532262677667691 0 -8 0 -6 -32 -6 0 -1
1532262677705588 -2 9 3 36 -16 -14 0 0
1532262677742490 -2 5 -9 -19 2 4 -2 0
1532262677780389 0 3 -3 -10 -7 -5 -1 -2
1532262677795348 -1 -1 -16 3 8 1 1 -2
1532262677855188 -1 -13 -24 6 6 0 2 -1
1532262677923008 4 -1 64 22 14 11 7 25
1532262677937967 -10 1 81 -8 -12 -18 -6 -13
1532262677982847 -20 0 -29 2 11 29 7 -3
1532262678042688 14 -4 -60 -19 -18 -10 -1 5
1532262678065632 4 -7 -42 6 8 -20 -8 -6
1532262678102528 -4 -14 1 -2 -5 -23 -8 -10
1532262678134443 5 11 21 2 3 0 5 -1
1532262678147407 1 -4 29 -6 -1 -13 -2 -4
1532262678185306 2 -60 -17 -8 -1 12 6 -1
1532262678215226 -8 23 15 7 0 2 8 0
1532262678290026 9 0 4 0 3 8 2 6
1532262678387771 -2 -8 -66 -14 -10 -1 -5 -3
1532262678410720 19 18 -12 20 -6 2 1 3
1532262678432644 4 3 -1 3 4 23 4 1
1532262678478522 15 -19 -18 6 -9 -11 -6 2
1532262678537365 -32 6 -30 3 9 8 0 -10
1532262678567284 -24 -1 1 2 -2 -16 1 -2
1532262678605183 -17 8 6 19 11 1 1 -1
1532262678620143 -15 -4 -1 -4 -1 -8 0 -1
1532262678665023 17 3 1 -1 0 0 0 -4
1532262678687962 1 3 5 -3 3 -2 -2 2
1532262678756778 -1 15 3 0 3 8 -3 -2
1532262678770753 -1 -12 -11 2 1 -2 -4 3
1532262678815620 -14 -5 -49 -2 -3 -21 1 -5
1532262678875461 1 0 10 -14 -16 -6 -5 -4
1532262678897401 -5 1 81 52 0 -1 2 5
1532262678950260 -7 3 19 21 0 -3 -2 1
1532262678980181 -5 10 -9 4 -4 36 -9 6
1532262679003119 11 -8 -4 6 -7 -4 12 5
1532262679018079 -42 14 6 13 5 -12 2 0
1532262679040023 24 3 -3 12 6 10 0 -13
1532262679054980 1 8 -1 3 2 19 -1 -17
1532262679077919 -1 -15 -2 -2 -1 -10 1 -7
1532262679107839 -1 -6 -4 -4 -4 0 -6 -3
1532262679122799 18 -9 -2 1 -2 -11 -1 0
1532262679167679 -5 -13 -1 1 4 -4 1 3
1532262679190617 -1 -4 1 -3 -1 -1 0 -1
1532262679220537 -9 -5 -5 9 3 -1 -2 -3
1532262679250457 2 40 1 3 8 4 -3 -10
1532262679295338 -4 -11 12 32 21 -1 1 0
1532262679317279 14 52 -12 -7 -4 12 5 4
1532262679363156 -14 -16 -17 21 -13 -12 3 0
1532262679385098 10 -6 -92 -44 -9 -5 0 4
1532262679408036 17 -6 18 -5 12 6 3 6
1532262679444937 -7 -9 10 -24 -9 0 -1 1
1532262679459898 0 -37 -31 -7 1 -1 3 11
1532262679504778 -4 -6 48 12 2 1 0 -6
1532262679527716 -8 -8 20 4 3 6 -7 -11
1532262679542676 -8 -3 -63 6 4 -1 0 5
1532262679595536 4 -6 -1 -2 -3 0 -1 2
1532262679610495 -3 -2 -22 -1 -1 1 -2 -5
1532262679647396 3 -5 -1 4 4 4 1 0
1532262679677316 -3 -21 -30 -5 -3 0 -4 -4
1532262679730175 -6 8 0 1 -3 -14 -3 -26
1532262679760095 6 -5 -3 -4 9 9 2 6
1532262679797993 -1 -2 13 -1 -7 0 -1 15
1532262679812960 7 10 10 3 1 -2 0 1
1532262679849855 -6 -4 3 -3 -6 2 -3 -9
1532262679872794 -3 5 5 -1 0 5 4 5
1532262679895733 5 10 -10 7 5 -4 2 -5
1532262679932633 0 -14 12 -12 -13 30 -6 24
1532262679955572 2 9 32 5 4 2 -2 25
1532262680000452 -1 -17 -26 -5 -6 -1 -3 3
1532262680015412 -6 -8 -6 -7 1 7 -3 -7
1532262680037354 2 12 -11 2 -2 -27 -10 -10
1532262680075252 -1 -9 -33 2 -4 -6 -2 -7
1532262680090219 -1 -2 6 6 3 7 7 6
1532262680113152 4 2 -2 -3 -5 23 3 -9
1532262680135092 8 6 34 -10 -4 10 -2 21
1532262680150052 -7 9 -24 1 -3 -2 -7 15
1532262680172990 -17 2 -37 3 -4 -5 -4 -50
1532262680194932 2 -3 28 3 -2 -34 2 0
1532262680217870 2 3 -24 2 -3 -3 -2 3
1532262680239812 3 -7 -6 -3 0 23 1 11
1532262680255777 1 12 4 -2 -4 -7 0 -12
1532262680285689 -2 -4 47 1 -2 -8 -1 -4
1532262680315609 -8 -10 97 2 -5 -18 -3 -9
1532262680338548 -11 -31 39 5 -5 -7 8 22
1532262680360489 5 1 -28 2 2 -24 -4 -2
1532262680405369 1 17 -7 -1 2 4 1 5
1532262680435289 8 -1 46 2 -1 0 0 1
1532262680473200 -13 2 -9 10 3 1 0 -5
1532262680488148 -21 1 44 3 -2 -2 -2 -16
1532262680533028 -10 -9 -5 5 0 -1 -3 -4
1532262680562948 -3 -16 -8 -1 2 -3 0 -6
1532262680614810 -3 -8 -33 7 1 -10 0 -1
1532262680667668 -8 0 2 34 8 -15 -5 -14
1532262680712550 -2 5 10 -5 -5 1 -3 11
1532262680765406 -8 -16 -22 0 3 31 8 -5
1532262680787347 5 15 62 6 -3 -31 2 12
1532262680833225 1 2 -5 4 5 6 -5 -17
1532262680848185 7 0 16 -5 0 1 1 -3
1532262680893065 -6 -1 -2 -16 -1 -3 3 -5
1532262680915007 -10 -6 -2 -3 -3 -7 -6 -9
1532262680929967 3 26 40 -5 -3 -2 1 5
1532262680967865 -7 -14 -37 -5 2 17 4 -11
1532262680989806 -3 9 22 1 -14 -3 -7 -4
1532262681035683 -6 -15 -6 0 2 -50 -4 -9
1532262681057625 -5 -9 -4 -5 0 21 2 0
1532262681110484 -2 13 -39 -6 -5 -17 0 13
1532262681125443 -10 1 -15 -4 -1 -4 -2 -5
1532262681147401 6 -1 18 100 24 -10 2 5
1532262681200244 1 -4 6 -20 -6 13 8 2
1532262681224180 -3 -6 -36 -4 -10 -9 -2 3
1532262681275044 -3 -5 13 -12 -7 -1 0 -6
1532262681290004 1 -5 -12 -15 -17 9 0 4
1532262681304963 -1 0 -4 -11 -13 8 -4 -2
1532262681327902 0 -1 -48 -6 1 -2 -6 -4
1532262681342863 9 13 38 -2 0 -4 -1 -3
1532262681372782 -4 -6 12 -4 -3 -3 -1 -3
1532262681387743 -1 -8 -12 -10 -3 26 -2 -6
1532262681425641 1 0 20 -6 5 1 4 2
1532262681456561 -2 -14 -42 -1 -2 -5 -1 -2
1532262681477502 0 -11 -1 -5 -3 18 1 -1
1532262681507423 0 -8 16 -5 -15 -17 -2 -1
1532262681522382 3 3 28 -6 4 5 -4 0
1532262681545321 0 2 -2 -4 -4 -15 -1 2
1532262681560281 -2 3 -29 0 2 0 1 1
1532262681590201 -7 1 20 0 -2 -6 -2 -9
1532262681605172 3 1 3 -1 2 -2 -2 4
1532262681620121 -4 -6 -16 -5 -12 -20 -3 -1
1532262681650040 3 -5 17 -10 1 -2 4 2
1532262681672995 3 0 0 -2 -3 -3 4 8
1532262681687939 -1 3 9 0 -7 1 1 6
1532262681747780 1 -3 5 -2 -3 -2 -1 3
1532262681800638 -3 2 2 3 2 0 -2 -15
1532262681860478 1 6 7 0 1 1 -1 -3
1532262681882420 -2 -10 -2 0 -1 0 -3 2
1532262681920318 -1 -5 -26 0 -1 -1 0 2
1532262681958217 1 15 7 -2 -1 0 -2 -2
1532262682003097 3 15 6 5 0 0 0 1
1532262682025038 1 12 -10 -1 -1 -1 -1 -1
1532262682047977 -2 8 25 -15 -2 -2 -1 1
1532262682062937 2 -2 37 7 0 -3 -1 -1
1532262682115796 2 -2 -21 7 0 1 1 0
1532262682175635 -4 -26 -33 -7 0 -2 0 2
1532262682220515 0 -9 -24 -1 0 -1 1 -1
1532262682257425 -1 10 11 2 -1 1 0 -2
1532262682281353 2 16 8 -8 -1 -1 1 2
1532262682326233 -4 7 45 5 1 -2 -1 -1
1532262682378093 1 -11 -36 -2 -3 -3 -3 -5
1532262682482814 6 -70 -16 -62 -11 4 6 23

1532262682527694 -1 -22 -12 31 14 0 6 13
1532262682707493 0 -4 15 -2 4 3 4 2
1532262682737413 -2 6 14 -2 -1 -9 -3 -1
1532262682767333 3 11 13 0 -3 -1 0 0
1532262682790272 -1 6 26 14 2 -8 -4 -1
1532262682858091 -3 12 42 2 -1 2 1 -3
1532262682902970 2 -5 -7 -2 2 -2 0 0
1532262682939905 -2 -3 10 8 2 11 5 0
1532262682954832 -3 -36 -69 -14 -4 -43 -13 93
1532262683000709 11 -34 54 2 -1 6 21 6
1532262683030629 -4 20 60 -4 -8 0 -5 -36
1532262683060549 10 15 -19 -36 -4 -2 0 3
1532262683075509 -2 25 84 2 -6 -5 -6 -12
1532262683120398 -4 2 -2 -8 5 -10 -6 -15
1532262683144326 -8 -5 4 3 -5 20 4 -7
1532262683195189 -7 -69 -7 -5 -11 -1 -1 -4
1532262683218128 3 17 -3 -12 6 2 -2 -2
1532262683269989 0 11 1 15 7 0 -2 -4
1532262683329829 3 15 -56 31 13 7 2 1
1532262683390667 0 1 22 0 -7 -4 -1 -1
1532262683472448 -1 13 -7 5 -11 -8 0 1
1532262683502382 -2 -7 20 -6 -5 -3 -3 -3
1532262683532288 -2 0 46 3 -4 -4 0 1
1532262683555226 -3 -5 -35 -5 -3 -11 0 2
1532262683600106 -1 3 -5 -3 3 1 1 -1
1532262683623045 -4 -7 -22 -8 0 13 2 3
1532262683652965 -2 15 -6 0 1 0 0 -6
1532262683674906 -1 3 -1 1 5 3 -2 -6
1532262683719787 1 -2 0 2 8 4 0 1
1532262683750704 -1 -4 -5 -1 -3 2 1 4
1532262683832500 3 -3 -18 -3 20 11 2 2
1532262683870384 -2 -5 7 -5 -10 -3 1 -1
1532262683892327 4 3 -5 2 2 1 -2 0
1532262683946181 -3 -2 13 21 3 6 0 -2
1532262683990068 1 1 17 25 91 24 3 2
1532262684034944 4 -5 20 7 -36 -12 2 1
1532262684057882 -2 -7 -39 10 -15 -11 -3 -2
1532262684087802 3 3 -7 -6 10 1 -1 0
1532262684110741 7 -11 -52 2 13 5 -1 -1
1532262684147642 0 26 -27 -4 -13 2 0 -2
1532262684170581 2 7 89 14 -6 -2 5 0
1532262684192522 2 3 10 4 -6 3 1 -3
1532262684245380 -8 10 7 -6 2 -4 0 -2
1532262684314196 -2 15 5 -25 0 14 6 4
1532262684351104 12 -9 45 -9 -5 9 2 14
1532262684394990 22 3 -73 5 6 3 -10 38
1532262684447839 -28 32 52 5 5 -8 -5 27
1532262684493717 -19 38 66 -27 -16 -22 -13 13
1532262684582479 3 -17 31 9 0 -2 -3 -15
1532262684657280 -2 12 28 -5 -5 2 -3 -1
1532262684710138 9 12 26 6 -1 -2 0 1
1532262684725098 -3 -14 4 -3 -1 -2 -2 0
1532262684769978 -24 -17 -49 -39 -15 -9 -9 -6
1532262684799902 -4 25 53 -24 -10 -3 -3 -1
1532262684852757 -6 -25 -22 -14 -3 -2 -8 -2
1532262684920576 10 22 1 -1 0 -4 -11 -10
1532262684942517 10 0 6 2 -2 0 28 39
1532262684957484 6 6 24 6 7 5 8 12
1532262685002357 -55 49 -13 -34 -12 -1 -6 35
1532262685017317 24 107 10 81 36 10 -9 -38
1532262685063193 -4 -43 1 -19 -3 5 21 8
1532262685085135 -43 -65 1 4 1 5 25 -48
1532262685123042 4 25 25 15 0 3 6 11
1532262685159935 14 22 15 3 -2 9 25 18
1532262685212794 -36 -75 -11 -24 -13 -2 -37 -8
1532262685272634 -10 35 16 -7 1 -5 -1 -9
1532262685302554 9 24 10 -6 4 -2 -10 3
1532262685340453 -1 -96 -3 7 2 -4 1 1
1532262685377354 1 12 33 2 -3 -14 -2 0
1532262685415252 1 -33 -38 2 0 3 -6 0
1532262685454159 -5 -14 28 6 3 16 -4 -4
1532262685475092 -5 -128 -13 -5 -2 15 -4 -10
1532262685490052 1 18 9 0 5 2 10 7
1532262685512991 9 -10 -18 -5 2 -2 0 0
1532262685534932 -5 -5 28 -15 -6 1 -5 0
1532262685549893 12 -44 11 3 1 5 -6 -4
1532262685572831 23 6 31 6 0 3 -4 -4
1532262685594773 27 6 3 6 -8 -3 9 -3
1532262685610730 -25 -27 -93 -11 3 -10 0 2
1532262685632671 -11 8 16 -4 -2 1 36 7
1532262685678549 6 -8 17 -6 -8 -5 -14 -5
1532262685701487 -19 -9 5 -2 9 0 51 -8
1532262685715453 19 1 8 0 6 4 7 12
1532262685737391 22 -6 -24 -26 -20 3 16 6
1532262685767311 -1 -1 -6 -9 9 0 -9 1
1532262685798228 13 25 7 -34 -41 -17 5 -2
1532262685813188 11 12 37 4 6 -4 -20 -3
1532262685835130 -11 -16 15 15 17 -4 -40 -1
1532262685858069 -12 -1 -2 -7 5 2 -2 -4
1532262685887988 -4 -4 -17 -1 -8 -5 1 -5
1532262685917924 2 39 12 8 1 -1 2 -7
1532262685954810 -20 31 12 4 6 -13 -26 15
1532262685985727 -7 1 -56 8 0 5 10 0
1532262686015647 18 -6 -90 -4 -4 1 2 4
1532262686045567 2 -2 -48 -15 -2 -2 -23 -4
1532262686075487 5 -38 16 2 -2 0 -35 -3
1532262686181204 12 3 18 9 4 -4 -12 4
1532262686196164 34 -2 11 -1 1 -4 -3 4
1532262686299887 -4 17 0 -2 -21 -6 -3 1
1532262686329807 -7 14 0 -4 12 5 2 -33
1532262686360725 7 -9 -23 -12 -27 -15 -22 -9
1532262686376682 5 13 17 6 1 -15 -8 6
1532262686397625 4 -7 -5 -12 -22 0 6 -5
1532262686412586 15 -12 7 -15 11 12 -2 5
1532262686442506 -10 -17 21 38 6 -11 -2 3
1532262686465444 16 6 10 -43 -33 7 8 5
1532262686487386 2 -41 -3 8 -16 -1 2 2
1532262686510324 -5 -31 -15 1 3 -11 -2 -6
1532262686540244 -5 -9 -4 12 15 -1 -6 -4
1532262686594100 5 13 7 18 18 7 2 7
1532262686615044 -19 15 5 15 1 -4 -2 -7
1532262686682863 5 4 -2 4 2 1 0 3
1532262686742703 -2 2 3 3 1 -1 3 3
1532262686817503 4 46 8 -4 -1 -1 -1 -3
1532262686870361 -11 -20 -4 4 1 -1 -4 -3
1532262686885322 7 12 1 -19 -3 3 0 -1
1532262686908260 1 12 -11 -2 16 5 2 -1
1532262686922222 5 -1 8 39 -23 -13 2 5
1532262686945161 6 5 -4 -11 -9 -10 -3 -1
1532262686960122 10 18 -20 -5 -17 3 -3 0
1532262686990042 0 27 -1 -20 -6 -6 -5 -4
1532262687027940 -7 -16 1 -19 25 7 -1 -2
1532262687042900 -3 4 1 0 -23 -10 -6 -20
1532262687087780 3 -7 3 -8 -6 3 5 3
1532262687103737 8 26 2 7 12 -1 -2 3
1532262687147620 -11 4 0 2 2 0 -4 -15
1532262687162580 0 12 2 -6 0 0 -1 -12
1532262687215439 3 4 -3 -3 -3 -3 -2 -7
1532262687245359 5 -16 -8 -7 -4 -5 -2 0
1532262687290239 -5 0 9 0 -1 1 2 -3
1532262687365039 1 4 7 -3 -1 -1 -1 -2
1532262687394958 -6 -17 8 1 -1 0 -3 3
1532262687470756 1 -5 1 5 6 6 2 -6
1532262687530596 0 -32 2 7 7 0 1 1
1532262687552538 9 14 -4 1 5 2 3 6
1532262687651273 -10 -3 20 5 -10 -7 -2 -2
1532262687688175 -2 -3 58 -11 -8 -18 -6 1
1532262687718094 8 5 15 -16 2 5 -15 0
1532262687748015 -22 -1 26 15 -20 -19 -7 -10
1532262687762975 -17 -2 50 10 6 33 -6 -8
1532262687784916 -30 2 -14 6 35 22 0 -7
1532262687799876 -1 1 -12 -1 90 19 22 21
1532262687837774 6 -3 -5 6 13 -14 25 10
1532262687860713 4 -4 -84 -4 18 37 9 9
1532262687890634 -16 3 -22 -1 -16 -21 17 -6
1532262687905593 -9 -10 17 3 1 -2 33 -2
1532262687944489 -7 -1 -15 5 -5 15 -4 -1
1532262687965433 -1 1 -15 -6 -15 -6 -3 13
1532262687987374 -4 2 10 4 8 23 -2 -4
1532262688040233 -4 -6 16 0 0 -1 4 -1
1532262688078132 9 -21 11 -3 -2 -3 -2 7
1532262688189833 9 3 52 -1 2 4 0 -1
1532262688235710 -12 6 3 13 -4 -67 1 -1
1532262688272612 -15 -3 -13 21 40 57 1 -4
1532262688317492 3 0 5 -16 -16 -10 -5 -3
1532262688340440 10 -29 13 -6 -3 6 3 1
1532262688400270 8 -19 -22 1 2 18 -2 4
1532262688430190 8 -6 -2 21 -4 -7 -2 2
1532262688453128 -6 4 -12 -18 -8 -6 -3 3
1532262688468089 6 -15 -6 -6 2 35 -6 -13
1532262688506985 -9 2 -10 -5 -2 0 -2 0
1532262688549870 -22 -9 -1 -11 -2 0 2 4
1532262688587769 9 -3 11 -6 0 10 -2 1
1532262688670548 4 -5 6 26 15 -4 -3 1
1532262688692489 -5 -46 11 4 -9 6 -2 -5
1532262688783245 -5 14 16 17 -45 -16 6 5
1532262688805187 8 3 -11 -10 -24 -12 -3 -4
1532262688850067 -20 -24 -11 3 -1 -30 -2 -27
1532262688894963 1 -2 -4 -5 -1 2 1 -12
1532262688932846 3 8 -5 1 0 7 -5 5
1532262688947806 -32 -1 4 6 5 6 0 -7
1532262688977727 1 -1 -3 -2 1 3 2 8
1532262689030584 -2 -3 -8 -3 -2 2 -1 2
1532262689075465 2 -13 -47 -2 -3 -4 -4 4
1532262689097406 0 -2 -21 -4 4 5 2 6
1532262689165225 0 12 15 4 -2 4 1 4
1532262689180185 -4 -2 -7 -2 2 8 2 5
1532262689233044 -4 -32 3 -7 -8 -2 -1 6
1532262689254985 -1 6 -31 -4 -7 -5 -4 0
1532262689284905 11 12 3 -1 6 -1 3 23
1532262689314839 -5 -11 -49 7 -3 -2 1 -1
1532262689382643 2 8 25 -4 -5 4 -3 -12
1532262689435502 -1 -1 -12 3 -3 3 -2 -7
1532262689457444 1 6 23 2 4 -10 -1 -11
1532262689525262 -1 -3 -25 0 -1 -15 0 -3
1532262689548201 -12 -9 31 -1 5 5 4 0
1532262689578120 -4 10 13 -5 -9 0 1 -3
1532262689637961 0 -8 19 -5 2 3 -2 -4
1532262689659902 -4 -6 -15 3 1 20 2 -7
1532262689743678 2 3 44 2 2 5 2 9
1532262689787561 -17 -11 -1 -3 -2 -5 -2 12
1532262689855379 -6 -5 7 -3 -3 -9 -5 -7
1532262689908238 0 2 -3 3 1 -2 -1 1
1532262690004980 3 5 9 -5 -3 -2 -3 5
1532262690133635 6 13 20 8 2 -2 -2 -6
1532262690192478 9 1 0 2 4 -1 2 30
1532262690298195 -2 -1 2 -3 -7 0 0 14
1532262690424856 5 3 3 -19 8 -6 -3 -1
1532262690507635 -3 -2 10 -8 27 6 1 -6
1532262690560494 -2 4 5 -2 12 -6 -3 -1
1532262690725054 1 1 -7 -18 -17 -5 -1 0
1532262690740014 1 1 0 11 7 4 1 1
1532262690762952 -1 -5 -2 8 20 -1 -1 0
1532262690784894 0 1 3 -2 -19 -4 1 -1
1532262690814814 -1 3 0 -5 -11 2 1 -1
1532262690837752 -1 1 3 4 3 1 1 4
1532262690860691 3 0 -5 3 2 2 -1 -2
1532262690875650 -1 0 2 5 14 3 -1 2
1532262690897592 2 3 2 5 -1 -1 -1 -2
1532262690912552 -2 -2 0 0 3 0 -1 4
1532262690935491 -3 -3 -3 -4 -11 -1 -2 -2
1532262690957432 -2 -7 -11 1 5 3 -1 -1
1532262690972392 0 2 8 -3 0 -3 -1 -1
1532262691010291 -1 -2 -6 -6 33 5 -1 0
1532262691033229 1 -1 2 5 5 1 -2 -3
1532262691048189 0 -2 0 2 -5 -1 -1 0
1532262691070131 -1 3 11 -22 7 0 -1 0
1532262691085091 -2 -8 -11 2 16 1 0 -1
1532262691115011 -2 1 -5 4 8 2 1 -1
1532262691137949 -2 -24 -1 3 -1 -1 0 0
1532262691159891 1 1 3 -5 -4 0 -1 0
1532262691183826 0 -14 4 -7 -2 1 0 1
1532262691212750 3 10 -7 -5 -1 -3 -1 -2
1532262691235688 0 13 28 7 -3 -3 0 -1
1532262691257630 1 20 -10 2 -2 1 -1 1
1532262691280568 -3 -20 -7 2 0 -1 -1 -1
1532262691295528 2 1 -52 8 1 0 -1 1
1532262691317470 -1 23 20 8 5 1 -1 1
1532262691340408 1 15 22 8 4 1 2 0
1532262691370328 -1 -3 9 -5 -2 0 -2 -2
1532262691392269 -4 -10 49 -6 -5 -1 -2 -3
1532262691415207 0 -11 -2 3 0 1 1 1
1532262691453107 -2 4 1 -10 -5 -2 -1 -2
1532262691468067 -1 -16 -29 -9 -1 2 1 -1
1532262691534888 0 9 -12 1 0 1 -1 -2
1532262691564808 -1 -2 4 -1 -2 -1 0 1
1532262691587747 -3 -15 9 -2 0 0 -1 -2
1532262691610685 -3 -18 2 -8 -1 -1 0 -2
1532262691670525 1 8 2 13 4 0 0 -2
1532262691707427 2 15 8 -9 -4 -5 -1 -2
1532262691730365 -11 -16 -22 6 2 0 -3 -2
1532262691760292 -5 -13 -29 0 -2 -1 -2 -6
1532262691790205 -19 20 30 -8 -8 -8 1 8
1532262691820125 4 -15 -36 0 -5 19 -3 19

1532262691865005 2 -17 -30 -19 -7 -4 -1 -19
1532262691909885 0 9 16 -16 -1 -9 -2 4
1532262691939805 8 -27 -12 -7 3 1 -2 -2
1532262691971720 -3 4 -5 -4 2 -4 -2 -9
1532262692007660 -6 12 8 0 -1 -4 2 4
1532262692037469 0 23 8 -10 0 1 2 -1
1532262692076366 2 -12 4 -8 -4 -11 -5 -4
1532262692097310 -2 -8 1 5 -1 7 4 -7
1532262692143187 -1 7 -2 1 1 2 2 -2
1532262692158147 -6 31 3 -8 -8 2 -1 -2
1532262692173116 -1 -7 -35 -7 -1 0 0 0
1532262692195056 0 -11 -48 1 3 -3 0 -5
1532262692210016 -5 -5 -72 0 0 -7 -10 -11
1532262692239938 1 -3 -3 4 0 2 -3 -19
1532262692277836 31 81 93 18 5 3 14 88
1532262692352635 1 -2 52 6 8 63 16 -47
1532262692427453 -8 -20 24 -13 -14 1 -7 -14
1532262692457355 3 8 10 -10 -3 0 18 13
1532262692495253 -2 7 -8 -14 -14 -12 -11 -4
1532262692518192 5 0 3 41 26 13 1 10
1532262692540147 1 18 -29 -3 5 -3 -5 -1
1532262692555094 -2 17 79 23 -8 -5 -3 -3
1532262692622913 -5 -21 -7 1 -8 -3 -3 -2
1532262692646848 0 -6 -1 0 -4 -1 -1 0
1532262692659814 -2 34 1 -8 -5 -1 -2 4
1532262692674773 6 24 -11 -4 4 3 1 -1
1532262692697712 -6 -68 -54 -8 1 -5 -2 5
1532262692727632 -7 -8 -6 8 10 -1 -3 -1
1532262692750571 -2 16 10 8 8 11 1 1
1532262692772512 -1 5 9 -9 -1 -1 0 -2
1532262692893189 0 -5 3 -2 -3 -4 1 -4
1532262692908149 1 -5 -2 -1 -1 -1 0 -4
1532262692923117 6 0 -5 0 0 -3 1 13
1532262692967989 0 -1 0 0 -1 0 -2 -2
1532262692989931 0 3 1 -2 3 1 2 0
1532262693027830 1 0 -2 1 -2 -1 2 1
1532262693042789 -1 1 9 5 9 6 2 -1
1532262693057750 -3 25 8 3 5 -3 -1 0
1532262693102629 0 -33 4 -16 11 5 -1 -3
1532262693156501 -3 -20 -37 -34 -29 -9 -3 -3
1532262693185408 -1 2 69 83 51 8 6 0
1532262693207351 3 -5 -13 -35 -56 -30 -7 -1
1532262693238272 -4 11 -8 -43 -23 -7 -5 -2
1532262693253227 1 1 24 26 -17 -7 -1 -1
1532262693283160 3 10 -18 -11 56 6 -2 0
1532262693328027 -1 3 25 21 50 14 4 1
1532262693349968 -3 -3 18 -15 -40 -8 -3 -3
1532262693402826 4 -12 29 11 -7 2 0 5
1532262693424768 -14 6 23 6 0 1 3 -1
1532262693462666 11 -8 -50 14 -1 -4 0 21
1532262693477626 5 -1 -8 -2 -7 -2 -4 -15
1532262693515525 0 -6 3 4 -1 4 -1 0
1532262693537468 11 11 26 -8 -1 11 29 6
1532262693560406 -10 -28 -5 -24 -5 24 2 24
1532262693605285 -28 -37 -50 -33 -15 100 -16 -57
1532262693658144 -20 -18 -62 12 4 19 4 -56
1532262693673111 13 16 -44 1 -4 -25 -2 -31
1532262693710005 -22 -17 15 -7 -3 -6 -6 0
1532262693852624 -10 4 45 11 4 4 1 -1
1532262693875562 2 -18 14 4 -6 -6 -5 -12
1532262693897503 1 -5 25 14 2 2 1 -6
1532262693965323 -1 9 16 0 -2 -1 -1 1
1532262694025163 -5 -3 -14 -10 4 2 -2 -5
1532262694085002 -2 9 22 10 0 -2 3 1
1532262694122901 -2 8 26 0 -6 -2 -3 0
1532262694152821 15 0 -4 -10 -3 9 -4 15
1532262694197702 -2 -62 -12 -8 0 23 43 -7
1532262694227621 12 -24 -16 -4 -4 -12 -32 -10
1532262694250560 19 52 18 6 1 -9 5 24
1532262694302421 -49 -23 -6 -1 -4 -6 -13 -34
1532262694341317 -63 72 6 -1 2 0 -8 -16
1532262694378232 0 -37 -15 -36 -20 -14 -13 -33
1532262694415119 11 38 14 -3 2 15 14 5
1532262694482938 2 11 3 13 5 -4 -18 -22
1532262694535798 -8 0 -1 -5 -3 -7 -37 -23
1532262694565717 11 -5 -38 4 -1 -10 5 8
1532262694595637 9 9 11 -5 0 3 5 5
1532262694647498 2 16 73 3 0 -7 -4 3
1532262694715317 -3 -16 -10 0 1 0 5 1
1532262694790128 -1 15 -3 -7 -1 -22 3 4
1532262694887855 0 -7 -14 11 2 4 0 3
1532262694910795 0 -5 0 4 -1 2 -2 6
1532262694925754 1 -1 -17 1 -4 -5 -2 1
1532262694970634 0 22 4 -1 1 2 -4 -8
1532262695000555 0 -3 -27 -10 -2 4 11 2
1532262695015515 -22 -3 -15 -1 10 8 -2 -9
1532262695038453 -26 1 1 1 2 -8 -6 -15
1532262695075355 13 -10 21 1 -5 -8 -19 -14
1532262695120235 -10 5 -6 -8 6 -1 0 -4
1532262695165114 -11 31 -4 -5 -9 -3 8 -6
1532262695188053 25 -24 3 1 1 -1 -1 1
1532262695277813 -3 24 0 -2 2 4 3 3
1532262695300752 -14 -13 -1 1 -3 -2 2 2
1532262695352613 -3 -7 -6 0 0 -3 1 -7
1532262695405471 -11 -3 -1 0 0 -2 -4 -6
1532262695450352 20 11 6 1 3 -55 -44 11
1532262695465311 9 16 -2 2 5 2 18 -3
1532262695480271 -11 -17 -2 -4 0 1 3 -4
1532262695518170 -38 -5 4 5 -7 11 -6 -8
1532262695548090 5 6 -2 9 -7 6 7 1
1532262695592971 -1 -7 3 -18 -14 -6 -4 -2
1532262695667770 -3 0 -9 -15 71 9 0 -2
1532262695690708 -6 27 14 -21 5 -6 -1 0
1532262695712651 -14 -18 -9 16 55 10 3 -4
1532262695727610 -8 15 2 -16 26 6 16 -2
1532262695757530 6 6 -5 1 -20 -8 -9 2
1532262695802410 4 -30 0 2 -13 -3 -2 0
1532262695817370 3 5 -11 -4 -26 -11 -3 1
1532262695878208 16 -2 -2 -1 -1 0 0 9
1532262695900148 20 -15 -10 -8 -10 -6 -4 0
1532262695924085 -10 3 3 4 -7 -3 -1 -3
1532262695938048 -7 3 2 0 -3 1 -8 -3
1532262695967967 0 1 2 0 -2 -2 0 2
