1532259653386474 -2 -9 5 11 -1 -2 -1 -2
1532259653524107 4 -1 6 -6 0 -2 -2 -3
1532259653565994 2 4 -16 39 9 4 2 4
1532259653640794 -1 3 3 -1 -1 -3 -1 -4
1532259653655755 1 -6 4 -5 3 2 0 1
1532259653700634 -5 7 1 -3 0 -1 -1 0
1532259653738533 0 -2 8 12 4 1 1 -1
1532259653798383 6 9 -1 -11 -1 -5 0 2
1532259653835274 4 9 -1 -5 5 -2 -1 1
1532259653917056 -7 -6 -2 -2 -2 0 1 1
1532259654052693 -32 -32 10 1 -3 -1 -16 2
1532259654167396 7 -48 -2 -3 -3 -2 11 -9
1532259654204288 51 -67 21 5 1 6 10 48
1532259654353888 23 -82 21 -6 -4 1 22 35
1532259654518447 -58 27 -5 1 -5 5 5 -24
1532259654539391 -21 -17 -10 18 5 0 3 -6
1532259654600229 2 -21 -5 -3 1 -12 -4 1
1532259654884469 -6 13 15 15 6 3 -4 19
1532259654953284 1 -26 -8 -15 -14 -3 0 -15
1532259655119839 -20 55 7 -9 -5 -1 3 1
1532259655208602 7 -48 9 13 -7 -3 3 2
1532259655285397 -13 -39 11 15 5 -3 -4 2
1532259655321301 1 -5 32 -5 0 3 5 10
1532259655432004 -20 -128 -3 11 3 1 -3 7
1532259655476884 3 21 2 -13 -5 -4 -6 -8
1532259655547695 9 54 -2 0 1 2 1 3
1532259655581604 -3 -36 -17 -1 0 2 0 0
1532259655681337 5 -110 0 -3 -3 2 -9 11
1532259655884794 -3 5 2 5 3 -5 2 0
1532259655951615 -18 30 3 9 2 -2 2 1
1532259656048356 5 -14 4 -3 3 9 -15 52
1532259656102211 3 -30 1 2 5 -3 -1 -13
1532259656205935 -7 -21 -5 2 -1 -5 -22 -8
1532259656289711 -1 15 -1 6 15 22 95 8
1532259656416371 -5 -110 -8 0 2 -14 -7 -6
1532259656499175 -1 -13 -3 -2 -3 -18 -24 -24
1532259656564999 11 40 -4 -2 -2 1 61 4
1532259656580957 -1 0 -1 -3 -3 -1 -18 -3
1532259656632818 4 33 14 3 4 18 -10 1
1532259656784412 18 9 14 0 -2 -6 -24 -10
1532259656835277 -2 -5 0 -1 -1 -8 -3 -2
1532259656946977 10 42 18 2 1 -8 11 -17
1532259656985873 23 20 4 4 3 6 22 25
1532259657120513 7 -94 9 3 2 6 5 -24
1532259657135474 17 127 3 1 0 1 -35 35
1532259657264157 -7 -4 -2 1 -2 -4 -44 -5
1532259657284104 -7 -13 -4 -3 -1 -1 14 -14
1532259657315021 4 14 5 4 -1 -3 -14 -4
1532259657358904 -4 -10 -5 -4 -6 -5 -11 -12
1532259657397800 1 -1 0 -1 2 2 11 5
1532259657412760 -10 -71 -20 -2 0 2 0 -5
1532259657630178 5 4 48 -2 -3 -2 0 1
1532259657742877 3 -18 -30 1 0 -1 0 3
1532259657818674 -5 -13 -3 7 2 -1 0 15
1532259658029111 7 0 13 2 1 2 31 28
1532259658155786 7 2 22 -2 -4 -3 -15 21
1532259658253511 17 11 44 3 2 -4 -7 24
1532259658373192 -10 -1 27 -14 -5 -1 -2 -1
1532259658576648 0 3 4 0 0 -1 -13 -6
1532259658652445 32 66 11 -3 -2 -15 -13 56
1532259658701314 5 14 -4 -3 -3 5 42 -30
1532259658754174 4 -25 -33 -26 -8 2 0 4
1532259658785090 10 16 70 19 1 1 21 21
1532259658837962 9 -1 69 -9 -4 -1 0 4
1532259658851911 -13 4 -42 -5 -3 0 -1 4
1532259658912749 -14 -26 -14 -3 1 -1 -5 -1
1532259658950647 -5 1 -1 1 1 0 -4 0
1532259659132162 -24 14 3 1 -3 0 -8 -13
1532259659384487 -1 17 11 7 0 1 0 1
1532259659460284 1 9 3 1 1 0 -2 1
1532259659559020 1 12 3 -1 -3 -3 0 -2
1532259659566002 0 25 13 1 -4 -1 -3 -12
1532259659609891 4 12 2 -3 -2 0 1 -1
1532259659664744 -5 -1 -2 3 3 1 -1 -3
1532259659687682 -16 -12 -29 -3 -2 -1 -1 -8
1532259659724584 1 28 -9 -2 1 0 0 -6
1532259659783426 -3 -1 -23 3 4 3 -1 -13
1532259659812349 3 3 -4 -2 -2 5 -3 2
1532259659873186 9 -12 -12 -4 -1 1 0 -6
1532259659955979 -20 19 18 0 -6 -90 -19 -29

1532259660097600 4 34 45 12 7 6 -2 5
1532259660149461 0 -30 1 -6 1 3 2 -3
1532259660240219 -3 -96 -24 0 2 4 1 -2
1532259660269142 1 10 16 -2 -3 -1 -3 -1
1532259660292080 6 8 4 2 2 -1 1 2
1532259660375856 -5 -13 -6 2 1 -1 -1 -2
1532259660397797 2 13 1 2 3 1 1 0
1532259660434699 -2 3 -6 0 -2 0 0 -1
1532259660495536 2 0 -22 0 -3 -1 -2 -1
1532259660517478 1 15 11 2 1 0 2 -1
1532259660593275 1 14 -3 -1 -2 0 7 4
1532259660615216 8 8 -14 0 0 -2 1 11
1532259660669072 -6 17 -5 0 -2 -7 -8 -24
1532259660705974 -13 -35 -19 1 0 -1 -1 -4
1532259660711957 7 -1 8 0 -1 -1 -3 -1
1532259660750854 7 15 3 1 0 1 -1 -1
1532259660787755 -2 -25 -2 -1 0 1 -1 -1
1532259660877521 -2 25 5 -2 -1 -3 -2 -1
1532259661057079 1 -16 -5 -1 -4 2 2 -33
1532259661125895 2 -15 -4 -1 2 -12 -5 7
1532259661260535 3 -3 -10 5 3 -1 0 3
1532259661305416 -2 5 7 -4 -2 -3 -2 2
1532259661320384 -5 -38 -13 -6 -4 -1 0 -3
1532259661334338 1 1 0 5 -3 -1 -2 -1
1532259661395175 -1 19 21 5 -1 -2 0 -3
1532259661417116 4 10 -11 12 7 0 1 -3
1532259661447036 -1 0 -3 -3 3 0 -1 -1
1532259661500893 3 -1 -2 -5 0 0 1 5
1532259661574695 -8 11 10 -4 -1 0 1 3
1532259661777153 2 3 5 4 0 1 9 8
1532259661838989 -26 0 27 -1 -1 2 -2 -24
1532259661896833 -11 79 23 15 9 -3 8 17
1532259661980609 22 31 2 -11 -1 3 -6 -21
1532259662041447 -17 -61 29 -6 -2 1 7 6
1532259662386524 17 -20 -4 -3 1 0 5 8
1532259662408465 -4 46 -27 4 4 4 -1 -17
1532259662474289 13 0 0 5 -2 -3 4 -13
1532259662602945 -41 17 -17 -8 -1 -1 -1 -12
1532259662625884 6 -8 -10 -12 -1 -1 -5 -5
1532259662661788 18 -53 -13 -3 -1 -1 5 3
1532259662955003 -12 -62 -15 16 6 1 1 -7
1532259663083660 -3 30 9 6 -1 1 -2 -1
1532259663149484 -13 12 -2 -5 -3 -1 0 4
1532259663242236 16 16 3 1 -4 -7 2 -22
1532259663278139 4 46 2 1 -2 0 3 6
1532259663404805 0 0 1 11 2 -1 -2 0
1532259663460652 4 -17 -3 0 1 0 6 -3
1532259663481596 -32 -74 -22 -13 -4 -5 9 21
1532259663518497 2 -37 -16 -2 -1 1 4 12
1532259663592302 10 4 2 1 -1 -2 -11 -8
1532259663638177 -2 -23 3 1 0 -12 -23 2
1532259663795756 -27 0 -13 -4 -2 4 0 -47
1532259663847617 13 -4 -6 -3 -6 -10 -27 0
1532259663933387 -24 -64 -27 -15 -7 0 -4 -4
1532259663961327 2 -2 -6 -2 -3 -6 17 -5
1532259664021153 -14 -5 0 -6 -4 -4 -12 -17
1532259664051073 -1 -48 0 3 -1 -6 1 22
1532259664110913 7 83 4 2 3 10 4 -11
1532259664133851 3 -25 8 7 -2 -2 -5 17
1532259664171766 24 -64 5 -1 -1 -1 -10 74
1532259664284449 -7 8 -6 -4 -5 -6 -2 12
1532259664329329 -13 -47 -11 0 -2 1 -54 -64
1532259664380193 22 30 16 3 0 0 -16 31
1532259664395153 -13 -38 -3 3 3 1 -12 -19
1532259664552731 0 19 -4 -2 -1 1 -6 6
1532259664596614 4 -9 4 -1 0 2 -1 -2
1532259664626534 -8 -50 -5 -3 0 -2 -8 -5
1532259664852929 33 11 55 -9 -4 6 -2 -24
1532259664914763 -13 7 -4 0 -3 -19 1 -17
1532259664941691 -17 34 10 -5 -1 22 6 4
1532259665033446 -23 -2 8 17 1 -4 15 -12
1532259665107249 -7 -1 -18 -7 -2 2 -13 7
1532259665130188 -13 3 2 6 2 2 -5 -4
1532259665203989 8 -25 5 3 2 -9 -2 21
1532259665265824 7 13 -4 -4 -5 51 13 57
1532259665356588 36 -15 -5 -10 -2 -6 4 23
1532259665446342 11 -17 -5 6 -1 -3 -6 7
1532259665564027 -14 0 0 -3 2 9 22 54
1532259665610901 -5 -9 -5 -1 -4 2 -9 -9
1532259665670743 -20 -12 -31 16 9 -2 -13 -8
1532259665924064 9 -7 37 8 5 2 5 7
1532259665970938 7 26 5 -1 -3 -3 -3 9
1532259665992880 -49 -87 -6 -1 -4 2 -12 -28
1532259666030779 -6 18 7 0 -4 -3 4 -9
1532259666052720 22 56 3 -2 -2 -5 5 66
1532259666137494 12 67 -31 -5 -1 -1 16 9
1532259666173397 -12 -6 11 -2 0 5 29 -4
1532259666256176 -4 9 0 -1 -2 -5 -10 -3
1532259666330976 1 7 -8 0 0 1 1 0
1532259666390816 5 40 20 6 1 -1 -2 -2
1532259666428728 3 16 17 -7 -1 0 -1 -2
1532259666472597 2 13 -1 -5 -2 -2 0 -1
1532259666555375 -4 -33 -15 -1 -1 0 0 0
1532259666631173 -3 -9 -13 -2 1 1 2 1
1532259666653115 -11 -34 -1 3 -2 0 -1 -4
1532259666757839 9 -13 -6 -9 -2 -1 -1 -6
1532259666809696 -5 -13 7 -3 1 -1 -1 -1
1532259666878512 -3 0 -29 1 0 1 2 3
1532259666906437 -1 -9 13 -9 -2 -1 -1 1
1532259666975259 -6 -11 -23 -3 -2 -2 -2 -3
1532259667035099 -26 -38 -12 -3 -4 -11 2 -69
1532259667058038 15 -46 -14 4 10 32 48 68
1532259667132838 -5 27 -3 -10 -8 -19 -11 -5

1532259667185696 4 71 67 -2 -10 -17 -6 -5
1532259667237562 -4 32 2 5 6 0 -7 -5
1532259667305377 4 -37 -22 -15 -8 -4 -4 2
1532259667327317 -9 -1 29 2 -4 -2 1 -2
1532259667441018 -1 -26 2 4 2 2 9 26
1532259667477914 -3 -22 -1 1 -2 2 -2 -10
1532259667514816 -3 15 2 0 1 -3 -9 -12
1532259667545734 1 -3 6 5 -2 0 -1 -3
1532259667582635 -8 -34 -10 1 0 -1 1 -4
1532259667732279 0 4 -1 2 -2 1 1 -2
1532259667755217 -1 -15 -2 1 -1 0 -1 0
1532259667793116 -1 14 5 -1 -2 0 -2 -1
1532259667816055 0 14 1 -1 1 -2 1 1
1532259667882884 -3 -14 -6 1 0 1 1 0
1532259667942716 7 -42 -13 -2 0 4 0 2
1532259667994577 -20 24 4 0 1 -8 0 0
1532259668054418 -3 18 -2 -5 -4 8 -5 -6
1532259668116259 14 -14 1 -1 -3 -8 -2 8
1532259668160134 7 -15 -21 -3 -4 2 -2 4
1532259668198033 -3 -14 58 3 -2 -4 -2 6
1532259668264855 5 -11 -28 -1 -2 0 -1 -2
1532259668294775 1 48 0 -12 -1 1 1 2
1532259668354623 -1 -17 -8 -17 -8 -3 -2 0
1532259668392513 3 3 9 0 3 1 1 -2
1532259668475310 19 -3 16 13 0 -1 -3 4
1532259668565052 -2 -7 -5 3 -2 -2 -12 0
1532259668640849 27 -8 -13 -3 -2 2 12 6
1532259668716661 -16 17 16 -2 -2 -3 -17 -31
1532259668792455 14 -85 20 2 3 0 0 8
1532259669142507 59 55 10 13 1 -3 -6 17
1532259669331004 13 38 -13 -1 -2 -2 -7 -14
1532259669398822 19 -12 33 2 -2 -6 -3 8
1532259669471627 18 3 -3 0 1 -2 -4 14
1532259669659126 24 39 0 -21 -4 -9 -9 0
1532259669786785 -1 -8 6 12 3 1 0 2
1532259669893500 12 -6 5 7 -1 -2 4 12
1532259669961318 -1 27 -2 -1 1 7 -3 -6
1532259670043100 -4 -39 20 48 10 4 3 -5
1532259670112913 -4 32 -2 -17 -10 -8 -11 -8
1532259670118897 -8 12 -3 -5 6 2 -18 1
1532259670298416 16 72 5 -10 -1 5 -8 20
1532259670337313 -19 -22 -11 3 3 -3 12 16
1532259670507857 -3 -11 -6 -1 1 3 -10 20
1532259670770155 5 -51 7 6 1 -7 -19 -21
1532259670883851 -21 -99 -23 -4 -2 0 30 -9
1532259670971617 15 41 17 7 1 -1 -7 2
1532259671041430 2 30 -7 3 8 10 48 10
1532259671107254 -13 69 -19 -4 -6 -5 -4 -8
1532259671139184 4 38 -4 -2 -1 -1 7 -1
1532259671211974 -4 -49 -7 -1 -2 -2 -1 -8
1532259671297745 -2 44 6 -1 3 0 -2 0
1532259671340630 -8 -7 -30 -3 5 10 6 -8
1532259671499208 -8 8 47 -2 0 2 4 0
1532259671619892 -59 11 38 3 1 -14 5 37
1532259671767488 5 -7 0 -3 -1 -5 -1 -3
1532259671970946 -12 8 -3 0 5 2 2 -10
1532259672083659 18 -10 -15 15 2 2 5 4
1532259672471605 28 -31 -49 -5 -4 -4 -3 -5
1532259672510502 -17 -1 6 4 0 -1 0 0
1532259672652123 5 -5 0 -5 -3 -26 -4 72
1532259672711962 23 2 -7 -1 -1 1 -25 69
1532259672787761 -3 -3 -1 6 5 3 11 30
1532259673064021 -1 31 7 -10 -4 -1 -4 -1
1532259673132837 2 -16 14 -3 -2 -2 -3 -3
1532259673230576 -3 9 -11 -8 -2 2 -1 -2
1532259673364219 22 49 9 -9 -3 -2 -2 1
1532259673424059 -12 -79 -26 5 0 -1 -2 0
1532259673453979 -2 -13 -7 -10 -4 -2 -1 -2
1532259673492886 4 -64 -4 -7 -5 -3 0 0
1532259673567674 12 51 8 2 0 0 -1 2
1532259673620533 -8 -52 9 -7 -2 -1 -4 -4
1532259673695349 0 13 -5 -2 -1 -2 -3 -2
1532259673733232 4 7 0 5 4 -1 2 3
1532259673830970 0 -19 -91 -14 -4 -4 0 1
1532259673851914 1 -14 48 4 2 -6 1 3
1532259673912752 4 -58 29 3 13 47 20 14
1532259673934693 2 -18 15 -1 2 51 -6 18
1532259673972592 1 35 100 19 6 -10 -1 -9
1532259673994533 -5 -8 58 -2 -1 -20 -11 -9

1532259674054386 5 22 -5 -4 0 -3 2 -1
1532259674123189 -6 -3 -14 -1 -1 -5 -4 -3
1532259674152112 0 18 -7 -4 -1 1 0 -2
1532259674175050 0 7 3 -1 1 0 0 -3
1532259674226911 2 -12 0 6 0 -1 0 -3
1532259674271851 0 -1 -3 0 -2 -1 0 0
1532259674369589 0 -6 -4 -1 0 -1 0 2
1532259674400506 0 -5 -2 -3 -3 -1 -1 -1
1532259674602965 -3 6 -2 -2 0 -1 1 -4
1532259674617926 -3 -4 -2 -2 -1 -1 -1 -1
1532259674655824 -3 -42 -1 0 0 0 -1 -1
1532259674715664 -5 21 1 -1 -1 -1 -1 -2
1532259674774506 0 -29 -3 0 1 0 2 1
1532259674804427 0 -3 -2 1 1 0 -1 -1
1532259674850303 -1 10 1 -1 -1 -4 -1 0
1532259674872245 -2 -17 -9 1 -1 1 -1 -1
1532259674896181 -1 -6 -1 0 -1 -1 0 0
1532259674931977 0 6 1 1 -2 1 -1 -1
1532259674977854 -1 15 0 0 -1 0 -2 -1
1532259675007774 0 6 -5 -3 -3 -1 1 -1
1532259675060633 -1 -10 -2 0 1 -1 -1 1
1532259675149396 0 6 13 -3 -3 -1 -1 -1
1532259675299993 -2 4 -2 0 0 -12 0 -4
1532259675351854 -3 24 -4 -1 0 15 -2 -3
1532259675375790 0 20 4 -1 -2 -4 1 -2
1532259675578249 -1 -13 34 13 2 0 -1 -2
1532259675697929 28 2 0 -16 -8 -3 11 9
1532259675780707 -17 3 14 10 1 -1 -2 0
1532259675960228 12 5 -3 -4 -5 -1 -16 -11
1532259676282367 -1 -50 -13 -5 -4 3 8 10
1532259676320264 42 56 0 -14 -11 -5 -4 16
1532259676372126 -35 -120 0 -20 -14 -7 -4 -1
1532259676492802 15 -110 0 0 4 2 0 6
1532259676561619 27 -10 2 -2 2 -1 -2 -3
1532259676620462 -19 -20 1 2 0 -4 2 5
1532259676750115 -19 1 6 -1 0 1 0 -6
1532259676846857 23 6 27 31 7 1 3 7
1532259676899716 4 -15 3 4 0 1 5 -31
1532259676974515 -12 -28 16 10 0 1 0 4
1532259677093198 7 30 2 0 -2 -2 -4 -3
1532259677114141 -6 -34 -1 0 -2 0 -1 -3
1532259677196920 -2 1 -3 -1 -2 0 0 -2
1532259677259752 4 -4 -2 1 -2 0 -2 14
1532259677309619 1 40 -3 0 1 -2 2 3
1532259677386413 6 1 1 -5 -2 -1 1 4
1532259677491133 -3 44 -3 1 4 -1 -9 -11
1532259677580894 -9 0 1 3 2 4 41 5
1532259677646718 -12 -62 -14 -3 -5 -10 -16 -14
1532259677722515 5 -5 4 1 -2 0 -25 -13
1532259677760413 -5 -100 -2 2 -1 12 48 5
1532259677882088 5 77 9 5 3 10 29 0
1532259677933950 -3 -93 -13 -12 -10 -15 -78 -14
1532259677999775 -16 20 -3 1 0 -4 -1 4
1532259678194253 7 0 -13 -1 1 11 17 2
1532259678210211 13 -22 -2 4 4 -1 15 19
1532259678263070 31 -110 25 7 8 6 56 16
1532259678299971 -18 8 -6 0 2 1 23 -6
1532259678362803 4 -53 1 2 1 -3 -21 18
1532259678467523 -21 -35 1 0 -1 -3 5 -17
1532259678556286 -3 -11 -2 0 -1 0 -54 -11
1532259678691923 0 29 -1 -2 -1 -3 -2 0
1532259678856482 -15 -10 34 2 0 0 2 -1
1532259679005085 36 -8 -4 -1 0 2 -7 5
1532259679065939 31 13 -9 -5 -3 7 3 26
1532259679162664 3 2 34 -5 0 1 -1 -11
1532259679253421 -4 -5 41 6 2 4 -1 10
1532259679389058 2 -25 3 -4 -4 -13 36 70
1532259679530680 -51 -20 -20 8 -1 -2 -7 -10
1532259679567581 2 -9 42 8 2 -1 -1 -2
1532259679673298 -9 -2 -6 5 3 5 5 -19
1532259679890716 7 -11 -23 10 -3 -3 -3 -8
1532259680025357 -11 -15 -19 1 2 -12 15 43
1532259680294637 0 -29 5 13 0 1 3 8
1532259680489117 3 4 -5 -4 1 0 1 1
1532259680521032 3 4 0 -2 -1 -1 -2 0
1532259680684594 -3 7 9 3 -1 -1 0 -2
1532259680699554 2 3 -8 -2 -1 -1 -2 -2
1532259680752413 1 -8 4 3 2 3 0 -1
1532259680931933 2 5 8 3 -1 32 -9 -90

1532259681329868 -2 -2 -1 -3 -3 0 -4 2
1532259681367767 2 -2 -9 -1 1 0 -1 0
1532259681472487 1 -1 -1 -1 0 3 2 1
1532259681549295 -1 -20 -7 -1 -2 -2 -1 -1
1532259681712844 -2 -1 2 -3 -3 -3 -1 0
1532259681832524 0 -3 -5 0 -2 -3 -2 -1
1532259681878402 -1 2 -2 -1 0 0 -1 -1
1532259682109783 1 -3 0 1 0 -7 0 -1
1532259682382055 0 4 -8 0 2 1 -2 1
1532259682396018 3 8 22 2 -4 -2 0 1
1532259682575550 15 16 -1 2 1 -18 0 27
1532259682613436 -3 -14 60 0 -1 14 -4 -5
1532259682769019 -1 -28 -3 6 4 4 0 10
1532259682949539 -6 1 -2 9 6 3 -2 0
1532259683146012 4 -1 11 10 -1 1 4 1
1532259683204865 -7 0 5 2 1 -1 -1 -5
1532259683376913 35 63 5 2 2 -1 7 -9
1532259683407830 98 86 -1 -1 1 0 2 -6
1532259683460689 46 58 34 4 0 -1 -2 -12
1532259683536486 1 -31 -2 -1 0 -1 -2 -10
1532259683580369 23 51 8 -11 -2 -3 10 17
1532259683639211 -26 6 -14 9 -1 -3 -9 -7
1532259683685102 43 24 1 -7 -4 1 10 26
1532259683813745 5 -33 -21 9 4 -1 -8 -13
1532259683857627 44 6 -28 -3 -1 1 9 -8
1532259683886550 1 -2 -5 -3 -1 -1 -3 -49
1532259683969328 -13 71 6 3 0 1 6 35
1532259684015206 -3 -8 -4 15 3 -1 -7 3
1532259684157824 -30 2 26 10 -1 -3 -5 -7
1532259684180763 9 3 12 7 2 -2 -5 -3
1532259684314406 -12 -24 5 13 0 0 -2 -1
1532259684474984 1 9 5 2 2 -10 -2 4
1532259684600641 5 13 5 5 1 -2 0 1
1532259684779163 4 9 -3 -4 -1 -6 -3 11
1532259684813072 -5 45 5 -1 -2 6 -9 -9
1532259684937752 -21 2 2 -1 0 0 -13 -10
1532259685036475 -4 -48 -1 1 1 4 10 18
1532259685045451 -3 38 7 0 -1 -1 -12 1
1532259685124240 4 8 -4 -5 -2 -1 -4 2
1532259685222976 -2 2 -4 8 2 -4 0 -2
1532259685267856 3 5 -2 2 4 9 17 26
1532259685342656 -5 -2 1 3 0 -24 -40 -6
1532259685426432 7 17 -2 1 0 -8 -11 -41
1532259685454374 -16 -24 -28 -10 -2 -4 -23 -20
1532259685838331 -1 75 3 2 -1 -2 6 2
1532259685883210 -4 -118 -68 1 -4 -12 -3 0
1532259685943051 13 116 12 -2 0 4 2 -6
1532259685965993 -10 62 -15 2 2 -17 -3 0
1532259686099632 19 0 3 6 1 16 -10 9
1532259686122571 -6 -8 -16 -2 0 -15 1 0
1532259686325029 19 -28 7 -13 -7 0 -1 13
1532259686398832 14 -6 -4 6 4 1 2 7
1532259686505547 0 -1 9 2 0 5 -7 18
1532259686565386 44 -9 3 2 2 4 -5 -22
1532259686662128 -5 -4 4 0 -5 -3 -3 -14
1532259686730959 7 25 -7 -4 0 5 0 10
1532259686865584 12 9 9 5 -1 -58 -62 65
1532259686955368 7 55 7 3 2 15 16 80
1532259687517863 -4 1 -1 16 5 2 5 -5
1532259687795121 -13 -48 -5 -2 -3 -2 0 -4
1532259687907820 -4 21 -3 -1 -4 -1 -1 -1
1532259687967660 8 -83 15 2 1 0 1 -1
1532259687989601 2 11 19 -3 -2 -3 -2 -2
1532259688049441 -7 -31 -8 1 4 9 1 -3
1532259688073377 -4 16 12 -1 -9 29 16 -14
1532259688118257 -7 47 -19 -5 -3 18 -2 -2
1532259688149174 8 -31 -17 1 2 -19 -5 43
1532259688178097 -3 -4 -115 4 6 -4 4 11

1532259688222977 6 -4 68 25 6 -10 -5 2
1532259688327697 -6 18 10 -6 -1 -6 0 1
1532259688567063 0 20 5 1 -1 -1 -2 -3
1532259688650839 4 34 2 -3 -1 2 1 -1
1532259688732677 0 -33 -13 0 -2 -1 0 -4
1532259688770575 -9 1 -2 0 2 14 -6 -37
1532259688808475 6 -38 -5 5 12 -14 11 -49
1532259688889280 5 15 27 -2 -4 -2 -2 -7
1532259688981035 3 -9 -31 -4 -1 6 2 -1
1532259689024918 5 5 -3 -5 -3 0 1 27
1532259689092736 3 10 2 23 5 -1 -3 -8
1532259689159558 -1 -11 0 -5 -1 -2 0 -2
1532259689318134 -1 -5 -13 0 1 2 -1 -1
1532259689458757 4 -8 3 5 2 -4 1 0
1532259689564475 0 -17 -10 -12 -3 -4 -1 0
1532259689774912 -78 -28 -27 -11 -7 -2 -13 -31
1532259689992331 37 -25 10 8 8 7 -3 19
1532259690272581 -15 3 17 13 4 2 -5 -4
1532259690366330 -4 -5 16 5 -3 -5 -6 -1
1532259690475044 -7 -11 2 6 -2 -1 -2 -1
1532259690615664 -54 -78 3 0 -3 -3 10 -13
1532259690704426 -52 -40 -5 0 -3 0 1 -6
1532259690786208 9 28 -16 4 2 1 2 11
1532259690841068 0 -62 -4 -1 -3 -4 -6 7
1532259690915861 9 75 3 1 0 -5 -3 -8
1532259690984685 4 -30 -1 -3 1 6 9 9
1532259691103360 16 5 -8 -2 2 3 2 19
1532259691184161 -4 9 4 7 1 1 0 -2
1532259691329758 -3 4 -8 -6 -6 0 -1 -7
1532259691388597 -4 66 -6 -2 -2 -1 1 3
1532259691494314 4 122 2 -3 -1 2 -29 -2
1532259691560138 3 53 13 5 2 6 16 6
1532259691620975 12 20 0 0 0 1 13 0
1532259691747637 3 31 7 1 0 0 -2 -12
1532259691823435 -27 -37 -3 -6 -5 -1 -4 1
1532259691874298 1 31 9 1 -2 3 4 11
1532259691934138 0 60 4 2 2 2 24 13
1532259692101689 -1 -79 -8 2 3 4 12 11
1532259692175492 12 -1 6 -2 -3 -3 -13 -36
1532259692304148 -2 -103 8 6 3 0 -41 -5
1532259692356009 39 -37 15 4 1 1 41 13
1532259692407871 2 -27 -11 -4 -8 -2 -52 16
1532259692490650 4 -1 7 1 -3 1 5 15
1532259692617311 0 -30 9 0 2 1 -6 -19
1532259692790846 -1 -55 -45 -4 4 -1 3 0
1532259693218702 -12 -23 13 4 -3 3 29 7
1532259693405204 -15 1 -2 0 0 0 -12 -6
1532259693449087 -16 3 -4 -9 -6 -19 -16 -2
1532259693487984 -18 -3 23 1 0 -1 -25 16
1532259693539844 10 -10 -27 -75 -9 7 17 6
1532259693601679 34 18 -40 23 4 3 5 -5
1532259693765241 40 -62 0 4 6 -69 -11 -73
1532259694042500 -16 -4 1 2 0 -1 -10 -4
1532259694396554 -5 12 14 -12 3 0 6 9
1532259694507257 0 -5 0 14 6 2 0 1
1532259694687775 -29 -57 18 -10 -6 -3 -1 -3
1532259694724676 3 43 26 5 0 2 -1 -1
1532259694784516 6 28 -14 -13 -6 -3 -2 -1
1532259694807455 -9 -51 -10 3 2 2 3 0
1532259694935113 -17 21 -3 5 6 -11 2 -51
1532259694986975 -4 -17 -84 -9 -1 -42 -4 -31

1532259695069752 -17 -11 -12 -13 -7 -31 -6 -13
1532259695167492 0 -7 13 0 -1 -7 -2 3
1532259695205391 -2 -9 5 5 1 5 0 1
1532259695227332 4 7 -4 -5 -1 -2 8 11
1532259695287172 1 5 2 -1 -1 0 -5 -6
1532259695325070 -10 -25 -11 -6 -2 -9 -1 0
1532259695406852 1 -13 10 0 -4 -12 0 1
1532259695474670 0 0 5 -1 0 2 -2 -3
1532259695490628 0 21 -1 2 1 0 -2 0
1532259695504591 -2 -11 -2 -3 -2 -4 -3 -4
1532259695543487 -1 1 2 -1 0 3 -2 -3
1532259695557448 2 -23 -4 -2 -4 -1 0 1
1532259695609316 -3 -26 -15 -5 -1 -3 0 -1
1532259695648206 -6 -7 7 1 0 0 0 -2
1532259695685107 1 -2 2 0 1 1 -2 -1
1532259695769881 -1 16 2 -1 0 1 -3 -1
1532259695811777 2 22 0 -1 -2 0 0 -1
1532259695820753 -2 14 -20 -2 -1 0 6 2
1532259695879596 -1 -22 -54 -8 -7 34 0 -1
1532259695939436 -9 -19 -5 1 1 -10 -3 3
1532259696007255 1 -8 -3 -6 -18 28 -4 -50
1532259696046155 -10 12 -9 0 0 4 -6 -10
1532259696082055 4 -21 -60 -4 -4 -4 3 7
1532259696111975 -2 -10 29 4 3 0 0 6
1532259696216710 -1 2 9 -5 -2 -1 1 -2
1532259696284513 0 6 -11 -6 -6 -4 0 0
1532259696322412 -2 -3 5 -12 -8 -4 -2 -3
1532259696390231 2 -15 -17 6 3 3 2 3
1532259696465031 7 -3 6 -8 -1 -1 0 1
1532259696524870 -3 -4 -15 -1 -6 -3 -1 4
1532259696795147 -14 -62 -5 1 0 -1 -9 7
1532259696855985 33 21 -59 0 3 -3 0 30
1532259696892887 -5 35 6 -11 -8 -6 -8 12
1532259697049468 7 -21 -10 2 -3 -2 -1 6
1532259697223004 20 20 1 5 6 -1 -1 10
1532259697252923 5 -15 -3 -3 -3 -2 -7 -1
1532259697282844 26 17 18 0 0 0 2 1
1532259697349665 8 -32 8 16 -1 -1 2 -2
1532259697433441 31 22 8 2 0 5 7 17
1532259697469345 3 -11 -5 12 7 7 -2 -10
1532259697493281 10 7 -4 -8 -10 -14 0 -41
1532259697515223 -22 -4 3 -4 -3 -2 5 -3
1532259697554138 5 45 0 -5 -3 -1 -4 1
1532259697612961 -36 -9 8 2 -6 -8 -10 -30
1532259697680781 11 42 -2 -1 -3 -2 3 3
1532259697914162 1 6 2 -2 -2 1 -1 -6
1532259698032844 -4 0 -6 -6 -5 -5 0 6
1532259698063762 -5 19 -6 -8 -7 -4 2 27
1532259698106647 7 -33 3 -4 4 1 0 -8
1532259698191421 2 -19 0 -2 -6 -3 -4 -9
1532259698220352 14 50 5 -4 -4 -1 0 -11
1532259698241287 0 15 3 -1 7 -2 -5 -10
1532259698267218 3 -7 0 1 -10 -1 -1 -1
1532259698341032 -6 -12 1 -1 -3 -1 0 17
1532259698393880 2 21 6 4 1 -2 5 -3
1532259698407842 -7 91 -6 -5 -6 1 -9 -22
1532259698460701 1 59 -3 4 15 5 3 -4
1532259698474663 -10 32 2 -7 -2 8 31 -1
1532259698535501 -26 50 -1 -6 1 0 -51 -4
1532259698631244 -13 49 0 4 5 6 19 49
1532259698692082 -4 -18 2 1 3 -3 34 -1
1532259698761895 17 120 5 -2 -4 3 14 2
1532259698781842 7 50 13 5 2 -7 -3 -9
1532259698865618 -22 12 3 4 6 1 -82 -19
1532259698940418 4 84 -1 -1 0 8 10 38
1532259698991282 4 19 2 -3 -3 -8 -6 34
1532259699047132 -10 -7 -5 -1 -1 -1 -64 -8
1532259699078050 4 -51 -3 1 -2 -6 -24 37
1532259699098994 -16 -39 -30 -12 -8 -10 3 -36
1532259699187757 16 23 17 3 0 4 41 21
1532259699225655 -16 -25 -27 -9 -6 -4 -5 -53
1532259699307436 10 22 -1 -3 -3 -3 -10 -9
1532259699374258 -7 -60 -3 -4 1 -1 8 -10
1532259699391212 1 103 1 0 0 -1 -3 -3
1532259699436092 18 33 -5 -1 5 2 4 -9
1532259699451053 -14 -77 -14 -1 3 39 0 -6
1532259699525853 -4 1 45 7 0 -10 6 -3
1532259699847991 17 8 -55 8 0 0 -4 12
1532259699930770 36 9 35 -9 -6 40 15 46
1532259699982631 -13 18 16 0 0 -17 67 -11
1532259700005570 11 1 7 1 -1 -8 -31 2
1532259700050450 15 -5 -2 0 1 25 31 -15
1532259700080369 0 -3 2 -4 -3 -10 2 44
1532259700163149 -14 -68 23 -21 -5 -14 10 0
1532259700185090 -12 17 -4 22 2 -4 19 1
1532259700296791 -20 16 0 1 0 -23 7 3
1532259700327708 25 -15 -13 -3 -5 -17 1 16
1532259700403506 -48 -46 -9 1 4 -34 -25 -76
1532259700463345 34 5 -1 1 -1 8 53 32
1532259700500247 -102 -6 -5 -8 -2 3 1 -9
1532259700537174 -32 -7 -16 -10 -5 -11 -14 3
1532259700642865 2 -18 -105 0 -7 -7 -6 -2
1532259700702705 23 30 -2 -4 -5 -5 0 21
1532259700762546 -3 -70 2 6 6 4 2 -57
1532259700906161 -3 26 -22 6 9 -11 38 -20
1532259700965004 30 -19 8 1 2 -2 14 5
1532259701024844 10 -10 2 -15 -6 0 9 -1
1532259701242262 -2 30 8 7 0 2 4 -2
1532259701310081 5 -6 1 4 -1 -1 0 2
1532259701384881 -11 9 19 9 5 0 1 0
1532259701482620 2 9 16 -13 -2 1 3 1
1532259701579361 3 2 -18 0 3 0 -3 -1

1532259701804766 -7 -38 -39 1 -2 4 5 4
1532259701842657 -6 76 7 1 1 0 6 -18
1532259701879558 8 -53 -10 -13 -3 2 1 21
1532259701940396 4 -21 -9 5 1 0 -3 8
1532259702008214 3 49 11 1 -1 -9 -3 -11
1532259702022177 1 -5 -2 0 0 1 9 2
1532259702068054 -4 42 3 2 2 -2 -1 -7
1532259702104956 0 -33 -1 -1 0 7 2 -1
1532259702134875 -5 6 4 -1 -4 -10 -2 -1
1532259702165793 2 -3 2 1 -1 -3 -2 1
1532259702202694 0 -7 -5 1 0 -1 -3 -3
1532259702247574 2 -22 -1 1 0 4 -2 2
1532259702284476 0 -13 -16 0 -3 -1 2 3
1532259702322374 -1 12 6 -2 -2 1 1 1
1532259702345316 -2 2 3 2 1 3 1 0
1532259702382214 -3 0 0 -1 -1 4 1 0
1532259702405153 5 3 -3 -1 -2 3 0 0
1532259702471980 -3 0 -3 0 0 -4 1 -1
1532259702498902 2 7 3 0 -1 -9 -1 0
1532259702516854 -6 -19 -6 0 -1 2 -4 -7
1532259702553756 2 -18 -6 -1 -8 3 -1 1
1532259702629553 4 -12 -6 0 0 -10 -2 -2
1532259702698731 1 -2 -2 -3 -1 -2 2 2
1532259702756578 -2 9 0 -1 -1 -6 -2 -2
1532259702794511 -6 20 7 1 -4 3 0 -3
1532259702855333 2 -4 -2 -1 2 9 2 1
1532259702922155 -3 -9 -2 1 0 -3 -1 -1
1532259702974015 -1 -9 26 -1 -3 -4 -2 -1
1532259703027874 -1 -5 -9 -1 -2 1 -3 -2
1532259703078736 10 -26 -4 -1 -4 -6 -18 -14
1532259703162512 2 -13 0 2 5 -17 2 -3
1532259703236314 -1 -6 -35 1 2 -4 -1 -1
1532259703297152 0 12 17 -5 0 -4 0 -2
1532259703342031 -1 18 43 14 7 2 -1 -3
1532259703363973 1 9 4 -4 -2 -4 -1 1
1532259703432802 0 1 -11 11 6 0 0 3
1532259703477669 -7 -8 -3 -12 -6 -4 -2 2
1532259703515572 -3 -3 -8 -7 1 -1 0 2
1532259703544490 3 3 -11 -15 -12 -3 0 -3
1532259703664169 14 -4 -10 4 -7 0 0 -6
1532259703813770 6 27 1 2 4 2 -6 -8
1532259704085045 41 65 -10 -2 -4 -1 5 10
1532259704169818 -8 19 -5 -15 -6 -1 -1 -3
1532259704252597 -15 -73 -21 -1 2 -1 -4 1
1532259704415162 19 -19 -6 -15 -2 1 -5 -7
1532259704497940 12 53 4 10 1 -2 2 0
1532259704624602 6 9 -12 -3 -2 -5 -1 -10
1532259704902858 10 15 13 5 -2 -2 0 4
1532259705120277 20 -8 1 1 0 0 -1 -2
1532259705218015 7 26 -4 -11 -1 1 0 9
1532259705329716 7 24 -6 -32 -12 4 -10 2
1532259705489290 1 -36 2 -1 2 0 2 0
1532259705592015 21 47 15 5 3 1 -13 1
1532259705630911 -11 61 -6 -3 -3 -5 12 -4
1532259705652852 -15 -128 0 1 -2 -4 27 -27
1532259705795471 34 8 20 3 -2 -2 8 0
1532259705834367 7 -21 0 -1 -2 7 -8 2
1532259705953050 12 58 0 -4 -4 -10 0 8
1532259705997930 -17 -2 -22 -10 -6 -8 -18 -11
1532259706125588 -14 91 -4 3 -2 -4 -20 1
1532259706185428 33 64 6 4 5 10 46 13
1532259706251252 -31 -8 -10 -6 -1 5 45 -31
1532259706371930 12 19 17 1 -1 -3 -14 13
1532259706455706 9 33 89 4 3 -8 -2 -18
1532259706539481 17 -32 -2 -6 -4 -3 -1 -1
1532259706711023 -19 12 -23 -4 -5 -7 -13 -11
1532259706740942 23 7 27 -1 -3 -4 3 10
1532259706785823 42 18 94 -3 0 0 6 15
1532259706952377 -4 15 -23 -2 -3 -2 -1 -3
1532259706994265 2 -21 4 -4 0 -4 1 -43
1532259707162815 24 -1 -7 -25 -9 -1 -8 -8
1532259707197722 57 33 -35 -3 -1 -1 -3 -10
1532259707439076 11 74 15 -1 0 -11 31 55
1532259707820059 45 -66 24 -1 -5 -10 -35 -35
1532259707841998 -97 -33 -7 -13 -20 -8 17 -46
1532259707903833 -7 39 -4 -12 -9 -8 -32 -69
1532259708097316 1 -32 -63 -15 -19 -4 2 7
1532259708188079 2 10 16 8 5 0 -1 1
1532259708359614 2 -23 4 -2 -1 -1 -5 -2
1532259708474308 5 3 -2 -4 -1 -1 2 0
1532259708527166 5 53 2 -12 -3 -3 -1 0
1532259708601966 13 26 -7 -19 -3 -2 -4 2
1532259708735609 -8 -5 -44 6 5 -15 -5 10

1532259708832350 2 -24 -63 0 -3 -16 1 3
1532259709065726 -1 -7 0 1 1 -2 1 -2
1532259709079689 0 -5 -6 1 0 4 -2 -2
1532259709141524 0 -2 1 1 0 -2 -2 -4
1532259709185406 -4 0 3 -1 2 0 0 0
1532259709207347 -1 -38 -2 0 0 -3 -1 -1
1532259709292120 -1 6 1 0 -1 2 -3 -2
1532259709319049 1 3 -1 -1 -2 -2 -2 -1
1532259709342984 -5 11 2 1 -1 -1 1 0
1532259709365928 -1 -8 -2 -1 0 1 -2 -2
1532259709387864 -1 -4 -2 -2 -1 0 -2 -2
1532259709440723 -4 8 1 1 -1 -1 -1 -2
1532259709485610 0 20 1 -1 -3 -5 -1 0
1532259709491593 1 10 0 0 1 2 -1 -2
1532259709529492 2 -3 -3 0 -1 0 0 2
1532259709568388 -1 5 49 1 0 0 2 0
1532259709589332 1 13 -8 1 1 4 6 -1
1532259709628228 -3 6 -12 0 3 21 -3 -4
1532259709665129 -3 -3 -7 -2 -1 -4 1 3
1532259709696047 12 82 6 -10 -10 105 38 -7
1532259709747908 -4 -40 17 3 2 -26 -8 -11
1532259709807748 -1 -29 -25 -1 0 -14 -1 -12
1532259709830687 2 0 33 13 1 0 2 -6
1532259709890527 0 -15 1 4 1 -4 -1 7
1532259709988265 -2 -5 11 28 7 -1 -3 -4
1532259710055099 2 -9 2 14 4 2 1 3
1532259710064068 -4 0 -10 -7 -4 -2 -2 -4
1532259710167785 -11 5 5 0 -1 -1 0 -4
1532259710594644 16 -50 -9 2 0 -2 -7 -7
1532259710671439 22 -16 0 -2 2 8 4 -7
1532259710923777 -13 -29 -18 -16 -5 1 -3 -7
1532259711023497 12 0 -11 -16 -8 -5 0 2
1532259711090318 -11 72 -7 1 3 1 -1 -2
1532259711158137 -13 -19 8 3 -2 -7 -5 -29
1532259711309731 8 13 -3 -7 -3 0 0 5
1532259711381556 -4 -73 -6 -6 -8 2 -2 13
1532259711435396 -11 59 -3 -7 3 -4 1 3
1532259711533135 7 -4 7 9 2 -2 -3 6
1532259711592974 -5 -39 -3 0 -3 6 -3 -8
1532259711637856 1 -18 0 0 0 -2 1 1
1532259711690722 2 -33 -3 -3 -4 0 3 -3
1532259711773491 0 0 1 0 0 -1 5 23
1532259711786456 -2 -10 -4 -1 -3 -6 -3 33
1532259711846297 -15 -23 -8 2 2 3 -2 -26
1532259711873225 8 39 -3 1 -1 0 4 -2
1532259711915113 -20 -9 3 0 0 -3 -1 -20
1532259711938051 6 -53 -2 -1 -2 0 1 27
1532259712041774 -8 -77 -12 -5 1 4 11 -21
1532259712118568 -12 -34 -13 -4 -2 12 45 -1
1532259712350947 -18 6 -14 -9 -8 -4 3 -10
1532259712409790 -1 -5 -23 -4 0 6 0 -11
1532259712485587 -27 42 1 1 1 1 24 -12
1532259712552408 -9 -67 -17 -8 -4 -8 -42 -31
1532259712606270 -4 -25 10 -1 -3 -1 -10 0
1532259712637186 20 8 -3 -3 -5 -11 2 4
1532259712703006 4 28 -4 -1 -1 0 -36 -10
1532259712747885 6 -23 0 1 3 -1 -14 27
1532259712779800 17 -10 11 1 -2 -3 33 13
1532259712830665 -5 22 0 -1 0 0 2 17
1532259712875545 25 5 28 2 3 3 9 11
1532259712982259 -32 -71 -88 -19 -12 2 3 -19
1532259713100941 8 -4 -1 1 2 -2 15 41
1532259713152803 38 18 2 2 1 10 -3 -5
1532259713191698 -4 -9 50 -15 -8 -14 2 41
1532259713242563 -3 15 6 -1 0 0 -8 -1
1532259713265502 -9 5 -1 28 11 1 -3 -2
1532259713318360 14 -10 -29 -1 -3 -2 -4 -7
1532259713496883 -7 -79 -11 -9 -13 -7 -18 -50
1532259713582670 -11 -2 -2 -2 0 -2 -5 -10
1532259713618560 -18 11 64 -41 -22 -8 -6 22
1532259713671429 -8 4 -68 -2 2 1 1 21
1532259713745218 2 16 28 -7 -4 0 -1 16
1532259713856920 0 80 2 -4 0 11 40 47
1532259713917757 2 2 4 0 1 4 -7 -63
1532259713940696 -38 16 4 0 -1 -10 -11 5
1532259713999538 -42 -11 -33 -21 -10 -11 7 35
1532259714097278 5 3 -9 1 -4 -3 2 6
1532259714225934 0 -11 23 2 2 -2 -4 -5
1532259714269816 -78 -10 14 0 0 -9 -26 -5
1532259714299736 -22 14 10 -8 -7 -23 -5 22
1532259714457315 19 -1 2 -5 -1 -4 -1 -7
1532259714548071 4 -42 -20 5 -5 -4 -4 1
1532259714565027 0 -1 -1 -3 1 -2 -1 2
1532259714615890 -10 -7 20 -4 -5 -1 -3 -5
1532259714779453 6 -6 8 14 4 0 -1 -1
1532259714930050 -6 20 9 -4 -6 0 -3 -2
1532259714983906 -3 6 -16 4 0 1 -1 -1
1532259715057709 7 19 12 12 0 0 1 1
1532259715169410 -5 5 18 10 2 -87 15 -17
1532259715237239 3 5 -128 -10 2 14 0 -15
1532259715261165 -12 -15 105 26 7 9 -2 3

1532259715462627 -8 -4 -8 -2 0 1 -3 -39
1532259715523488 5 17 19 0 -1 3 -1 5
1532259715605269 -1 18 6 -2 0 0 -5 -3
1532259715657138 -9 -72 -19 -4 -1 3 -2 -4
1532259715739916 -1 1 -4 -1 -1 -8 -4 -1
1532259716025160 0 1 4 -2 0 -2 -2 1
1532259716152812 -1 0 -1 1 0 4 -2 2
1532259716175766 1 27 3 2 -1 1 -2 -2
1532259716205671 0 -24 -5 1 -1 -5 -1 -2
1532259716244567 -1 3 0 -1 1 0 -1 0
1532259716273490 -3 -6 14 1 -2 0 -2 -1
1532259716279473 7 -16 -8 -2 -2 -10 -3 -1
1532259716325350 -2 4 -4 -2 -2 -1 -1 0
1532259716362252 0 -21 -1 -1 -4 2 -1 -1
1532259716430087 -1 -4 1 0 -3 -7 -2 2
1532259716466988 1 -9 -1 3 -1 -2 0 -1
1532259716507880 5 21 0 0 -1 -1 0 0
1532259716519846 -2 12 2 -1 -1 -3 0 1
1532259716579687 1 -6 -3 -2 0 -1 -3 1
1532259716625580 2 4 -1 -1 -3 -1 -1 0
1532259716655485 3 -8 -1 1 0 1 -1 0
1532259716699367 1 9 3 2 2 -4 -1 -1
1532259716759207 -3 -53 -10 -3 -3 -2 0 -1
1532259716768189 0 0 0 -1 -2 1 -1 0
1532259716828023 -1 -2 -2 1 1 6 -2 -1
1532259716850962 -2 0 2 -2 -3 -3 0 2
1532259716878887 0 5 -1 0 -1 5 -1 0
1532259716910801 -17 18 0 0 3 0 -1 -5
1532259716992583 -3 11 -74 0 2 5 -2 -2
1532259717045442 1 3 3 -2 0 -14 1 -2
1532259717059404 -13 4 13 1 -2 16 0 -4
1532259717074365 5 -5 7 1 2 -5 0 2
1532259717105282 -5 9 1 -2 -1 -1 -1 -2
1532259717128220 12 33 6 -5 -17 -37 1 4
1532259717142183 13 27 -4 1 0 9 -27 33
1532259717165122 -21 5 0 -1 4 -40 -8 -15
1532259717188067 0 -3 33 1 -1 24 3 -6
1532259717247900 -6 -26 81 -1 -1 13 4 -10
1532259717262860 0 5 16 4 5 -7 1 0
1532259717285799 1 -7 -9 -4 -4 24 -1 -1
1532259717315718 5 20 19 2 -2 0 3 -1
1532259717336663 0 14 26 1 -2 -7 -2 -3
1532259717367580 -3 -6 4 -2 -2 -6 -2 -3
1532259717390521 -2 -1 -5 -3 -5 41 -3 -4
1532259717465319 -2 -2 -1 0 0 -3 -2 -2
1532259717487277 1 -2 7 4 0 -1 -2 -1
1532259717555079 1 26 13 -13 -6 -5 -2 -1
1532259717592978 -1 7 7 -4 -5 1 -1 0
1532259717667777 -1 3 6 -5 -5 -1 0 0
1532259717681740 5 6 5 -9 -6 -3 -3 -2
1532259717741581 -4 -3 28 5 -7 -3 -1 1
1532259717765516 -14 2 -2 -5 0 -3 0 0
1532259717810396 5 3 -2 6 10 1 -1 -3
1532259717870236 -17 1 -2 -3 -4 -1 1 -2
1532259718064716 3 34 3 0 0 1 1 3
1532259718124556 2 72 -11 -2 -3 -1 8 -4
1532259718298091 6 19 -1 8 7 -4 -14 -2
1532259718462652 27 114 -8 -2 -6 -1 8 31
1532259718568369 44 15 -1 -6 -7 -2 1 5
1532259718598289 28 -46 19 7 1 2 -5 1
1532259718710987 -5 2 -10 -17 -1 -2 -3 5
1532259718792769 -32 -52 1 3 -2 -6 -4 -18
1532259718830668 2 -97 -9 -1 -2 0 3 5
1532259718867569 -26 6 -5 -5 0 0 0 13
1532259719003206 20 -40 -24 -1 0 0 3 6
1532259719130865 17 -7 -4 5 0 -1 -1 -5
1532259719213644 -4 -41 6 -6 0 -5 0 -7
1532259719249548 -18 -20 1 -3 -8 -1 10 2
1532259719272486 5 5 -3 -9 -7 -5 7 13
1532259719340305 35 11 -11 -5 1 -1 0 1
1532259719355265 -6 10 4 3 3 1 -4 -16
1532259719407126 -18 51 7 -1 -4 -1 5 1
1532259719507857 7 3 1 5 0 0 1 9
1532259719526806 4 7 3 6 -2 -7 -5 2
1532259719565703 -10 -6 -4 -7 -10 -13 -2 -13
1532259719639505 -19 -72 -6 3 14 4 -4 2
1532259719664451 -1 -4 -1 -1 0 2 3 -4
1532259719685383 0 31 4 4 0 -6 6 2
1532259719760182 1 77 12 1 2 3 7 -3
1532259719813040 -27 -55 -23 -7 -9 -6 -1 -6
1532259719856924 -15 27 3 -1 -1 -2 -8 3
1532259719874876 -6 43 7 3 1 -6 -29 -12
1532259719896817 33 4 9 -4 2 0 5 19
1532259719932721 2 -86 -1 0 0 1 13 -25
1532259719978598 13 -42 8 0 -4 1 -4 31
1532259720044432 7 -14 14 4 2 1 -5 32
1532259720112241 4 3 -13 -9 -8 -10 -6 -16
1532259720135180 -18 -1 4 4 3 4 5 -2
1532259720196017 53 -30 15 23 6 -2 -97 3
1532259720263836 12 0 -12 -1 3 7 -4 6
1532259720353608 -18 -35 -40 -10 -1 2 -23 -1
1532259720413436 1 -71 2 2 1 5 25 16
1532259720465297 -21 49 -6 -3 -2 -3 15 -19
1532259720607933 2 -12 5 0 2 2 -3 1
1532259720734577 10 93 4 -11 -8 -14 2 0
1532259721065692 17 -1 32 15 12 11 18 1
1532259721179386 4 6 -40 -1 2 -1 12 45
1532259721237232 -21 10 5 -2 2 -5 -51 65
1532259721275131 10 -15 2 4 2 20 12 33
1532259721299079 10 -4 10 8 8 -9 -22 -54
1532259721417749 -3 15 24 -10 -3 1 -14 -5
1532259721477589 -2 -7 -63 -24 -5 0 -6 -3
1532259721537439 1 -21 13 -8 -1 0 -1 0
1532259721553387 -7 -1 11 -3 1 5 3 -10
1532259721597270 -7 2 -1 2 1 0 0 -46
1532259721643147 14 -8 -2 -2 0 -1 -11 62
1532259721702986 1 -6 19 3 1 -1 -11 2
1532259721777787 12 -23 4 17 7 5 -5 -5
1532259721957306 -10 2 -83 -15 -2 4 -2 -7
1532259722017147 2 6 9 -2 -5 -3 -7 21
1532259722055050 -21 29 23 -2 -1 -8 -11 -59
1532259722100923 16 38 13 55 12 -7 -68 -19
1532259722145803 1 -55 12 -4 8 7 59 17
1532259722197664 27 -21 -3 -14 -4 -9 4 -8
1532259722317344 22 -6 -9 3 -13 -1 4 2
1532259722377184 5 -18 -15 -6 -1 -2 -1 -2
1532259722460960 7 -12 -17 -4 10 -1 -2 3
1532259722482901 -3 -9 2 -9 -5 -1 -3 -4
1532259722527782 -1 -5 7 1 2 -1 0 1
1532259722602581 0 2 4 -1 -1 -1 0 -2
1532259722708299 -6 -16 -14 13 6 1 0 -1
1532259722730240 -2 26 0 2 1 2 -2 0
1532259722805040 -5 9 21 -4 -3 -2 0 0
1532259722933696 28 90 15 6 7 4 -7 -31
1532259722976581 -31 -28 -9 4 -6 29 5 -19
1532259723030437 -18 56 -3 -7 0 -7 -1 -25
1532259723068336 -5 -55 35 -7 1 -4 0 -7

1532259723216939 0 21 -20 -4 -2 -6 4 -14
1532259723285793 -10 -11 2 -2 1 -5 2 -2
1532259723383524 -19 21 -3 1 2 0 -2 -3
1532259723443364 4 4 -2 -1 0 15 -3 -2
1532259723519162 -6 4 5 1 -1 2 0 -1
1532259723600943 3 9 2 1 2 0 -1 4
1532259723636847 15 -3 0 1 0 -1 4 4
1532259723682724 -3 -10 -1 -3 -2 1 -4 -4
1532259723736580 -4 7 -1 -2 1 1 0 -1
1532259723771488 0 -29 -1 -1 -2 -8 -1 -3
1532259723818368 4 -11 -2 1 0 -3 1 0
1532259723863247 -7 15 3 0 0 0 0 -3
1532259723892170 4 -39 -7 -3 2 11 0 1
1532259723914112 1 56 4 -1 -3 -4 -3 -3
1532259723973952 1 6 -1 -2 -1 -3 0 -1
1532259724011850 -4 30 0 -2 -2 -7 -3 -3
1532259724057727 3 -3 4 -1 -1 -4 5 3
1532259724071691 2 -20 -4 1 0 -4 -4 -4
1532259724140506 5 29 2 1 0 5 -1 0
1532259724191371 1 67 1 -1 -4 -13 -2 -1
1532259724200347 0 6 -2 -1 -2 2 -3 0
1532259724260202 -3 -11 0 -1 -3 7 2 -2
1532259724312048 2 -11 0 -1 1 7 -2 -1
1532259724342965 7 -6 -3 -1 -1 5 -3 -1
1532259724402805 -1 1 -6 2 1 0 -2 -1
1532259724485584 3 16 -2 0 1 0 -1 -2
1532259724673082 0 -6 -5 -6 -2 -13 -2 1
1532259724770821 1 -4 -4 1 0 -5 -1 0
1532259724845621 -1 -10 -4 0 -1 0 0 -2
1532259724867563 -3 6 -1 0 0 4 -1 -2
1532259724889504 -2 -2 1 -3 1 0 0 -1
1532259724907455 -2 -16 -1 -1 -2 14 0 0
1532259724929398 -8 -10 -5 -2 -1 -6 -3 -6
1532259724964304 -1 12 -1 0 1 -4 2 0
1532259724988240 -1 -28 -2 1 -1 -1 1 -1
1532259725002202 -6 11 3 -1 -1 -3 0 -2
1532259725033119 -3 4 -2 1 0 -5 -1 -1
1532259725062043 -3 9 1 -1 1 -12 -3 -2
1532259725085978 -4 -12 14 1 -1 -1 -2 -5
1532259725107920 7 9 42 -6 -4 -15 0 4
1532259725121882 -2 -1 -18 2 -1 2 -3 -1
1532259725158784 -5 17 -6 -3 -5 7 -9 -2
1532259725182719 6 -1 0 2 9 36 1 3
1532259725204663 2 -30 -1 1 -13 -59 -20 -17
1532259725250539 -1 18 -25 0 -3 -29 1 -19
1532259725288436 -3 -14 70 2 1 3 1 2
1532259725310379 13 20 22 2 -2 -10 0 -4
1532259725327333 -1 -23 -26 -1 0 -5 -1 -4
1532259725378200 -2 4 -37 -5 0 0 2 -3
1532259725422080 4 9 -12 6 4 2 -2 -1
1532259725438054 -4 -11 -12 5 -2 0 1 0
1532259725467957 2 -12 4 6 8 1 1 3
1532259725512837 -10 2 6 23 4 0 2 -1
1532259725588634 -8 -41 0 10 3 -3 -4 0
1532259725647477 -5 4 -8 -4 -4 -2 1 -12
1532259725730255 0 -1 7 5 3 -1 -5 -1
1532259725753194 -29 10 10 -5 -3 -2 7 -8
1532259725790095 3 0 -14 -2 -2 -1 3 -2
1532259725804058 15 -13 -12 -4 1 2 -12 2
1532259725813034 -33 -2 -3 5 -6 5 -1 26
1532259725878858 1 -43 11 3 1 2 7 -4
1532259725993552 19 -12 2 -1 0 -2 -5 -32
1532259726149135 30 29 -11 -12 -1 3 3 -2
1532259726419413 -27 -15 21 -3 2 19 -2 -9
1532259726473269 22 37 -2 36 10 -4 -1 8
1532259726495210 -19 35 4 32 10 -6 -3 4
1532259726524133 -31 -5 -38 -8 -8 13 0 -13
1532259726572005 7 29 21 7 2 -25 -2 6
1532259726592948 10 29 30 -16 -2 4 0 -2
1532259726736565 -11 3 -6 -2 -3 -15 -6 1
1532259726789423 6 33 12 -3 2 7 -4 4
1532259726862228 -9 3 9 22 7 2 2 1
1532259726900127 13 -13 -7 6 -1 0 -4 3
1532259726959967 3 6 17 2 3 4 -1 12
1532259727012826 -16 -24 27 30 3 39 8 9
1532259727051721 -10 2 -5 9 1 -8 1 -2
1532259727072666 -9 30 -4 -7 -3 17 -1 1
1532259727185365 -5 16 4 1 2 7 -1 1
1532259727193343 11 28 9 4 1 -16 -2 4
1532259727253183 -22 7 -2 1 0 -3 -3 -8
1532259727313023 2 -2 18 14 1 3 2 5
1532259727394804 -7 -6 -7 -9 -2 0 -2 -3
1532259727417742 6 -1 1 -2 -4 -3 -5 -2
1532259727477583 2 26 4 6 2 84 4 -43
1532259727583300 -7 -62 -7 2 -1 -12 -23 0
1532259727642143 -15 -93 -4 -2 3 -2 4 -18
1532259727741878 -6 -66 -20 -4 3 3 43 8
1532259727800719 -1 -27 2 4 -1 -6 -9 8
1532259727852580 11 11 6 2 1 7 -1 -8
1532259727898458 -11 -1 12 1 -1 -3 4 -6
1532259728025118 -2 4 -22 -13 -4 19 53 -20
1532259728288415 -2 -77 2 -1 -5 -6 -30 -23
1532259728415076 -6 41 7 6 7 6 -2 -13
1532259728535753 -12 -26 -10 -6 -8 -5 2 -14
1532259728648452 -11 10 9 3 4 -11 2 -12
1532259728739209 -3 3 -9 -2 1 44 2 4
1532259728866874 -4 -23 -104 -9 -1 4 5 -11
1532259728970611 26 3 71 10 3 -5 -90 20
1532259729044392 11 44 12 -2 -2 0 1 1
1532259729136148 10 -7 35 0 -2 -5 -17 -19
1532259729158089 1 -11 -3 -1 2 9 8 -21
1532259729217929 50 12 0 -6 -1 -16 -3 19
1532259729292729 3 -5 -8 -4 -1 1 -16 -5
1532259729359550 21 20 2 24 6 -1 0 -7
1532259729398446 12 24 6 9 0 2 18 54
1532259729480228 2 -9 -20 -4 -2 -1 4 21
1532259729600905 -1 -22 -10 -4 -1 4 11 21
1532259729827299 -1 -15 37 -26 -5 -1 0 -16
1532259729959945 8 7 -47 5 -1 3 -1 -3
1532259730080622 -11 38 -12 -1 0 0 -3 -39
1532259730312004 -26 36 4 0 0 1 5 -13
1532259730380820 2 -20 -7 -11 -3 0 -2 -9
1532259730522441 0 4 -9 -8 -3 -2 2 2
1532259730599235 3 -5 -6 -5 0 -1 -1 1
1532259730776761 2 3 -3 -7 -2 1 2 1
1532259730830617 0 63 7 -10 0 -2 0 1
1532259730905416 -1 26 -6 -6 -2 -2 0 -1
1532259730950297 0 -30 -1 5 2 0 0 0
1532259731003155 7 64 0 -6 -2 0 -1 -2
1532259731196638 -6 -10 26 17 0 6 -3 -10

1532259731303353 -1 11 29 -1 0 2 -2 -12
1532259731342248 -13 -58 11 5 2 4 2 6
1532259731385140 -2 -11 -16 0 -1 1 6 4
1532259731439994 3 -12 -1 -3 0 0 1 -1
1532259731505812 -1 -1 -6 1 4 1 0 1
1532259731566649 -2 4 -7 -2 -1 0 1 -2
1532259731663390 -4 -8 -4 1 2 0 -1 0
1532259731693309 2 23 0 0 -2 -3 -1 -1
1532259731783070 -3 -11 -5 0 -1 1 0 1
1532259731833934 1 14 1 -2 -1 -1 0 0
1532259731878814 -2 -9 1 1 -1 2 1 -1
1532259731925688 1 0 0 1 2 0 0 1
1532259731978546 -2 -11 -3 1 1 -2 -1 -1
1532259731999491 -1 0 6 -1 -2 0 -3 -3
1532259732053347 -6 6 13 2 1 -1 0 -1
1532259732068307 -1 40 9 -1 -2 -1 -1 -3
1532259732113187 -1 15 15 -2 -2 -1 0 3
1532259732239848 -1 9 12 1 -4 5 2 -2
1532259732270766 3 4 -77 -13 -2 2 0 0
1532259732390446 -3 0 1 17 10 3 2 -1
1532259732413384 5 5 6 -5 -2 -2 -1 2
1532259732466243 -7 -2 3 -17 -1 0 1 -1
1532259732488194 11 5 0 11 0 -2 1 3
1532259732561987 -2 -1 -7 -9 -3 0 -1 -3
1532259732644765 -9 -7 -4 -9 -1 0 -3 -3
1532259732675683 -1 -8 -3 -5 -3 -2 -2 -1
1532259732816309 -3 -2 -1 2 -3 -2 0 5
1532259733283058 7 -2 -2 -2 -3 -2 1 -2
1532259733327939 11 53 -3 12 7 2 3 12
1532259733411715 -18 -29 -19 -7 -4 -3 -5 -3
1532259733447618 -25 30 -21 -1 -9 -5 -8 -9
1532259733499479 -29 -41 23 15 6 2 -3 -1
1532259733553336 8 -20 -7 8 3 3 -1 7
1532259733584253 -14 10 6 -9 3 1 3 8
1532259733652071 6 -15 -12 4 -1 -1 1 0
1532259733710914 7 34 4 0 0 0 -8 -2
1532259733838572 11 27 -1 -12 -11 -1 0 5
1532259733890434 6 -67 -6 -18 -8 -3 1 8
1532259733913373 -25 -44 -20 -3 2 -2 -7 -5
1532259733964237 -10 4 -4 6 6 3 -1 -5
1532259734048013 6 -6 4 -5 0 -2 -3 -4
1532259734131789 -15 -1 -9 -3 -4 -3 -9 -21
1532259734197617 14 16 10 7 5 -1 10 32
1532259734272413 -1 -1 0 -1 2 2 0 2
1532259734355192 -12 -13 2 -2 -3 -3 0 -8
1532259734451933 11 7 0 -4 -3 2 -8 16
1532259734482850 -3 2 -4 3 3 0 5 0
1532259734490829 -2 -38 -6 -3 2 -7 -12 18
1532259734542690 -1 116 17 9 0 5 50 6
1532259734572610 1 -19 -10 -7 -8 6 1 3
1532259734619485 -6 -55 2 -3 2 0 -3 -26
1532259734655389 -11 70 -10 -2 -2 -11 -10 -5
1532259734737202 -15 -80 -8 -2 -4 2 3 -21
1532259734777064 4 72 13 -3 -5 -18 -19 -6
1532259734811972 -3 -87 -14 1 1 -5 1 -1
1532259734872807 -9 -70 22 9 6 5 7 24
1532259734886770 -11 84 14 -6 -3 6 48 -4
1532259735047341 -20 1 -38 -19 -10 4 32 -29
1532259735068285 19 1 13 6 0 -6 -18 1
1532259735092221 22 52 8 5 3 0 23 20
1532259735152061 3 -14 -2 4 4 22 39 13
1532259735174002 6 32 1 1 1 2 -17 -8
1532259735240823 -18 -19 -9 0 -1 -1 -5 9
1532259735301661 -16 -11 5 1 -3 -3 39 3
1532259735428322 -17 -34 7 0 -1 -2 4 40
1532259735502124 3 57 0 6 5 3 25 -8
1532259735569943 -5 -38 -3 1 0 -5 -36 0
1532259735592895 -4 3 9 0 -1 -3 -8 2
1532259735660701 3 -30 -25 -1 2 -1 -5 -4
1532259735675661 0 -23 50 2 -4 -2 -10 11
1532259735736498 9 -23 31 0 0 -35 -4 6
1532259735742482 -15 16 -7 0 0 3 11 -5
1532259735922002 26 -10 23 -8 -2 10 12 -32
1532259735975858 19 -30 -42 -7 0 9 17 14
1532259735997799 1 12 1 -5 -2 -8 -29 14
1532259736049661 2 -6 -39 -7 -3 -3 -2 6
1532259736208237 23 -12 -5 -3 -2 1 -19 -42
1532259736238157 0 -3 3 3 2 -1 0 -13
1532259736300006 -26 -17 0 -3 -4 -8 -24 -39
1532259736335895 -11 -6 0 -1 2 -1 -11 26
1532259736417677 36 7 -11 -1 -3 0 0 15
1532259736538354 11 25 -3 -3 -1 -2 -1 -3
1532259736560295 -27 10 20 -14 -5 -9 6 -38
1532259736695932 -17 43 5 2 3 -23 -14 58
1532259736731835 3 -49 -4 -1 -4 -7 -38 -57
1532259736791687 -2 -14 -42 28 9 -4 -8 -30
1532259736889415 36 11 -105 11 2 2 1 2
1532259736907367 -45 20 39 -9 -4 1 -3 -17
1532259737018070 39 -22 -21 -3 -2 -4 -3 28
1532259737137750 50 44 12 6 11 10 45 91
1532259737259425 -25 -32 -1 -3 -4 -14 -10 -13
1532259737519729 1 33 23 4 -1 -8 -1 -5
1532259737857825 -9 12 -7 -1 -1 -1 -2 -3
1532259737925643 2 -24 -8 -1 -1 0 -4 10
1532259737954571 -2 22 43 2 4 -1 8 40
1532259737977505 -4 15 40 10 16 59 67 31

1532259738083222 -4 -14 33 4 -4 -7 -18 -3
1532259738150044 -15 -37 -9 3 3 4 -3 -50
1532259738186945 1 13 -4 -19 -6 7 4 8
1532259738225841 -8 -14 5 0 0 -7 1 0
1532259738293659 -4 2 -8 5 1 -3 0 0
1532259738322582 -1 17 11 -3 -1 -3 -5 -11
1532259738383419 -5 -3 -1 -2 -1 -3 1 -4
1532259738396384 -11 -5 -7 3 2 -1 -6 -12
1532259738434284 -11 -7 -1 1 2 -1 -4 -9
1532259738496118 4 18 5 0 -2 -2 2 -1
1532259738504170 0 -5 -2 -2 0 -2 -2 3
1532259738526191 -4 4 2 -2 -1 0 0 -1
1532259738563092 -1 21 6 -3 -1 -1 -1 -1
1532259738607972 0 -5 -3 -4 -4 -2 2 1
1532259738630910 -3 -9 -4 1 2 -1 -1 -3
1532259738644873 -1 -10 -5 -1 -1 -1 0 2
1532259738696734 2 2 3 1 3 1 0 0
1532259738758569 1 -14 0 -1 -2 0 -1 -1
1532259738790484 0 5 1 -2 -1 -1 0 -2
1532259738809433 3 7 -3 -1 -2 -5 -2 -1
1532259738832371 -1 36 -1 1 1 -4 -1 -1
1532259738855311 12 12 1 -2 -2 0 0 -1
1532259738931108 -5 -25 0 0 1 3 1 1
1532259739035828 0 6 6 -1 -1 -3 -2 -1
1532259739041811 -2 1 0 -1 1 -1 -2 -3
1532259739094677 0 -5 0 1 0 -1 -2 -1
1532259739109630 -2 -9 -2 1 -1 -2 0 -2
1532259739133566 -1 -26 -6 0 -1 -1 -1 -2
1532259739177449 -1 -3 0 -1 -2 -3 -1 -1
1532259739202382 -2 -10 -2 0 -3 -2 -1 0
1532259739252248 1 -3 -1 -1 0 -1 -1 1
1532259739275188 -1 -2 -1 0 -1 2 0 0
1532259739312089 -3 -8 -3 -1 0 0 0 -1
1532259739336025 2 11 -1 1 0 0 -2 -1
1532259739380905 1 16 3 0 1 -2 1 0
1532259739440745 1 18 -1 -2 0 -1 -1 -1
1532259739477646 -7 -6 -13 -3 -3 -1 0 -3
1532259739521528 1 33 3 -1 -2 0 2 0
1532259739539481 -2 6 -1 -2 0 -1 0 1
1532259739574387 0 -7 1 2 0 -4 0 0
1532259739612287 -2 -8 3 -2 -3 -1 0 0
1532259739642206 -1 5 -3 1 2 0 0 -2
1532259739679107 0 19 4 0 1 -3 0 -1
1532259739703043 0 7 2 -1 -1 1 0 0
1532259739738948 5 -1 2 0 -4 -6 1 2
1532259739785822 -3 -1 4 3 5 6 2 -5
1532259739807763 1 16 4 2 1 15 -1 0
1532259739859625 -9 -39 -2 0 2 -34 -15 -8
1532259739935454 3 18 13 1 1 4 1 3
1532259739988352 3 14 24 1 0 6 2 -1
1532259740025253 2 -7 6 -3 -1 -4 -1 2
1532259740048192 -1 1 3 0 -2 1 1 -2
1532259740062163 0 -1 16 1 1 0 0 -1
1532259740108032 -2 3 -12 -11 -5 0 -1 0
1532259740136954 -4 -12 7 -19 -10 -5 -3 -1
1532259740146928 1 -31 -3 -18 -3 -1 -1 2
1532259740212752 -2 3 -11 -30 -9 -3 -2 -1
1532259740235690 -11 -24 -25 5 1 -1 -1 -3
1532259740265610 11 9 5 1 0 0 -1 3
1532259740295530 0 -2 3 14 15 5 0 -5
1532259740348388 -6 0 -7 -13 2 -1 0 -1
1532259740468070 12 -1 -3 3 -3 -2 -3 -1
1532259740684490 8 -14 20 3 1 -3 -13 27
1532259740744330 -19 26 20 2 2 2 1 -29
1532259740850047 -5 7 -8 -6 -1 1 3 12
1532259740909888 26 19 -10 -4 2 -1 0 1
1532259741001642 -42 42 -10 2 7 -3 -9 -46
1532259741060485 18 43 1 14 6 -1 2 -8
1532259741203104 30 24 30 34 4 1 0 3
1532259741269925 11 6 -11 -3 1 -2 1 0
1532259741329765 -18 8 -21 0 3 -1 4 5
1532259741345732 -7 38 18 -5 -5 -3 -2 -6
1532259741495322 -27 8 1 0 -4 0 1 30
1532259741555162 20 -9 0 -1 1 2 6 13
1532259741608023 11 33 6 3 -2 1 0 -2
1532259741629962 9 24 -13 6 1 -2 3 -7
1532259741689802 2 -11 -2 1 -4 -4 -3 2
1532259741749642 -13 50 15 2 0 1 -4 3
1532259741817461 6 -5 8 6 -1 -2 -2 5
1532259741902234 -2 13 -14 3 -2 0 -3 -5
1532259741939152 -3 -10 -8 -3 -4 1 8 7
1532259741989999 0 -30 -2 -3 -2 3 6 16
1532259742052831 -11 -25 -6 -4 -1 -1 1 -5
1532259742088735 -1 -14 -14 -21 -10 -4 -1 5
1532259742132618 3 43 -1 0 -3 -1 -2 4
1532259742207417 3 -3 1 6 13 2 -2 15
1532259742238336 0 -11 -4 -3 -5 -3 -1 -8
1532259742350037 -16 -13 -6 -5 -7 -3 -6 -6
1532259742449770 19 -44 -10 -2 -5 -6 -28 -5
1532259742492655 -8 14 3 2 4 11 43 -2
1532259742515594 -6 -2 -9 -4 -4 -11 -83 0
1532259742529556 -20 -5 5 -5 -2 7 34 1
1532259742613332 35 15 12 5 4 8 -3 13
1532259742649236 4 -8 0 0 0 8 44 -4
1532259742735007 -1 29 0 3 -4 -14 -62 5
1532259742882623 23 32 10 6 2 -2 8 -2
1532259742958410 32 49 19 8 5 10 4 0
1532259743055151 -2 22 6 3 3 10 10 -33
1532259743093050 -8 -41 -4 -7 -2 1 49 -17
1532259743154884 11 -13 5 -1 3 6 62 57
1532259743227690 0 11 5 -3 3 3 -1 -24
1532259743275565 3 -56 -11 -4 -3 -3 28 21
1532259743286532 30 14 22 10 6 7 -16 -21
1532259743348366 -10 -26 -5 -1 -1 -4 -53 10
1532259743415188 -1 -3 8 2 1 -1 7 8
1532259743476026 -5 17 1 0 -1 -1 4 -1
1532259743534868 -4 30 15 3 -1 -1 1 -2
1532259743602687 -4 -5 24 -2 1 0 1 -2
1532259743646569 11 4 60 7 1 -1 0 -6
1532259743820105 18 -2 10 -3 -2 -11 11 40
1532259743993641 15 -20 -3 -6 -5 -2 1 -2
1532259744051487 2 -4 56 1 3 0 -2 -3
1532259744158202 15 2 -4 -3 -4 -4 1 9
1532259744205076 -6 14 -20 3 -2 15 12 -2
1532259744343706 -31 -6 18 -20 -11 -4 -2 10
1532259744420500 -3 5 20 10 1 2 -1 -4
1532259744474364 -11 1 29 16 6 -1 0 -4
1532259744600020 -31 82 2 0 -4 -6 -1 55
1532259744681801 7 -19 4 3 4 -1 -3 6
1532259744878276 4 -6 -55 3 -4 0 -7 3
1532259745020895 -82 -46 7 5 1 -1 23 -1
1532259745033860 -27 5 30 9 5 -1 -9 -55
1532259745087721 -6 -30 -2 -9 -15 -14 -17 -37
1532259745140574 -7 -13 3 3 7 6 7 12
1532259745154538 -30 -44 -6 -5 -11 -7 -2 -8
1532259745199417 -11 -11 -5 -2 -5 -2 -5 -62
1532259745208393 -5 11 0 -3 -1 -2 -8 -4
1532259745238322 5 -8 0 0 0 -1 3 38
1532259745298153 6 -13 -9 -1 -4 -3 -2 26
1532259745343033 -2 6 15 12 4 1 -1 -5
1532259745365972 0 31 15 -11 -3 -1 0 1
1532259745477673 -3 -4 -2 4 3 0 0 -1
1532259745491635 5 4 -3 -5 2 1 1 0
1532259745537532 -4 2 -2 1 -2 0 -1 -3
1532259745559454 4 11 13 6 5 0 0 1
1532259745643230 1 68 11 -2 -3 0 -2 -1
1532259745666186 1 -48 -33 -6 -2 -2 -3 -1
1532259745710051 0 0 6 -15 -5 0 0 -2
1532259745740969 3 -33 -6 11 3 1 0 0
1532259745762910 -6 -2 19 9 2 -1 -3 -3
1532259745823747 -5 -5 6 13 3 1 -1 -2
1532259745845691 1 -4 -7 11 4 0 1 -1
1532259745896553 -2 42 11 -4 1 -2 -8 1

1532259746040169 0 -34 -28 -18 -5 -6 -3 -1
1532259746093033 0 30 63 8 -2 1 1 0
1532259746145886 4 28 -2 -5 -3 -2 -2 -4
1532259746190766 -6 -1 23 5 -1 -1 -1 0
1532259746242627 -3 -12 2 5 5 2 1 -3
1532259746256589 -1 -4 -3 0 -3 -7 -2 -3
1532259746280526 -8 -5 -2 -5 -1 0 -1 -1
1532259746316430 -2 -13 -2 4 4 3 -2 -1
1532259746340366 -3 -7 1 2 0 2 -1 -1
1532259746392228 4 9 -1 0 -1 -1 1 0
1532259746423146 0 -2 3 -4 0 -1 0 0
1532259746505923 2 0 -3 -2 -1 -3 0 1
1532259746520883 -1 -8 2 -2 0 -1 -2 -1
1532259746565763 -1 -4 -3 0 0 0 0 -2
1532259746602664 0 3 0 -2 -1 4 -1 -1
1532259746625603 0 1 3 -1 1 -1 -2 0
1532259746663502 -1 -8 -2 0 -2 -3 0 -2
1532259746709379 0 8 5 -1 -2 -3 -2 -1
1532259746715363 -1 -1 -6 -3 -1 -2 -1 -2
1532259746738302 -2 9 4 0 -3 0 0 0
1532259746759246 -2 3 -4 0 0 -4 -2 -1
1532259746782185 1 8 0 0 1 0 -1 -4
1532259746819086 2 12 17 -4 2 -1 -1 -1
1532259746842025 0 -19 -17 -1 -2 -1 -1 2
1532259746880921 1 3 3 0 0 -1 0 0
1532259746917822 -1 -18 1 -1 0 -4 0 0
1532259746954723 0 14 1 -1 1 -2 -1 1
1532259746977661 1 -12 -3 -2 -2 -1 1 0
1532259746992622 -2 -4 -3 -2 -2 -1 -2 -2
1532259747023539 -2 -5 -2 -1 -1 0 -1 0
1532259747081384 -1 -2 -4 -1 -2 1 -1 0
1532259747120281 -1 -2 5 -1 -1 -3 1 -1
1532259747174136 0 -3 -7 -3 -2 -1 0 -1
1532259747195080 9 -20 -5 -4 -4 2 0 0
1532259747249934 -16 20 2 1 2 23 0 -5
1532259747261902 4 -15 5 -2 -2 -10 -1 2
1532259747337706 3 4 5 -2 5 41 5 17
1532259747377593 -5 5 1 2 2 4 2 -2
1532259747450398 2 25 108 0 -1 9 0 2
1532259747547138 -2 -10 -1 11 5 3 -1 2
1532259747652856 -14 -9 -10 -10 2 -1 -1 -6
1532259747666818 4 -6 -27 -16 -13 -4 1 1
1532259747727656 5 0 12 -11 -6 -3 -2 1
1532259748049794 2 -1 7 -16 -9 -9 -13 -21
1532259748087694 -2 22 -10 -2 -4 -1 1 10
1532259748140552 4 20 -48 -10 -2 -3 -2 3
1532259748186429 21 -69 0 4 2 -1 -5 31
1532259748207374 8 22 0 1 -2 0 1 16
1532259748245272 29 9 3 1 0 0 0 4
1532259748329048 -7 -10 13 9 0 -1 -4 -2
1532259748410848 8 -20 -10 -7 0 2 1 -2
1532259748477651 0 -8 4 -2 -1 -1 -1 -3
1532259748538488 -9 12 -8 1 6 1 2 -4
1532259748598328 -8 16 4 9 -1 0 -1 -10
1532259748635229 9 24 1 -7 -2 1 0 -6
1532259748665149 -16 -29 -1 2 3 -2 -1 5
1532259748731970 -6 3 5 2 -3 6 3 -13
1532259748754910 -8 -30 -11 -7 -4 -1 -3 -6
1532259748836690 -13 -27 -2 -4 -6 -4 -1 -4
1532259748920497 -5 -15 -2 0 -2 0 -4 -11
1532259748950386 -6 -47 -4 -9 -2 -2 2 4
1532259748972330 0 -42 1 5 -3 -3 -2 -5
1532259749024189 0 -1 18 15 0 0 1 7
1532259749047127 0 8 4 -4 2 -1 -2 0
1532259749099987 0 -10 3 6 -3 -1 -2 -1
1532259749174787 5 5 -5 -2 -5 -2 2 18
1532259749190744 -2 46 -5 1 1 0 1 5
1532259749335368 10 20 1 -3 -3 -2 -2 -5
1532259749409160 9 -2 5 8 4 -1 0 4
1532259749453042 -3 -43 -6 -5 2 -2 -3 -2
1532259749512882 17 59 9 6 2 2 6 1
1532259749602642 5 49 2 -15 -4 -3 -1 4
1532259749663480 1 41 3 0 0 -3 -19 -2
1532259749738280 -2 10 -4 -3 -3 -2 -10 -12
1532259749797122 -11 51 1 -7 -7 -3 -2 -15
1532259749896855 -61 -18 -5 -3 -2 2 3 10
1532259749933757 -6 -30 -8 1 0 -6 6 -23
1532259749963677 24 17 3 2 1 35 -57 19
1532259750083357 -17 2 -2 0 5 18 54 0
1532259750098317 8 0 2 -3 -7 8 -1 0
1532259750136220 -10 -4 -13 -8 -7 2 -13 -14
1532259750174114 -9 81 -20 -5 -4 0 23 -2
1532259750233954 19 15 25 4 -2 -4 27 17
1532259750301773 -23 -24 -12 2 4 10 13 -16
1532259750374578 22 6 17 2 1 -2 36 -20
1532259750449379 -16 -43 -3 -1 -7 -11 -8 -43
1532259750564071 9 8 -4 0 0 3 -31 -19
1532259750637874 4 37 -11 1 0 -2 -8 2
1532259750714668 -5 44 69 5 -1 11 5 -1
1532259750796450 -3 -5 -16 1 -3 -2 -1 -5
1532259750803431 -28 6 -87 2 2 0 -3 -12
1532259750855293 16 23 40 5 4 7 14 30
1532259750915133 -36 -18 -28 -1 2 -27 -3 22
1532259751081699 -22 26 -98 -24 -9 0 -3 -1
1532259751118588 -11 0 -55 -9 -2 -4 -4 16
1532259751155490 1 -3 17 2 -1 -5 3 6
1532259751193389 -10 -9 -6 -1 0 12 6 14
1532259751259213 8 17 -5 -1 0 2 1 -24
1532259751313069 10 -2 0 0 -1 -1 0 -28
1532259751477628 -8 -31 -47 -10 0 -2 1 -2
1532259751560407 -9 22 -20 -4 1 2 6 7
1532259751611271 -28 7 -6 -3 -5 5 19 -69
1532259751672108 25 7 7 6 3 -5 -2 85
1532259751860605 -14 4 24 -15 2 -1 2 -12
1532259751898502 10 16 -108 -6 -1 1 -1 -1
1532259751920449 -21 40 8 4 2 0 1 -3
1532259752091986 33 78 0 -1 -3 -9 -6 30
1532259752114924 10 17 -4 -2 -4 4 -21 27
1532259752151831 -5 1 -1 3 6 -1 -5 21
1532259752234604 -26 -6 -1 -4 -3 -2 8 -1
1532259752280482 -9 11 -10 4 -1 -2 -4 -8
1532259752303420 -10 -8 -1 -11 -5 -5 -5 -17
1532259752348300 4 6 3 2 -6 -4 0 -3
1532259752371240 -5 3 -2 8 -4 -1 -2 0
1532259752430082 -2 -2 3 -2 5 1 1 2
1532259752453020 1 25 6 -3 -1 0 -1 -2
1532259752497900 1 -2 16 -5 -4 -2 -1 1
1532259752520844 -4 -5 8 8 3 0 1 -2
1532259752557740 -2 -28 -5 -7 -2 1 1 0
1532259752580679 -3 -2 -3 0 0 -2 -1 1
1532259752594641 -2 25 18 25 4 2 0 0
1532259752656476 4 38 13 0 1 -1 -1 -2
1532259752715319 1 31 -15 -3 -3 0 0 -1
1532259752745239 -6 -77 -6 1 -1 -2 -2 -2
1532259752820039 -5 11 15 19 6 -1 -1 -2
1532259752857937 3 30 8 -3 0 0 -2 1
1532259752910796 -1 0 2 1 -2 -2 1 0
1532259752926753 -1 64 21 0 0 1 2 0
1532259753000556 -15 29 4 0 0 -3 -44 -100
1532259753023495 6 -16 -11 1 -1 -31 12 -62
1532259753104279 -6 12 7 6 0 -15 -11 -17

1532259753157137 1 -26 -35 0 0 -1 6 2
1532259753216977 2 -12 16 -7 -3 -4 -4 -3
1532259753322694 -2 -10 -7 3 2 -2 -1 30
1532259753353612 -5 -10 4 1 -1 -2 -1 -2
1532259753390513 0 10 -2 2 0 -2 -2 -6
1532259753411457 0 -9 -9 1 0 -3 -1 4
1532259753443372 -1 -4 -9 -3 -2 -1 1 -3
1532259753465313 -2 -1 2 -3 -4 -3 -2 -1
1532259753517175 -6 -18 -5 -2 0 -2 -1 -6
1532259753563052 1 -15 -8 -3 -1 -2 -1 1
1532259753591975 2 -9 -1 0 -2 1 0 0
1532259753690711 2 14 1 0 0 -1 1 1
1532259753743569 1 40 -6 2 0 2 -3 -1
1532259753848319 -2 -4 -6 2 4 -3 -2 -6
1532259753893199 8 -30 -16 -1 -3 -5 0 -1
1532259753954053 -10 -28 6 -2 -1 -30 3 -24
1532259753967999 -4 21 -2 -1 1 6 -4 7
1532259753988943 -6 -27 67 -26 -6 1 -6 1
1532259754050778 -4 -26 -46 2 -2 1 -1 5
1532259754095658 -2 12 24 4 -1 1 -2 2
1532259754117599 0 -9 -103 -4 1 0 0 -2
1532259754133556 2 3 4 3 2 -1 0 1
1532259754163477 0 7 7 16 4 1 1 1
1532259754222319 4 42 6 0 -5 -2 -3 -1
1532259754259221 -2 -7 3 10 -3 -3 0 2
1532259754290137 1 -8 2 12 2 2 -1 -3
1532259754320058 -1 1 -1 16 5 2 1 -2
1532259754364938 -9 5 4 0 -10 -5 -2 -2
1532259754393861 -4 -5 3 11 10 2 0 -2
1532259754455695 -2 0 -13 4 3 -2 -1 0
1532259754461680 -5 7 -13 -8 -3 -5 -2 -4
1532259754553437 -8 -7 -9 -7 -4 0 -2 -1
1532259754807754 -2 -84 -4 2 -8 -2 -2 12
1532259754822714 1 40 4 0 -2 -1 7 16
1532259754927434 -15 -6 -3 1 0 -4 -7 -4
1532259754966330 -6 -16 6 4 1 0 0 -4
1532259755055092 0 -16 -6 3 0 -3 1 -1
1532259755062074 0 -31 -4 0 2 3 -2 -3
1532259755144852 13 -68 9 3 0 -2 -1 -3
1532259755182751 23 -76 -1 -13 3 5 10 26
1532259755296447 -12 8 2 -10 -3 -2 2 30
1532259755333348 -2 47 9 12 7 1 -2 -7
1532259755392191 4 22 -3 0 -2 1 1 7
1532259755432084 -14 -40 -7 -2 -2 -3 -1 -12
1532259755514863 -4 4 8 0 2 -1 -1 -12
1532259755566724 -9 -20 4 6 2 2 1 0
1532259755702362 -2 -7 -2 -10 -3 -1 -2 -1
1532259755769185 1 28 -2 0 -2 0 3 -10
1532259756130217 -6 29 -4 -4 -4 -3 -8 -7
1532259756172106 5 -9 12 18 9 0 2 7
1532259756389524 -14 52 16 0 -3 -5 -13 -59
1532259756428420 -26 -63 -9 2 3 4 -4 13
1532259756511199 -3 68 12 0 0 0 -49 12
1532259756658804 1 -35 -6 -1 -4 -5 -25 -7
1532259756801422 15 -46 7 7 3 -2 -20 7
1532259756894174 41 52 35 8 6 8 14 51
1532259757073694 21 37 14 8 5 4 43 4
1532259757171439 5 8 6 -1 -3 -3 2 15
1532259757209334 1 -15 7 0 -1 -1 -16 -4
1532259757240249 -1 -11 -6 6 -1 0 4 -6
1532259757373896 1 -27 61 4 3 -1 10 3
1532259757440713 54 -21 -25 -8 -9 -17 -4 -40
1532259757516510 -26 -30 -20 -4 0 -1 0 -14
1532259757538452 38 -14 6 11 0 -1 18 26
1532259757627214 25 15 37 8 4 2 -2 -11
1532259757650152 -13 8 9 9 0 -2 4 -33
1532259757794766 23 -1 -13 1 4 -7 2 10
1532259757869566 -9 2 -3 1 3 -2 4 8
1532259757913449 14 -15 -1 2 2 -3 -10 93
1532259757995230 28 -9 -20 -1 -3 0 2 26
1532259758033129 -8 -3 0 2 -4 -2 4 8
1532259758092969 -3 36 33 3 5 1 -11 1
1532259758128873 -9 -14 -4 9 -1 -1 -4 1
1532259758152808 20 -9 -7 -5 2 3 1 -5
1532259758189709 3 5 2 -4 -6 -3 0 6
1532259758408125 -7 27 -1 -2 -1 -2 -33 -14
1532259758475945 -40 -34 8 -8 -6 -2 -2 22
1532259758610585 -21 -8 -94 -13 -6 2 1 1
1532259758678403 -36 25 -6 -2 -2 -3 -5 -8
1532259758692366 -17 73 31 4 -1 4 5 -3
1532259758761182 4 -68 16 -1 -1 -4 -8 -30
1532259758798083 10 -29 3 1 1 -9 -11 47
1532259758835982 2 -1 4 0 3 6 -6 33
1532259758970628 -30 50 30 -18 3 3 5 -18
1532259758991566 9 19 2 -3 -3 4 4 -1
1532259759098280 11 93 33 -20 15 6 5 3
1532259759217960 -4 43 13 0 4 1 3 1
1532259759405459 1 -18 -22 -4 -2 -1 -1 -1
1532259759443357 -4 12 -5 13 1 -1 -1 -1
1532259759458318 -19 -40 4 -2 0 0 -3 -2
1532259759510179 9 1 -2 -7 3 1 -1 0
1532259759585976 21 55 5 -1 -19 105 -16 3
1532259759614899 -21 -51 -25 -1 7 0 8 -6
1532259759645816 19 94 4 72 27 1 6 30
