1532264597441609 -18 -6 4 -17 1 2 -3 -2
1532264597453567 7 5 10 38 20 6 4 1
1532264597468526 -4 -7 -2 -9 -9 -4 -2 -3
1532264597519390 2 -3 -2 -12 0 2 1 1
1532264597549311 2 25 17 2 -6 -2 -1 2
1532264597602169 -2 8 -59 -13 -8 3 1 1
1532264597638072 -1 -8 -6 -3 -14 -1 -4 -3
1532264597698911 1 12 30 0 -3 1 -1 -2
1532264597721854 15 17 55 4 -7 -12 1 13
1532264597742794 -5 1 77 -2 0 3 1 4
1532264597781689 1 1 15 1 4 0 0 0
1532264597795652 -1 5 20 0 -3 -4 -3 -6
1532264597832553 0 9 9 1 2 -1 2 1
1532264597864468 0 3 -6 -2 -2 -2 -1 -4
1532264597915332 8 37 -1 0 -11 0 1 3
1532264597932286 -4 -11 -9 -3 3 2 0 -4
1532264597984148 -1 -28 -25 -1 0 -2 3 1
1532264598035012 1 -1 20 -15 -12 -3 -3 -1
1532264598057951 1 13 31 8 -8 -7 -2 0
1532264598087870 0 -6 -1 2 4 1 -3 -1
1532264598121780 -11 -5 2 -28 -12 -1 -1 -2
1532264598141726 -1 1 0 -31 -10 -9 -3 -4
1532264598171646 -1 -4 0 12 -17 -5 -1 0
1532264598209545 -2 -3 -8 10 -9 -3 0 0
1532264598224506 -3 -5 -4 -56 -14 13 -4 -7
1532264598269385 -5 -18 -56 -13 -14 0 3 -1
1532264598307284 -3 1 31 19 3 -9 -4 -2
1532264598344184 3 -1 12 -20 1 6 -1 -5
1532264598367123 -5 -10 -31 -9 -7 -5 -2 0
1532264598395049 3 17 -62 4 -3 -10 0 2
1532264598457896 8 7 3 -16 -8 0 3 11
1532264598471843 -5 -3 26 0 -8 6 -2 -8
1532264598508744 -10 29 84 -11 -4 3 -3 -9
1532264598546644 14 6 45 14 0 17 -1 3
1532264598606483 -4 -31 -69 -11 -8 -16 -1 -3
1532264598660350 -6 20 -35 -3 -7 -1 -6 -7
1532264598695246 -14 -31 34 -5 -1 6 0 -1
1532264598763065 -7 0 24 14 -3 -11 0 2
1532264598862799 -14 -117 -5 3 4 1 1 -10
1532264598883743 3 16 29 4 0 9 -3 -3
1532264598922649 4 2 -26 -3 0 -6 0 4
1532264598929619 -3 -7 0 2 0 -1 -1 -2
1532264598953555 0 -5 -7 0 -1 0 1 -6
1532264598975497 0 -21 -30 -9 -5 -3 -3 3
1532264599004419 -1 -15 -14 -12 -2 29 3 2
1532264599026361 -3 17 24 1 -2 -11 1 7
1532264599049299 28 32 -11 -1 1 3 0 25
1532264599087203 -3 -14 23 3 1 65 7 7
1532264599124100 -5 14 19 2 -1 -20 -7 -16
1532264599178954 29 49 -13 -1 2 -10 0 9
1532264599199897 0 8 14 1 0 -7 -3 -1
1532264599219843 3 -62 33 -8 -5 30 4 9
1532264599229817 0 1 17 -25 -6 -20 -3 -4
1532264599253753 -10 14 23 13 -1 -21 -14 -10
1532264599280680 -21 -5 19 12 3 -3 -1 -4
1532264599289657 -10 -68 -31 -1 2 -10 2 6
1532264599310601 -3 -33 -68 6 1 5 0 -2
1532264599342515 -18 54 7 -2 -4 -3 -1 12
1532264599355481 -22 14 14 16 1 27 7 -9
1532264599394377 6 -4 -77 13 5 3 2 -6
1532264599426291 -3 15 -31 1 4 44 18 3
1532264599453219 0 -40 -27 2 -5 14 -2 11
1532264599493113 7 -2 29 4 1 -9 -1 9
1532264599507075 1 29 5 4 -4 9 -2 -7
1532264599544974 -5 -70 -29 -17 -9 8 -1 3
1532264599566915 8 25 -33 -32 -1 55 17 5
1532264599588857 11 -9 30 3 4 -13 -6 1
1532264599602819 5 5 47 72 38 1 4 3
1532264599619773 6 -25 -41 6 5 -15 3 8
1532264599648696 2 -39 -4 2 -5 -6 -1 -2
1532264599662658 -1 14 2 2 -7 -4 -1 -6
1532264599677619 -8 19 5 4 1 1 2 -14
1532264599695582 -9 -6 -10 9 1 4 1 5
1532264599731476 7 9 23 1 -2 -4 -4 7
1532264599747432 -15 -2 0 8 4 2 9 -18
1532264599769374 -5 -6 -5 -3 -5 -5 -8 -3
1532264599783336 -2 16 6 24 4 2 0 -2
1532264599798297 0 -16 2 20 12 3 -1 -2
1532264599843176 -4 -11 7 -7 -3 0 -2 -4
1532264599895038 3 -12 -9 11 -5 -2 1 0
1532264599912991 2 -15 -11 -11 -2 2 0 0
1532264599948893 4 6 -5 21 8 2 2 5
1532264599971832 2 9 -4 -2 -4 -1 -1 0
1532264600008734 -11 -23 -3 -6 1 3 1 0
1532264600022696 3 8 2 16 5 1 1 0
1532264600046632 2 17 -1 1 -1 -1 -2 -2
1532264600069570 1 24 1 0 -3 -2 0 8
1532264600091516 -1 -16 -7 -8 1 2 4 1
1532264600112457 1 10 -1 -2 -5 -2 -2 -1
1532264600138386 1 -26 -19 2 1 1 0 7
1532264600173294 11 12 0 10 -1 2 3 2
1532264600191246 -11 -16 -3 8 0 4 -1 -7
1532264600234131 0 -19 -8 -1 1 -1 0 -1
1532264600249091 -8 17 31 4 -2 1 -4 -24
1532264600285992 -7 11 5 -14 -5 3 4 -15
1532264600353811 9 18 43 -2 -2 31 -18 -19
1532264600511390 1 1 4 0 -4 -1 -2 -2
1532264600525353 -2 -3 -5 -8 -3 -1 -3 -18
1532264600608131 -2 -7 4 1 1 0 -2 -2
1532264600631070 10 34 7 0 -2 1 -1 -5
1532264600645032 0 15 8 1 4 3 0 13
1532264600690918 6 -26 -10 -5 -1 0 4 1
1532264600728808 17 58 11 11 5 -19 -11 1
1532264600856478 -15 3 -1 -16 -3 -1 -2 1
1532264600885396 -13 -21 -26 -14 -5 -6 -4 -2
1532264600931273 14 1 4 7 7 2 -4 3
1532264600953214 13 25 37 -16 -2 0 -5 0
1532264600991124 -9 -7 -5 17 6 2 0 8
1532264601007082 9 -3 5 1 -5 -6 -1 4
1532264601110803 -4 -3 1 -16 -4 0 0 2
1532264601170644 2 13 9 -7 -3 -6 0 1
1532264601185604 1 7 8 5 1 -1 -1 1
1532264601231481 2 48 23 -1 3 6 24 6
1532264601268382 -3 -36 1 -19 -5 -2 -4 -3
1532264601291322 -2 -21 -16 -8 -5 1 -1 1
1532264601336201 -11 -55 -35 -4 0 -7 -7 -5
1532264601397039 0 -31 -40 15 4 1 0 -1
1532264601411001 4 9 7 -14 2 6 0 4
1532264601448900 -7 7 -2 -14 -2 10 6 -2
1532264601472836 6 13 22 15 4 -5 -2 -1
1532264601510735 11 7 -56 -2 -10 -1 6 4
1532264601539657 1 -15 -37 9 0 -17 -6 -2
1532264601568580 -13 -4 -13 -20 -6 0 -3 -2
1532264601590536 -1 8 -1 -7 -2 7 0 0
1532264601613460 7 35 18 -8 0 -36 2 3
1532264601628420 0 -19 -79 5 1 2 7 2
1532264601675300 4 -11 -24 16 3 15 1 -2
1532264601704234 -9 0 -18 5 3 7 -1 -3
1532264601734154 -5 6 -67 -11 -6 4 7 1
1532264601749118 -40 18 51 14 5 1 -13 -1
1532264601787013 -2 5 6 -2 0 13 24 16
1532264601801972 14 -14 -6 57 15 17 7 -5
1532264601861813 -2 15 31 -3 0 -14 -1 -11
1532264601906693 9 -15 -11 -11 -2 19 13 -7
1532264601951572 7 -1 -34 -28 -5 -13 23 -1
1532264601981493 1 -4 -12 13 3 13 -7 0
1532264601998447 -6 -18 -8 24 8 -1 -8 2
1532264602011413 -10 4 -13 -14 -10 -22 -27 -12
1532264602050309 27 -25 -25 -2 1 -3 -13 1
1532264602056292 -11 -32 -19 -2 -1 17 19 -3
1532264602108155 0 4 -12 -3 4 24 32 3
1532264602131093 24 -17 8 7 3 0 -6 6
1532264602167994 -14 4 11 -4 -3 14 -7 -6
1532264602190933 23 8 40 5 -1 -23 -35 -4
1532264602243792 0 22 1 -17 -7 -2 -1 6
1532264602283694 2 -13 -12 -2 -3 -15 -38 -4
1532264602296649 -28 15 -8 1 0 2 -1 -2
1532264602333552 -10 -14 -39 -9 0 4 -3 -38
1532264602371450 6 -14 -8 -9 -5 11 26 31
1532264602395385 -8 -14 -13 -10 -8 -5 -4 -13
1532264602416329 -16 -8 11 -9 0 21 12 12
1532264602431290 -4 5 17 13 20 -20 3 58
1532264602454228 -4 3 -75 -15 -17 -15 14 -14
1532264602477167 3 -11 2 3 -2 11 -10 6
1532264602499110 -7 0 1 1 0 34 22 -1
1532264602537007 -6 -7 -10 -12 -22 0 -74 3
1532264602549973 0 -5 19 -3 -9 -55 -9 -37
1532264602610810 -13 -19 -18 -11 -6 1 16 -8
1532264602633749 -14 31 19 23 12 0 27 -34
1532264602694586 17 17 17 12 6 22 67 63
1532264602730490 37 63 17 -1 1 2 -18 3
1532264602778362 -14 -9 -2 23 8 -42 -66 -37
1532264602790330 -6 -13 11 -6 -4 -2 -32 -39
1532264602814265 -3 4 -8 -2 -1 19 -1 -34
1532264602850169 -8 -24 -7 -5 5 7 2 -10
1532264602910010 -13 -9 0 -1 -6 -3 -21 -7
1532264602939929 -4 -2 21 3 2 -2 4 1
1532264602970851 -12 -11 -17 -5 -3 4 20 15
1532264603001764 15 -20 9 3 2 -10 -19 -12
1532264603039663 22 7 19 23 19 10 10 1
1532264603060607 12 -12 -28 -6 -6 -4 -8 46
1532264603078559 -11 -25 -8 -5 -6 -17 0 -35
1532264603136439 -10 0 10 3 -2 -8 -36 -8
1532264603174316 -10 -12 3 2 -1 9 13 -33
1532264603204224 2 -13 -56 -3 -1 -4 0 -10
1532264603219182 7 0 11 8 6 1 21 13
1532264603264063 3 14 18 1 -2 1 2 28
1532264603293983 -23 -10 26 -1 -4 -7 -14 -12
1532264603338863 8 5 0 6 5 1 1 -1
1532264603398704 -4 13 -7 -1 1 -1 -5 -2
1532264603435604 5 1 0 0 -3 -8 0 3
1532264603459540 -1 1 -3 -4 -4 -4 -2 -7
1532264603481482 4 -11 3 1 13 5 1 1
1532264603500431 -2 -2 2 1 -2 0 10 0
1532264603532346 2 2 2 0 6 2 3 -3
1532264603556282 -2 6 -1 -2 -7 0 -6 -3
1532264603593183 1 -4 -2 -3 -2 1 10 2
1532264603639060 4 -5 3 -1 2 4 1 -2
1532264603668980 -2 22 2 2 3 3 -1 -2
1532264603712879 4 -3 3 2 15 10 2 1
1532264603736799 -1 -8 -3 -2 9 1 0 2
1532264603781680 10 21 -1 3 2 2 0 1
1532264603819577 1 5 3 -3 6 3 1 0
1532264603832543 5 42 15 -3 -6 -2 -1 2
1532264603856485 -1 4 21 -10 -4 -4 -4 0
1532264603870449 2 9 16 -3 -4 -2 2 1
1532264603892389 -8 -59 -47 -5 -2 -2 -5 -5
1532264603909358 3 -7 -23 -8 -5 4 -2 -6
1532264603939270 -4 44 79 7 0 -3 -1 -1
1532264603953233 -3 14 76 3 -3 -1 0 -4
1532264603983153 2 -25 -31 -4 -4 -5 -3 -3
1532264604013073 0 7 -18 1 0 2 0 -2
1532264604059948 -2 -26 -28 1 -5 -3 1 -1
1532264604066929 3 3 21 0 2 -3 -1 0
1532264604095853 1 20 4 10 3 0 -2 0
1532264604158684 1 3 23 -5 0 1 0 -1
1532264604164668 -1 -9 -11 -18 -5 0 -1 1
1532264604211543 -17 -8 -47 -3 -3 -4 -3 -10
1532264604239468 34 59 21 4 0 -91 -53 -48
1532264604261409 -22 6 -22 -1 -5 -21 3 -18

1532264604331223 -10 -29 79 75 22 22 6 16
1532264604337206 6 -26 -90 -35 -24 1 -10 28
1532264604381089 4 5 -28 6 3 10 1 4
1532264604428978 -5 29 -11 9 1 2 1 -3
1532264604448908 5 19 90 -9 -2 2 -1 -24
1532264604501767 10 16 38 -4 5 15 7 -1
1532264604523724 15 31 2 -45 -10 0 -1 18
1532264604591526 5 8 -84 -20 9 -1 0 7
1532264604635409 0 3 6 5 -5 0 0 2
1532264604646382 2 0 45 0 -13 -9 0 7
1532264604681287 3 -10 -34 -4 -7 -5 0 1
1532264604764065 -3 -2 2 15 -1 -2 -2 -1
1532264604814929 2 2 -10 4 -4 -2 -2 1
1532264604831884 1 1 -6 12 9 -1 -1 1
1532264604875766 1 -4 -2 18 3 -3 -1 -2
1532264604966524 6 19 2 -1 -2 -1 4 2
1532264605033344 -2 -46 -71 -2 5 0 1 -6
1532264605124103 -3 -23 19 3 -5 -4 -5 -5
1532264605183942 -2 -3 4 -7 -2 -5 -2 -2
1532264605243782 1 45 -3 3 -3 -2 -4 -1
1532264605281681 -3 3 26 -15 7 2 1 0
1532264605341521 1 -12 14 -18 5 5 1 -2
1532264605386401 -4 -12 -19 -13 -12 -9 1 1
1532264605402358 1 1 19 23 5 2 1 0
1532264605469180 -4 -14 -41 8 5 1 -1 2
1532264605498102 0 -6 30 12 -4 -2 -1 -2
1532264605522038 -3 -5 9 1 -9 0 -1 -2
1532264605543980 -4 2 36 -9 -1 -1 -3 -3
1532264605596846 -11 -8 -2 11 -7 -10 -5 -4
1532264605633739 -2 -4 -5 5 7 6 0 0
1532264605648715 -8 -15 -49 -10 -4 2 0 1
1532264605671638 -8 2 -5 1 -2 5 -1 -4
1532264605686606 8 9 -26 -14 3 -1 5 12
1532264605724499 4 5 83 8 -1 -1 1 4
1532264605763393 5 5 -40 6 -3 -2 0 2
1532264605776358 5 14 20 -15 -3 -1 2 0
1532264605817249 -9 -6 16 -6 -7 -4 -2 -3
1532264605843180 -2 3 14 1 2 0 3 10
1532264605875095 -2 -33 40 3 6 29 3 -4
1532264605911995 -8 -6 59 -10 -5 -6 -4 -7
1532264605917980 -4 5 10 6 7 -7 -5 2
1532264605948896 12 32 40 8 -5 -1 -2 -10
1532264605979814 -16 -46 -59 -7 -5 1 1 7
1532264606000758 2 7 -124 0 11 5 4 3
1532264606045637 3 23 36 24 11 -1 0 4
1532264606054614 -14 -8 -25 -3 1 -4 1 -3
1532264606091521 -7 7 18 -8 -8 -2 6 -17
1532264606151355 4 21 12 -13 -3 -5 -5 0
1532264606204214 4 -15 13 -5 -8 -4 -2 2
1532264606227153 0 -8 47 -10 -1 2 1 3
1532264606264070 -6 -10 80 17 7 2 0 -3
1532264606293974 10 -19 -21 2 1 0 0 -1
1532264606314918 -3 -5 0 -1 6 2 3 -1
1532264606406673 5 33 6 6 5 0 -1 -5
1532264606466513 9 34 19 6 7 3 -2 -10
1532264606480475 -4 -9 1 -3 3 1 -3 -8
1532264606504411 -8 -53 -17 -1 -1 1 2 19
1532264606526353 18 -21 -59 -19 -8 -4 -1 26
1532264606540315 6 -37 52 11 1 -1 4 21
1532264606557277 9 -2 -14 -1 8 1 1 6
1532264606594171 9 77 -10 1 3 -2 -2 -18
1532264606600155 -2 10 -18 -1 -5 -2 -3 4
1532264606632070 -2 9 -43 3 4 1 8 31
1532264606647030 3 14 -28 -2 -2 7 1 2
1532264606668971 14 -35 -5 -2 -8 -4 -4 2
1532264606685926 1 -2 2 0 4 15 3 -10
1532264606735792 -12 25 16 -6 -9 -11 -3 1
1532264606765712 -36 18 7 44 28 34 8 -6
1532264606818571 11 1 1 5 -7 -6 -17 -3
1532264606826550 14 -3 -19 -9 -9 12 1 2
1532264606848491 -6 -2 -15 -4 2 -2 -3 4
1532264606871430 4 -25 10 -3 0 -5 0 2
1532264606908336 -8 16 11 1 -4 12 -1 -9
1532264606948224 -4 3 8 5 -2 6 0 -4
1532264606961190 -5 -11 -53 -1 1 -7 -3 -13
1532264606991112 16 3 19 6 2 -10 -4 16
1532264607036987 2 3 10 5 1 -2 -3 -3
1532264607043968 -9 -43 -48 -4 4 -15 -16 -32
1532264607065910 5 -15 12 4 3 -2 3 9
1532264607088848 -14 30 38 18 11 -3 9 8
1532264607125749 6 -12 -35 -12 -5 -3 1 8
1532264607148689 5 11 7 3 1 -2 -2 -3
1532264607208528 -1 6 36 -3 -3 -10 0 2
1532264607223489 -1 26 30 0 -10 -5 -1 -4
1532264607246427 -1 -1 1 -7 -4 -1 -2 0
1532264607276347 1 -27 -46 2 2 7 8 13
1532264607283328 -6 6 1 4 -1 -3 -3 -13
1532264607328208 5 24 27 7 4 -7 -7 -3
1532264607343168 -3 -48 -15 3 -7 2 -1 5
1532264607366107 4 16 11 -3 8 10 -1 -2
1532264607425947 -10 -10 11 -34 -11 -2 -2 -3
1532264607448886 1 3 -4 4 -14 -4 0 2
1532264607463859 -1 23 8 23 -3 -1 -3 -1
1532264607485787 0 13 10 16 8 0 0 3
1532264607508726 7 7 7 17 12 3 2 5
1532264607545626 -1 -1 9 4 -9 1 1 -1
1532264607568566 -1 0 -8 -41 -21 -10 -3 -3
1532264607591504 -2 -12 -2 8 6 -2 -1 0
1532264607606465 -1 -4 13 -5 1 -1 0 -1
1532264607628405 -2 -10 -6 4 1 2 1 -1
1532264607651344 0 8 -12 -11 -4 0 0 5
1532264607690241 -7 -7 -30 3 -1 -1 -3 -7
1532264607703206 -9 -2 2 -1 5 1 -2 5
1532264607748085 10 -43 7 0 -2 -3 -1 -6
1532264607763046 -4 -8 -8 -3 0 1 -1 -4
1532264607801942 4 22 22 9 2 0 -1 1
1532264607808922 5 30 16 -4 0 -1 1 11
1532264607831863 1 -15 -7 -8 0 2 -1 15
1532264607868763 3 1 -5 -5 -6 -5 -8 -8
1532264607891702 -3 6 10 25 9 4 4 -8
1532264607952539 3 -4 -15 -7 -3 3 10 21
1532264607966501 6 30 13 1 -12 -10 -9 -6
1532264607988443 -1 24 5 16 7 4 -4 -6
1532264608011381 -4 -40 -9 3 4 1 -3 -11
1532264608026341 -4 0 -5 6 4 5 2 5
1532264608071221 -23 -17 -14 -14 -14 -6 -3 0
1532264608146021 8 10 -9 -1 0 1 4 15
1532264608236778 8 -27 8 4 2 3 5 12
1532264608265701 0 -2 -25 -22 -9 0 3 -2
1532264608348480 -35 -48 -19 -15 1 2 0 -9
1532264608408320 -4 2 4 -3 -3 -3 -2 -2
1532264608528997 3 12 -5 -4 -5 -4 -2 -1
1532264608611776 -4 6 -1 3 -2 -2 -6 -3
1532264608731461 6 -4 5 -14 -2 -1 -2 -1
1532264608853130 -2 -23 -25 -20 -4 -2 0 -2
1532264608867093 -1 3 -60 8 5 5 2 1
1532264608888037 -2 -3 -3 -6 -2 -1 -2 -1
1532264608947877 6 3 -32 9 -1 1 -1 0
1532264608956854 -5 0 4 -7 0 -1 -2 0
1532264609001733 3 30 -52 6 -1 -3 -2 1
1532264609007718 -1 -10 -45 31 4 3 -1 -1
1532264609031653 35 8 -27 -19 -2 -3 -3 8
1532264609054592 0 -3 30 -2 -1 0 1 2
1532264609070549 -4 -1 -104 0 1 0 0 0
1532264609114432 -1 -2 15 -8 -6 0 -2 -3
1532264609169285 -4 -8 -3 -2 -1 2 0 -3
1532264609183247 8 15 -21 9 1 -3 -3 -4
1532264609219152 6 -10 18 11 4 11 3 1
1532264609257052 -11 0 -12 -12 -1 -3 -2 -3
1532264609277995 -9 -13 83 -18 -2 6 1 -1
1532264609307915 5 -6 -19 6 -3 2 2 1
1532264609384710 7 -12 -35 6 5 -5 -1 -2
1532264609409643 -3 5 2 59 19 1 2 1
1532264609438564 -15 14 -10 -16 -8 2 -1 2
1532264609487435 -15 -8 -5 -3 -5 4 0 -10
1532264609519349 -3 -12 -17 -1 -1 -7 -5 -1
1532264609571210 17 15 -6 15 8 9 3 2
1532264609655983 -18 7 -58 1 1 -14 -2 -1
1532264609682918 -2 11 12 6 -3 2 -1 -10
1532264609704853 5 -1 35 7 3 2 -1 3
1532264609782645 15 -9 -13 -28 -6 0 -3 0
1532264609798602 6 -16 -39 -10 -3 5 1 10
1532264609834506 1 -1 -15 5 -5 -4 -9 -24
1532264609870410 7 11 12 -1 -5 -6 -2 11
1532264609909306 -2 4 -15 2 1 16 4 3
1532264609931247 9 2 5 2 3 -5 -9 -12
1532264609955183 13 -1 0 -1 -3 -3 2 15
1532264609977124 -4 3 49 -2 8 8 19 -5
1532264609990103 20 0 6 1 6 24 55 92
1532264610049930 5 -10 -25 -5 -7 -12 6 -3
1532264610073866 18 -2 -3 5 0 -8 -34 9
1532264610110767 14 -17 -12 -5 -6 -13 -14 -25
1532264610133718 24 -3 3 1 -1 4 18 43
1532264610194544 -2 -9 -52 -15 -9 3 -2 -8
1532264610231445 -14 5 10 -1 -3 4 -43 -40
1532264610254383 -12 -33 -1 -2 -2 -2 10 -13
1532264610276325 18 15 16 11 -2 -55 5 29
1532264610337161 -21 -62 -80 -15 -4 9 -26 -4
1532264610359116 7 -18 -19 -10 1 34 9 -14
1532264610418943 1 9 -1 -3 -1 3 0 38
1532264610470819 12 4 23 -4 -2 31 2 21
1532264610493743 -1 0 -29 4 -2 -1 -2 -3
1532264610516682 -10 9 -5 2 1 1 9 -16
1532264610539624 0 0 48 5 1 8 8 0
1532264610561562 7 31 -1 1 0 21 -2 15
1532264610590495 -2 -6 -14 0 0 -5 -6 -8
1532264610613423 -5 -11 -8 -2 -2 -6 -1 -4
1532264610636362 -7 5 14 -3 0 10 0 -11
1532264610659301 2 3 -10 0 -1 3 -5 9
1532264610710165 12 1 -6 0 3 -10 2 23
1532264610733103 0 3 -6 -1 -1 13 1 -9
1532264610780975 -1 0 -3 1 -9 -8 -2 -3
1532264610816879 5 2 6 0 4 -4 1 -1
1532264610838821 0 4 1 3 0 40 6 -3
1532264610883701 3 -3 -3 9 16 31 11 2
1532264610912623 -6 2 -1 4 3 -4 1 4
1532264610959498 -9 -1 2 -12 1 -4 -6 -3
1532264611019337 1 0 -1 6 4 -6 -3 -1
1532264611042276 -3 -30 8 6 -6 -1 -2 0
1532264611093141 5 -5 -2 3 -1 -5 -2 -1
1532264611161957 0 -61 -34 -3 1 2 -10 -6
1532264611198858 -4 -49 25 1 4 -2 -1 -4
1532264611236756 -6 4 66 -3 -2 -3 -1 0
1532264611272661 2 -17 -6 -2 2 2 1 1
1532264611326516 0 12 -16 -1 0 2 3 0
1532264611332501 1 19 34 2 -3 -8 -2 2
1532264611378378 -2 -8 16 -3 -2 1 0 0
1532264611401316 1 1 -18 10 1 2 -1 -4
1532264611439215 0 -13 8 -1 -1 3 0 -1
1532264611461156 -2 -4 -67 0 1 0 0 -1
1532264611521994 3 75 -51 8 12 -62 32 64
1532264611542938 -22 -30 -17 -8 -10 -3 13 50
1532264611561887 8 -4 63 -6 -1 1 -14 7
1532264611597791 2 17 -48 68 18 37 -4 -23

1532264611666607 -2 6 39 6 5 -9 -6 -9
1532264611724462 5 -39 -30 8 9 3 1 -6
1532264611754372 5 -9 -6 1 -2 4 0 0
1532264611822191 0 -26 -40 7 0 -1 -5 0
1532264611852111 1 -13 30 0 -1 -1 0 -1
1532264611882031 2 -23 84 10 1 2 0 -1
1532264611911951 6 -24 -63 -9 -3 -9 20 61
1532264611980767 -15 -35 -87 -6 -7 12 -1 14
1532264611994741 18 56 97 25 18 29 6 -18
1532264612015674 -11 9 -32 11 3 3 -6 -4
1532264612031680 15 21 70 -39 -10 -6 2 -15
1532264612083527 5 11 -17 -11 -2 17 80 0
1532264612099485 -10 7 24 -2 18 -5 -35 -6
1532264612144365 0 -2 8 -16 -17 -8 -4 -4
1532264612176280 1 7 34 1 -1 -1 1 -1
1532264612204205 6 -3 -9 -8 -2 15 5 -1
1532264612242103 3 0 -4 -35 -6 -3 -7 -2
1532264612272024 -1 -1 -7 -9 -6 -2 2 0
1532264612308924 2 -2 5 4 2 0 -1 -1
1532264612314909 2 1 1 -14 6 7 0 -1
1532264612361783 -1 2 0 -2 1 -4 4 0
1532264612375746 0 1 1 -1 3 2 -3 -1
1532264612398699 1 -1 -1 -1 -3 -2 -4 0
1532264612435586 -2 -10 -14 -3 -3 -4 -1 0
1532264612482461 -1 -1 -9 -6 2 2 4 0
1532264612511383 6 10 5 6 1 -1 0 2
1532264612517367 -1 6 -18 3 0 -2 -1 -2
1532264612549282 0 0 18 38 16 4 2 0
1532264612564242 -3 0 11 -5 2 7 -3 0
1532264612602141 0 1 10 4 9 -2 0 -2
1532264612624083 -1 -4 -7 -23 -15 -8 -3 -2
1532264612661981 -3 -7 -24 -23 -22 -7 -2 -1
1532264612713842 -3 -7 -2 -5 -3 3 0 0
1532264612744760 0 -7 -13 4 15 3 1 1
1532264612766701 -1 4 -22 1 -3 -7 5 0
1532264612798615 -4 -9 65 -14 -18 2 -4 -1
1532264612886380 8 10 -26 -22 -5 1 6 -1
1532264612901340 1 3 14 9 12 11 0 4
1532264612931260 -7 -10 -19 4 -2 -9 -3 -3
1532264612953202 -1 6 56 -19 0 -3 -2 -4
1532264612983122 -12 -5 12 2 -6 -6 -2 0
1532264612992116 1 -7 7 -7 2 1 -1 -3
1532264613014041 -1 0 -18 11 -2 -1 -4 -5
1532264613043959 4 5 -128 8 7 1 3 6
1532264613066898 -6 -17 -41 -4 -2 -2 -10 -6
1532264613092828 1 -2 54 -8 -6 -5 -2 2
1532264613127735 3 3 70 -19 -4 -1 8 5
1532264613142709 0 3 -8 28 -7 -2 -10 -3
1532264613163647 -3 -17 -62 -10 6 3 7 0
1532264613186591 -7 -16 -27 2 0 1 -28 -4
1532264613277335 -4 3 61 -23 -11 -2 1 0
1532264613307256 -12 -1 15 -1 8 1 10 -5
1532264613381058 4 6 1 -4 -2 4 -1 6
1532264613464835 3 2 82 9 1 -2 4 1
1532264613486775 -3 28 20 2 1 -3 2 48
1532264613606473 -8 -8 0 4 -5 -5 2 -4
1532264613645351 -2 -15 -35 -2 -5 2 2 10
1532264613734114 -28 9 3 0 3 1 1 -32
1532264613763037 10 21 18 -2 -11 -4 -4 1
1532264613793954 3 -25 -1 -3 1 1 -2 -23
1532264613800935 2 -3 -5 0 0 -2 0 -6
1532264613823875 -9 -79 0 -5 1 0 -1 -3
1532264613884715 9 8 -30 -17 -6 0 -7 -16
1532264613923626 12 5 9 1 -1 3 10 5
1532264613975468 -16 12 -1 4 0 15 -3 -39
1532264614020348 -7 4 -40 -3 -3 -25 0 14
1532264614063233 1 -1 10 -14 -4 -1 4 6
1532264614125068 -9 8 -5 -7 -2 0 -1 -15
1532264614139031 2 15 20 6 2 -3 -4 4
1532264614177940 16 29 11 6 0 -3 1 11
1532264614213833 17 0 0 2 4 2 0 24
1532264614229788 7 -2 -5 0 -2 5 0 9
1532264614266689 -1 -4 32 1 0 -1 -2 -18
1532264614280652 3 -4 -8 -3 -4 -7 -2 0
1532264614306591 -6 -26 3 4 1 -1 3 -2
1532264614365426 12 3 26 9 5 2 -2 9
1532264614378391 2 36 -6 -9 -35 -10 -6 4
1532264614402327 -7 12 33 11 4 -4 -1 2
1532264614460172 8 -12 -17 -15 -4 0 2 9
1532264614528988 0 4 -8 35 15 1 -2 4
1532264614543957 -9 -3 -17 -28 -7 -1 1 -5
1532264614587831 1 -5 2 -38 -15 -5 -5 0
1532264614625729 -3 -9 1 -2 5 0 -2 -1
1532264614649665 -6 -20 -4 -20 -18 -6 -1 -2
1532264614663628 -4 -14 -4 -8 7 7 0 -1
1532264614685569 3 45 19 26 1 0 -1 0
1532264614709505 -9 -14 -19 -21 -1 -3 -2 -3
1532264614746416 6 -2 -4 -1 6 1 0 1
1532264614769345 -14 2 0 -8 -4 2 2 0
1532264614791287 25 4 10 7 2 0 0 2
1532264614829185 0 -17 -13 -10 -7 -3 -3 -1
1532264614867084 -4 -1 10 1 -7 -1 -1 -1
1532264614903985 -18 -10 0 11 0 -3 0 -18
1532264614933905 7 2 -23 -7 -1 10 0 14
1532264614986764 19 39 4 -8 2 -4 0 8
1532264615016684 -2 -9 -2 -7 -3 -2 -3 4
1532264615046603 4 -77 14 2 -1 2 4 6
1532264615069542 -8 8 12 14 -11 0 -2 1
1532264615106444 -3 12 11 6 -17 -6 -6 -3
1532264615136364 3 52 -7 -13 12 5 5 2
1532264615166284 11 21 3 -4 8 2 -1 9
1532264615189223 -1 2 4 7 2 1 3 7
1532264615249062 -20 -20 -15 -11 -2 -2 -6 -12
1532264615263025 -5 27 5 -6 2 1 2 -3
1532264615316881 8 14 -2 10 6 2 2 2
1532264615352785 22 25 39 33 2 -8 -7 4
1532264615405643 16 -20 -6 2 -5 -4 -2 -2
1532264615474461 -4 1 -3 -5 1 3 2 -2
1532264615489420 10 48 -5 2 -5 -4 -1 7
1532264615550257 1 -1 -7 -1 1 -4 -2 2
1532264615586161 -9 -6 -6 -3 -5 -4 2 -2
1532264615645003 16 1 7 6 2 3 -1 0
1532264615691878 -1 5 -24 16 7 4 -2 -5
1532264615810561 16 34 14 3 -4 -1 -1 2
1532264615827523 3 -5 -4 -4 0 -1 -1 0
1532264615902316 2 1 -2 -1 1 -1 -1 0
1532264615969137 -8 -11 -9 -3 -5 -3 -3 -2
1532264616051916 -2 -7 -7 -12 -3 -1 2 -1
1532264616074865 0 0 4 -4 -3 -1 0 -2
1532264616090816 0 7 7 -1 -9 1 0 1
1532264616125718 0 0 -1 0 -4 -1 0 2
1532264616171596 2 10 28 3 7 0 -2 -1
1532264616194535 -1 7 2 -6 5 3 2 3
1532264616328177 4 15 28 6 9 -5 4 3
1532264616374055 -4 0 -37 11 6 -2 2 -3
1532264616394998 11 2 48 11 -6 -3 -2 1
1532264616433894 6 3 51 18 24 9 3 2
1532264616494731 -8 1 -38 -18 -1 0 -1 -5
1532264616509691 2 13 8 -4 -3 -1 0 1
1532264616532645 1 -3 10 4 2 0 -2 -3
1532264616561553 8 -1 -4 -3 -7 -28 -6 1
1532264616592470 4 8 27 -6 -5 -11 -1 3
1532264616622390 -13 -11 -2 4 2 5 2 -3
1532264616651313 -2 13 2 0 0 9 1 1
1532264616706166 -12 -10 9 0 -2 -11 -3 -3
1532264616718134 -9 -11 -31 0 3 3 2 -2
1532264616759025 22 12 -7 -7 -6 -7 -7 3
1532264616808891 11 -8 -6 44 7 11 -1 -6
1532264616816870 16 -18 6 4 -2 3 -4 2
1532264616875713 -5 -2 35 24 -3 -10 -3 -5
1532264616892667 3 -5 -14 0 2 24 4 0
1532264616936550 -13 -4 6 1 -1 -16 1 -4
1532264617011350 2 -1 -3 3 2 -6 -3 1
1532264617050246 -1 10 9 4 -1 1 0 1
1532264617079168 -8 18 15 1 1 -2 3 2
1532264617153969 6 -1 -6 3 0 -11 -8 7
1532264617274646 3 -6 -16 -1 -3 -5 -6 -16
1532264617319526 1 2 -10 3 8 -13 -21 -6
1532264617350443 11 -4 -6 -9 -9 4 -3 -34
1532264617379366 6 -1 -9 9 13 5 12 18
1532264617394335 -13 -8 -14 1 3 5 0 -7
1532264617416266 -9 -8 -10 -2 8 32 10 -23
1532264617431227 -2 -1 -8 7 10 4 1 16
1532264617490070 -8 10 14 3 2 3 5 -28
1532264617536945 12 -3 20 6 -1 3 0 24
1532264617619728 25 -7 -2 3 0 30 46 44
1532264617656624 -23 -66 21 -9 -2 -2 -47 -51
1532264617716464 -15 18 14 -7 -3 -10 -11 -4
1532264617754363 11 23 -6 6 3 3 9 -19
1532264617776304 -2 39 -17 2 1 9 10 -15
1532264617790267 -1 15 51 3 -1 -11 -1 19
1532264617799243 -1 4 50 -2 -9 -5 1 14
1532264617837142 4 6 -18 2 4 -3 -2 18
1532264617859092 -10 -34 13 0 -3 -12 3 -32
1532264617896981 -1 3 -8 -10 -2 1 -1 13
1532264617956822 -7 -4 -18 3 0 -4 -8 -11
1532264617993723 13 6 26 1 0 -1 4 21
1532264618054560 -2 -1 8 -1 -3 -3 0 -1
1532264618099440 2 0 -3 2 -2 9 -8 -11
1532264618150304 -2 -2 -2 3 13 10 1 4
1532264618197179 -1 -2 -9 -5 -4 16 3 3
1532264618219120 -3 -6 -13 -3 0 8 -1 -3
1532264618257019 -1 -4 0 -7 -6 -13 -2 -4
1532264618299904 9 1 -4 -3 7 0 0 2
1532264618338800 -2 -2 4 -1 -1 0 1 4
1532264618353760 11 2 -2 -3 6 7 -1 0
1532264618376699 -15 -3 6 -4 -10 5 0 -5
1532264618399646 7 23 -2 -8 -7 1 -1 0
1532264618420581 -1 21 -3 3 4 1 0 1
1532264618459477 -2 8 14 13 -1 -1 1 0
1532264618489398 -3 -2 26 8 -1 -3 -4 -8
1532264618533280 4 -43 0 2 -2 0 0 3
1532264618564198 3 18 9 5 -1 -2 -1 -2
1532264618632016 -3 13 -7 3 1 2 0 -2
1532264618638998 0 -30 -52 -4 -4 -1 2 0
1532264618697840 2 52 16 -2 -1 0 -2 -1
1532264618766657 0 12 -18 6 6 3 2 0
1532264618819515 1 2 -30 10 3 -8 -4 -11
1532264618859409 -19 -9 -49 -1 1 11 -5 -88
1532264618888331 -52 -43 -62 -9 -9 17 -12 96

1532264619020976 -4 16 -38 19 1 0 4 5
1532264619082810 -1 -14 -9 6 3 -6 -1 1
1532264619106747 7 -17 -50 -2 -1 -1 6 10
1532264619141654 5 -4 -65 2 -4 -2 -3 3
1532264619149632 1 20 2 -6 -4 -7 1 -5
1532264619186533 -1 -14 60 -3 -3 2 0 0
1532264619216453 3 7 -1 -18 -7 -1 -3 0
1532264619223436 1 -12 -52 1 3 2 2 0
1532264619248368 4 7 -15 0 -3 1 1 2
1532264619263329 4 25 29 -13 -5 -6 -13 36
1532264619278300 56 -25 -80 3 17 51 80 93
1532264619305216 38 5 120 -9 -13 7 -7 11
1532264619323168 -25 -3 -36 5 -1 7 -13 -30
1532264619351093 -22 -23 37 -86 -7 -36 0 -14
1532264619381013 0 9 -119 12 -3 3 15 20
1532264619411931 -11 -6 55 32 11 -13 17 15
1532264619456810 -6 18 20 -15 -2 -2 1 0
1532264619473765 -4 -7 -3 -9 -5 -2 5 -1
1532264619478752 3 19 24 -10 2 0 6 6
1532264619500693 7 -8 4 46 5 -2 1 3
1532264619525627 1 -6 -1 25 -3 -6 -2 1
1532264619538592 -2 1 -24 -14 -7 -3 -2 -1
1532264619562528 -6 0 15 2 7 0 3 -1
1532264619585467 4 16 9 21 14 5 2 2
1532264619598432 -10 -6 -27 -17 -10 -8 -5 -1
1532264619621370 -3 1 9 -54 -11 -5 -1 2
1532264619651290 20 14 4 29 11 9 2 7
1532264619695173 -4 0 3 10 -1 4 1 0
1532264619727088 1 -5 8 30 0 0 2 0
1532264619741051 -3 -13 -2 -2 -2 -2 -3 0
1532264619786928 11 -30 0 -1 4 3 2 12
1532264619815850 -1 -13 -57 -8 4 2 -2 -9
1532264619838789 3 88 55 -9 -13 -9 -4 -9
1532264619860731 -2 3 -37 5 19 10 5 1
1532264619884666 -3 -1 -51 2 11 -3 0 8
1532264619920570 2 -8 20 -3 -7 -5 -3 2
1532264619943509 3 -9 3 -1 2 -1 -3 -5
1532264619981408 1 -8 3 3 2 -1 -2 0
1532264619995370 -2 17 9 -4 -2 0 1 2
1532264620018309 1 -12 2 -2 -3 0 -1 3
1532264620041249 3 -11 -2 3 -12 -4 2 2
1532264620063189 4 -15 -15 3 6 0 3 4
1532264620101087 1 -5 -16 -6 -4 3 1 3
1532264620117056 1 8 14 11 -2 -8 -4 0
1532264620138986 4 1 19 42 28 16 4 4
1532264620160928 -1 -8 -22 -55 -36 -13 -2 -2
1532264620175888 3 2 28 20 22 -1 -2 1
1532264620198826 -2 -9 0 4 -15 -7 0 -3
1532264620220767 1 6 6 -10 14 11 4 1
1532264620244704 -3 4 29 -28 -15 -1 -3 -2
1532264620258666 -3 -9 -32 29 22 -2 1 0
1532264620289584 -3 -5 -18 11 -8 1 -2 -3
1532264620304544 2 -1 15 -23 6 -7 -2 2
1532264620318506 1 -1 -29 55 1 2 1 0
1532264620341445 0 4 -18 -7 9 -2 1 1
1532264620386325 -3 -3 -3 -17 -2 -1 -2 0
1532264620432202 1 -8 2 -12 5 4 2 0
1532264620439183 2 1 6 -6 2 -2 -2 -1
1532264620484064 0 3 5 -20 1 0 0 1
1532264620507002 -4 -25 -68 -16 1 0 1 0
1532264620520965 -3 3 6 -21 -13 -2 -1 1
1532264620545901 1 2 18 23 -1 -1 -2 0
1532264620558864 -1 4 3 5 -6 6 0 0
1532264620588783 -1 -1 -34 -2 8 0 -2 -2
1532264620620698 -5 -8 12 -9 -4 0 0 2
1532264620640646 -1 5 24 -12 -8 -2 -2 3
1532264620672559 3 -7 -35 -14 1 0 3 8
1532264620681535 -3 -6 -19 -16 -13 -5 -4 -5
1532264620732399 5 -12 -81 11 13 5 4 13
1532264620746362 9 22 41 13 -3 -16 -9 -5
1532264620793237 -4 -21 -69 0 -2 1 -2 3
1532264620821162 -5 -9 -36 6 5 28 3 -2
1532264620896959 15 29 -1 8 1 -7 -4 3
1532264620940842 -3 -7 -7 6 1 0 1 -2
1532264621024619 2 -15 -37 8 0 -1 2 -1
1532264621084458 -6 5 4 1 0 -1 0 3
1532264621097423 0 -11 -3 1 -4 0 1 -8
1532264621151279 -10 -21 5 30 4 1 12 11
1532264621181199 -9 15 1 -16 -4 -3 -14 -15
1532264621265972 3 -67 -7 -9 -2 2 -4 -18
1532264621300879 12 22 -6 -6 -5 19 22 17
1532264621384671 -3 -13 -40 -3 -5 -12 -9 -33
1532264621453471 -1 -64 -9 31 18 2 6 4
1532264621466447 2 39 46 -30 -11 -39 -6 -10
1532264621480399 -3 -2 -33 -12 -6 -4 -4 35
1532264621504335 -40 -11 6 8 -1 -4 5 -27
1532264621526277 10 -12 2 -19 -9 1 -2 -4
1532264621540240 7 38 3 6 0 19 -1 5
1532264621564175 -3 -10 24 2 -4 4 -2 16
1532264621594095 4 -8 -28 2 1 15 -2 -6
1532264621646954 -3 9 -1 -2 -2 -13 -3 1
1532264621668895 23 -12 -15 -2 -1 -1 -1 13
1532264621745690 4 9 20 -7 -7 -8 -7 5
1532264621759663 -7 -43 -86 -6 -5 2 -3 1
1532264621780597 -4 -10 -58 55 11 -6 -2 4
1532264621804533 5 -15 38 -24 -12 -7 -6 -2
1532264621826474 0 -65 -23 -14 2 6 2 2
1532264621849412 2 6 13 -8 -1 -1 -2 -1
1532264621894292 0 3 -28 -3 -2 -4 -1 3
1532264621909264 -5 -36 -23 -13 -9 -1 1 0
1532264621947151 -4 16 8 12 4 0 0 3
1532264621969093 1 -5 5 12 21 8 2 4
1532264622007003 -9 -12 -13 -14 -12 -8 -3 -6
1532264622019956 -3 1 1 -1 -1 -2 -1 -3
1532264622043892 0 2 -6 -23 -4 -1 -1 -1
1532264622088772 3 23 -2 -11 1 0 -1 0
1532264622134650 -2 5 -2 14 13 6 6 -1
1532264622163573 6 17 7 10 1 -2 -1 2
1532264622209450 0 14 -13 -8 -5 0 -2 -1
1532264622246350 -4 -14 5 -16 -2 -1 0 -2
1532264622269290 3 10 -17 12 2 2 0 1
1532264622277268 -1 0 -40 14 3 2 -2 -5
1532264622337109 3 -17 -3 27 4 9 -3 0
1532264622351071 -3 -14 2 2 -1 -5 -4 -4
1532264622411909 -5 27 -1 -1 -2 -5 -2 -5
1532264622427865 2 24 5 33 6 -19 3 6
1532264622486708 5 -56 -31 -19 -11 -25 -4 -1
1532264622524607 -19 53 5 -10 -7 -42 -4 -35
1532264622546548 1 -14 -2 3 3 -8 -2 6
1532264622576468 -2 -1 -2 -14 -1 5 -1 4
1532264622582452 -2 -9 -11 -9 -1 3 -1 4
1532264622614370 -9 -25 -3 15 -5 2 0 0
1532264622638319 5 19 -13 -1 3 1 5 5
1532264622667226 -11 15 6 2 0 -2 -3 -4
1532264622689167 11 -20 -5 -3 -5 0 -4 12
1532264622726068 2 3 4 8 -1 -1 1 -6
1532264622734063 1 5 2 -5 1 1 2 -2
1532264622762970 -3 -55 3 -13 -6 -4 -2 1
1532264622815828 -8 6 8 -3 1 -1 -2 -4
1532264622891626 -6 -2 -7 -5 -3 -4 -8 1
1532264622950468 14 19 14 18 1 3 0 16
1532264623003327 7 19 -3 -11 -5 0 1 -14
1532264623033247 5 2 -6 16 2 1 2 12
1532264623168884 -2 -2 4 -4 -5 -3 -4 -4
1532264623205785 2 7 2 1 2 1 1 -1
1532264623244696 -2 -23 -70 -16 -2 -2 -1 0
1532264623327460 3 8 3 2 -1 1 0 2
1532264623356383 -1 -6 -29 -13 -5 -2 -2 1
1532264623394281 2 2 -67 30 8 3 2 3
1532264623409241 4 -31 3 -11 1 0 -3 -1
1532264623432180 -15 26 -3 8 3 5 4 -2
1532264623460105 -4 1 64 -34 -6 1 -1 -3
1532264623492020 0 -3 -13 -9 2 -4 0 0
1532264623521940 -13 -23 -62 -14 -5 -5 0 1
1532264623558841 6 7 7 23 3 2 2 3
1532264623597737 10 15 -3 -2 0 -2 2 2
1532264623627657 3 9 -16 -5 -1 -2 -2 0
1532264623633641 2 16 20 2 -3 -7 -3 0
1532264623671540 31 -6 28 -10 -2 -4 -5 2
1532264623754318 4 4 51 -11 2 1 0 -1
1532264623769278 -10 4 8 -12 1 6 7 10
1532264623822137 -9 0 34 14 -1 1 -1 -6
1532264623866020 -2 5 3 -15 -3 -7 -7 -5
1532264623924868 12 38 35 13 4 -6 -2 8
1532264623985700 -6 5 6 -1 -1 -13 -3 -2
1532264624039561 -20 21 18 4 1 1 4 0
1532264624098399 14 4 21 5 -7 -5 -3 0
1532264624151257 -5 4 -22 -2 1 1 4 -3
1532264624234036 1 4 -5 -3 -2 -5 0 27
1532264624278916 -7 0 -1 0 5 3 -3 -38
1532264624367679 18 2 18 0 -4 -61 -29 24
1532264624557172 -14 -35 -5 3 -1 -33 -78 -5
1532264624572132 -11 0 -7 -1 -8 -31 -54 -9
1532264624608036 -12 28 28 -25 -8 17 16 -14
1532264624684830 5 -3 0 2 -2 -6 -21 -19
1532264624713753 -2 -3 0 0 1 21 -2 6
1532264624736692 4 1 14 11 4 -7 -37 9
1532264624796531 -11 -3 -15 -7 -3 -2 -8 4
1532264624834430 5 4 3 1 0 -1 -13 39
1532264624847395 -6 -6 -2 2 -1 -5 1 -9
1532264624894270 1 12 17 3 4 8 34 -3
1532264624931172 2 -1 -6 3 4 8 11 35
1532264624991012 -1 1 -1 1 7 -1 -7 -11
1532264625073792 2 0 -2 -10 -8 4 1 6
1532264625110692 6 -1 5 1 3 -9 20 7
1532264625179508 -7 -8 -8 3 3 -3 3 1
1532264625216409 -2 -1 -2 -8 19 3 -5 -2
1532264625254307 -4 11 -4 -17 -4 0 -1 -3
1532264625277248 -22 -39 12 33 7 5 2 0
1532264625396926 -15 2 -63 0 -3 0 6 3
1532264625456766 1 -43 33 3 3 -2 -1 -10
1532264625494664 -1 14 34 2 14 2 -1 -3
1532264625539545 4 76 86 2 -2 -6 -3 -1
1532264625614345 1 -21 -56 19 5 1 4 3
1532264625650249 -2 -1 36 1 -2 0 -3 1
1532264625720062 -18 -16 -103 -14 -5 -2 0 -12
1532264625755966 32 23 100 -1 -2 -27 32 -6
1532264625795868 -8 -25 -74 -10 -3 -28 -21 -44
1532264625815806 -1 30 -41 32 19 7 0 -6
1532264625838745 -5 -19 -27 -13 -15 10 -2 2

1532264625870670 6 55 44 -8 -5 10 0 4
1532264625875646 1 -18 38 -6 2 9 7 0
1532264625907611 -1 -15 -51 -5 3 1 -4 4
1532264625921593 14 39 21 1 -2 -2 9 -4
1532264625968449 3 1 27 3 0 3 -2 2
1532264625989393 5 12 4 11 5 5 1 6
1532264626020310 0 -5 7 -18 -7 -4 0 -6
1532264626049233 0 -33 -52 -8 0 2 -3 -7
1532264626072171 -4 -35 -8 4 2 -2 0 1
1532264626078172 -1 -3 0 1 2 4 1 2
1532264626131020 -7 -45 -33 -3 1 -1 -2 0
1532264626150967 -5 -16 17 5 -3 -5 -1 -1
1532264626168919 -1 62 20 2 -1 -3 0 0
1532264626183878 -2 12 54 9 2 -1 0 1
1532264626237734 -5 8 -51 -20 -10 -1 -2 0
1532264626243719 -3 -3 18 -2 -3 -1 -1 1
1532264626258679 -4 -1 116 -12 -3 -2 -1 -2
1532264626295580 -5 12 -55 6 6 -5 -1 -7
1532264626318518 -6 -9 -83 0 4 12 21 49
1532264626350437 12 67 127 9 3 -2 59 87
1532264626363398 3 -17 -17 -5 0 -29 -71 -21
1532264626379355 -18 -16 91 31 9 -12 -10 -56
1532264626438199 -1 -18 44 19 16 0 -6 -9
1532264626463131 1 -16 7 -20 -20 -5 24 4
1532264626499035 3 -14 -19 -11 -5 0 -1 1
1532264626512998 -14 -10 -8 10 -3 -2 -5 -6
1532264626558876 7 -4 9 40 29 9 -7 4
1532264626572838 -2 -5 26 -31 -13 -6 -3 -4
1532264626604753 -6 -3 -15 7 15 3 0 -2
1532264626618716 -2 12 14 1 -8 -2 -2 -2
1532264626632678 -6 -4 -24 -14 -9 -8 -4 -3
1532264626655617 2 -2 -4 3 8 6 -1 2
1532264626678556 1 3 10 -8 4 -1 0 -1
1532264626692518 2 -11 -13 2 -3 2 0 -1
1532264626716454 -2 -6 -2 9 4 2 -1 2
1532264626738396 0 7 -8 -8 -6 -3 1 -1
1532264626776295 -3 -4 -11 13 -5 -5 -2 1
1532264626798243 1 -1 -49 -4 -1 -2 -2 -3
1532264626828155 0 1 3 -10 5 3 -2 0
1532264626852092 -4 -4 32 -22 -14 -6 2 -2
1532264626858075 1 4 20 25 1 7 1 -1
1532264626888993 2 7 -2 7 0 1 -10 -3
1532264626926891 -2 11 52 -2 -16 0 3 -2
1532264626948833 -3 -16 -36 -19 -13 -8 -3 0
1532264626978753 -2 -1 -39 -2 -4 -4 3 3
1532264627001691 -2 3 59 13 28 6 1 1
1532264627015654 0 0 2 -4 -11 -9 -3 -1
1532264627099430 -4 -5 12 -1 3 2 -1 -1
1532264627181211 3 -2 16 0 -3 -2 -2 -1
1532264627196172 1 -12 -30 -20 -8 -2 -1 -2
1532264627219110 -7 -14 -8 -1 -10 0 -1 -4
1532264627242049 -3 10 32 4 0 0 0 0
1532264627256012 -3 -15 -4 6 1 3 0 -7
1532264627301888 1 7 7 0 -3 -4 -1 1
1532264627315852 -8 5 -11 10 2 2 1 -1
1532264627347783 2 -1 6 3 1 0 1 0
1532264627369708 3 0 -11 -3 -1 -2 1 3
1532264627444508 1 6 -4 4 4 1 -2 2
1532264627458470 -3 -8 -33 0 11 2 1 0
1532264627518311 23 -5 -84 -1 -3 -14 -5 9
1532264627557206 -1 -26 -18 -12 -5 -5 2 16
1532264627586129 -26 -15 -38 -5 -4 9 12 -12
1532264627609067 -19 -58 -67 -9 -2 3 8 -25
1532264627637990 8 -9 16 -2 -3 9 -22 27
1532264627683867 3 3 -19 -9 -1 3 -2 -6
1532264627735729 -8 15 -9 1 2 -7 7 -3
1532264627758668 3 -16 -5 4 -1 -3 3 -16
1532264627804544 2 2 -10 11 7 -2 3 2
1532264627872363 -2 -3 -15 -8 3 -9 1 -12
1532264627939185 -17 8 11 6 8 7 3 0
1532264627985062 3 8 5 -3 -2 -1 0 4
1532264628021963 10 65 4 -9 -4 -4 0 8
1532264628057877 -4 -18 -3 -3 -2 -4 -6 -15
1532264628066844 6 -19 3 0 -4 2 5 13
1532264628090780 -1 3 -1 0 -4 -1 -2 -14
1532264628105740 7 -10 0 1 0 3 -1 -3
1532264628141644 4 43 3 -1 -1 -1 2 36
1532264628164582 8 -10 -3 1 4 3 1 11
1532264628186523 -3 -11 -3 -2 -3 -4 -5 -9
1532264628224429 -1 -1 -9 -5 -1 1 5 -1
1532264628238384 -14 -28 1 2 -3 -8 -5 -15
1532264628292241 16 -21 -8 1 0 2 2 18
1532264628298224 -12 16 3 4 3 1 1 -14
1532264628367069 17 58 6 -2 -2 -4 0 4
1532264628382029 10 -5 25 -1 -2 1 0 -13
1532264628403970 -22 -22 -51 0 5 17 1 -11
1532264628426909 8 -10 -27 -10 -10 -13 -2 39
1532264628494728 18 43 -42 12 0 4 -16 13
1532264628530632 -16 -2 -74 -7 7 5 10 -21
1532264628608423 -23 10 35 7 1 -7 5 -1
1532264628621388 9 -37 -2 8 -1 5 4 23
1532264628652306 3 16 -35 -7 -7 -1 -3 -11
1532264628658291 10 -37 -26 -2 0 -10 1 8
1532264628706162 5 -19 22 1 1 4 1 2
1532264628736082 24 2 -5 -2 -1 3 16 3
1532264628755031 7 -14 -2 -6 2 4 0 -15
1532264628786945 -13 -35 -54 -6 0 0 2 -18
1532264628807890 -10 27 18 -21 -8 -2 -6 -6
1532264628825843 -1 -7 3 -49 -18 -5 -4 10
1532264628869725 7 12 103 -15 3 4 3 4
1532264628884685 10 88 39 34 -6 3 0 27
1532264628906627 8 -37 -41 -37 -8 2 -1 -15
1532264628920589 11 -14 -55 -20 -2 -3 -3 -2
1532264628944524 -3 9 23 -11 -2 -5 0 0
1532264628966466 3 19 27 -1 2 0 0 7
1532264629004365 2 4 -19 -12 -6 -5 0 7
1532264629026307 -6 -57 -31 5 -12 -4 -1 -1
1532264629049245 8 14 4 -11 -4 -4 -2 9
1532264629073181 5 -13 7 23 16 1 2 9
1532264629088140 3 -5 -1 -20 -7 -4 -4 -5
1532264629109097 -7 -16 -8 27 7 1 1 3
1532264629141003 6 42 17 -16 -14 -5 -4 4
1532264629159949 -1 11 -5 9 -1 -3 0 1
1532264629176919 3 14 3 -19 -8 -3 -1 2
1532264629206841 0 14 8 18 5 0 0 1
1532264629236743 -2 -21 -3 3 -3 -2 -2 -1
1532264629280626 -7 -5 5 11 1 -2 0 0
1532264629289602 4 4 -5 -1 -3 0 3 4
1532264629350439 -1 -12 -6 -9 2 1 -2 0
1532264629386343 1 34 8 -8 -8 3 -7 -1
1532264629417260 -9 -9 -13 -2 -6 -6 -4 -16
1532264629460145 3 36 12 3 1 -3 -5 -4
1532264629483085 0 14 -1 13 2 3 2 -18
1532264629528962 -2 -12 -14 10 8 4 3 0
1532264629543937 -7 -16 3 -1 -4 -2 -8 -2
1532264629565863 -9 -7 5 -2 -4 0 2 37
1532264629580823 7 -3 -1 -1 18 0 4 8
1532264629603761 6 -4 7 -1 -5 1 2 -2
1532264629617724 -4 11 -5 -2 -3 0 0 1
1532264629640686 2 -1 4 2 1 2 1 -11
1532264629663624 -5 -12 -6 -6 -11 -2 2 4
1532264629686562 6 -13 -4 -1 -9 -4 -4 -19
1532264629716483 -3 -15 -21 -3 2 2 1 -1
1532264629769341 8 3 9 11 3 3 -2 8
1532264629783303 -20 -45 -12 -6 -1 0 3 10
1532264629829181 7 -2 22 12 -1 1 3 2
1532264629971807 -1 6 3 -1 -3 -4 -1 -25
1532264629988755 0 -8 -7 15 4 2 0 2
1532264630031639 22 36 9 1 5 4 3 16
1532264630106466 -2 -19 -22 -12 1 1 1 10
1532264630166279 -6 -8 -2 9 1 -1 -1 0
1532264630219139 2 -2 6 9 4 2 5 -1
1532264630257038 -1 -3 8 -2 -4 -11 -4 0
1532264630286957 -3 -7 14 -10 -8 2 -3 1
1532264630406637 2 12 47 13 1 0 -1 -1
1532264630444536 -13 -1 17 -2 -4 1 -2 -2
1532264630459496 -1 28 20 -57 -1 -5 1 -2
1532264630474456 -1 0 14 -5 2 0 -1 -1
1532264630503378 -21 -5 56 -11 -6 -3 -1 -6
1532264630534296 0 4 11 -5 -4 -2 -2 -2
1532264630632034 -4 8 -41 13 2 2 1 2
1532264630676914 4 12 -7 -16 -4 -4 -1 3
1532264630705837 -4 -12 3 -35 -7 6 3 -1
1532264630750716 -2 -9 -17 5 1 -4 -3 -5
1532264630789613 -7 4 -8 5 3 4 0 -4
1532264630811554 -5 1 8 5 0 8 0 0
1532264630885364 -4 2 5 12 1 -7 -1 2
1532264630998055 -1 15 -4 9 2 2 -1 0
1532264631028973 9 20 90 -6 -2 1 1 3
1532264631149650 -11 -8 -15 3 -2 -2 -2 -4
1532264631216472 -1 6 44 -13 -1 -1 0 0
1532264631419927 17 8 0 -4 -7 -87 -16 21
1532264631485752 2 2 -2 1 3 -15 8 -104
1532264631545592 -1 1 3 4 -1 -23 2 -10
1532264631688209 -6 -23 -18 -1 -2 6 -5 37
1532264631712145 -12 -18 -10 -2 0 -6 6 12
1532264631748050 -6 -9 -4 2 3 -8 7 -40
1532264631801906 7 -13 21 3 0 -6 0 48
1532264631807897 -6 23 26 2 3 25 2 -9
1532264631853767 0 -3 -28 -7 0 -1 1 -26
1532264631914616 -3 6 17 0 -1 -7 -3 12
1532264631936546 -3 -14 25 -2 -1 -11 1 8
1532264632048247 4 1 0 -1 -2 -9 -4 -4
1532264632094124 0 -2 2 -1 11 -5 -4 -5
1532264632139005 -2 -2 -2 0 -3 -1 -3 2
1532264632213805 -11 -5 -4 9 -6 2 1 -5
1532264632235745 16 13 0 -6 -3 0 -1 0
1532264632273662 7 -3 -14 -24 -12 -1 -1 1
1532264632341463 3 17 -31 11 2 3 -2 1
1532264632393325 2 17 32 0 -3 -3 -2 1
1532264632453165 -2 -31 -41 1 -1 -2 2 -1
1532264632476103 -1 23 -41 -4 5 4 -2 1
1532264632514001 1 0 39 -2 -5 -3 0 -3
1532264632535943 -4 -5 27 10 4 0 -1 -1
1532264632552898 -1 8 -21 1 3 -3 1 -2
1532264632595783 0 -11 16 -1 -3 0 -1 -3
1532264632610742 1 -6 28 3 0 2 -1 -8
1532264632655635 -2 -8 -5 3 2 -5 -2 3
1532264632679559 0 -24 -17 -5 -3 1 -1 -1
1532264632693522 3 17 8 2 2 4 1 1
1532264632732417 -9 -36 -91 -4 -1 2 4 2
1532264632753362 -7 -20 -32 6 1 -64 2 21
1532264632807219 9 15 65 -2 -5 11 18 -3
1532264632829158 -12 -56 3 -27 -15 21 -6 4
1532264632851100 -4 3 110 27 -8 9 -5 7

1532264632896979 -6 -56 -43 -1 -4 0 -10 10
1532264632914929 -2 38 30 -19 -1 2 -2 -5
1532264632919921 9 9 -46 -6 -4 5 -4 2
1532264632972775 -24 10 3 -1 -13 2 -10 27
1532264633009677 41 34 91 2 8 -23 12 18
1532264633032615 -14 8 -17 5 3 -1 -2 -22
1532264633069549 -7 -16 -40 22 8 -6 16 15
1532264633084508 -14 -6 90 18 -3 7 3 -7
1532264633129388 -9 -7 -38 -8 -1 -9 1 -5
1532264633136370 1 -6 -38 -16 8 3 0 -3
1532264633183244 -6 -1 -40 -28 -9 0 5 1
1532264633196209 -6 2 -3 8 11 7 5 1
1532264633235106 -12 -1 -5 2 -3 -3 -1 -2
1532264633270012 -2 -4 3 -37 -16 2 -2 -6
1532264633293948 1 0 -8 -2 8 -5 -1 0
1532264633330857 -6 6 -1 1 3 -1 2 0
1532264633375730 2 -4 1 11 2 1 1 0
1532264633398668 -3 -47 2 7 1 -2 1 -1
1532264633413628 2 22 12 3 -5 -9 -1 -1
1532264633451527 -3 -62 33 2 0 -2 -1 -3
1532264633476470 -10 -7 -93 -7 1 5 -3 -2
1532264633535302 2 3 -72 -7 5 3 3 20
1532264633564240 5 3 38 13 22 9 1 -2
1532264633616087 -4 13 29 2 -6 -6 -4 -13
1532264633639026 -3 -23 -6 0 -10 0 1 -2
1532264633675927 0 1 10 -1 -15 -1 -1 1
1532264633743745 0 2 -23 2 10 4 2 -2
1532264633811564 0 11 -20 10 18 4 -1 3
1532264633880380 -2 8 -6 -16 -16 0 3 -1
1532264633886364 -4 -2 -9 -25 -21 -3 0 1
1532264633939223 2 22 22 8 -43 -6 0 1
1532264633953186 7 4 -28 -26 -8 -8 -1 -3
1532264633999063 3 -10 -53 28 9 3 0 -1
1532264634028983 0 -6 -14 32 16 -8 -1 2
1532264634043943 -3 3 2 -16 1 -5 -2 0
1532264634081841 1 -4 -8 13 4 0 1 2
1532264634096802 2 1 24 9 1 0 2 0
1532264634141682 -3 -9 9 4 3 4 -2 -2
1532264634179580 -1 3 18 -14 -4 -2 0 -1
1532264634207506 -6 -10 20 12 0 -1 -2 -3
1532264634230444 -5 2 20 -5 -1 -7 -3 -4
1532264634284301 -1 5 17 3 0 1 -4 -3
1532264634336161 12 23 -20 7 -12 -4 1 24
1532264634396001 -1 4 -8 11 -2 -6 -4 -5
1532264634472796 -8 17 -1 6 5 -4 0 -4
1532264634501718 16 41 23 6 1 2 2 29
1532264634524659 -1 13 21 -8 -5 -3 -1 33
1532264634546598 -11 3 12 9 11 2 -4 -27
1532264634569538 0 -41 -4 -23 -9 2 -5 -8
1532264634635360 1 14 5 19 1 -8 -4 -7
1532264634703180 -20 -31 15 -6 -3 -1 -3 -24
1532264634801915 1 -4 -6 -2 -8 -2 -5 -13
1532264634838817 1 -33 -14 0 3 4 -3 -18
1532264634861756 2 15 6 4 -8 -2 2 25
1532264634875719 7 49 6 -4 -3 -4 -5 -21
1532264634938563 16 -17 2 -5 0 -2 0 21
1532264634959495 -8 -6 19 16 8 4 2 -17
1532264635004374 2 -7 5 -6 -1 3 4 40
1532264635026315 -18 -5 0 1 1 -2 -3 -8
1532264635079175 -14 5 0 3 3 -5 1 -10
1532264635126049 14 -21 -3 3 -3 2 -1 11
1532264635139014 9 3 4 4 3 -2 -3 5
1532264635175923 8 -5 17 -4 -1 1 -4 -4
1532264635184893 -2 -10 -13 7 3 -5 -8 -4
1532264635228774 3 -6 8 3 -3 -1 0 -5
1532264635244732 4 10 -20 3 0 -1 -3 -12
1532264635281633 -5 -20 -8 0 -1 1 -10 -34
1532264635303574 16 -9 -11 -1 0 2 1 11
1532264635341478 11 11 10 4 -3 5 3 12
1532264635355436 2 1 8 -1 -1 -2 1 4
1532264635385356 -8 -12 -11 -4 -2 2 1 7
1532264635404305 -2 -27 -40 -9 -4 -4 -4 -5
1532264635438214 -9 -14 -13 2 2 -2 -2 2
1532264635470128 0 -19 1 0 6 3 3 12
1532264635492070 1 -37 2 -1 -8 -1 3 11
1532264635521990 -4 -7 -11 -46 -16 -7 -3 -10
1532264635551910 -2 5 -1 -7 0 0 0 -7
1532264635566878 0 3 13 -18 1 -1 -3 -3
1532264635583825 -4 -11 -16 -10 -1 1 -1 -5
1532264635605766 1 -32 -36 4 -3 -2 1 4
1532264635641671 3 2 -28 -7 -4 -2 0 4
1532264635664609 -4 -25 -33 15 10 3 2 0
1532264635679571 1 -3 14 -1 -1 -2 1 1
1532264635701510 1 -15 -2 -31 -17 -2 0 5
1532264635731430 -4 25 16 28 14 8 2 4
1532264635761350 -2 9 12 -8 -6 -5 -3 -3
1532264635784289 5 8 -9 12 5 -1 1 3
1532264635798252 0 5 -1 -27 -17 -8 -3 -1
1532264635822188 -3 -9 6 9 0 1 -1 -1
1532264635844129 -6 -9 -5 -15 1 2 1 3
1532264635858092 0 1 9 4 6 1 1 -2
1532264635874049 -1 -6 -30 -40 -8 -2 -2 -4
1532264635911948 1 32 6 -5 -2 1 0 0
1532264635934887 -2 11 -4 6 3 1 -1 -1
1532264635971788 -3 -14 -54 -17 -7 -3 -3 -5
1532264636024646 -13 5 30 -6 -3 -17 -3 -1
1532264636067532 8 -3 11 1 -5 4 1 4
1532264636085484 -4 22 5 5 1 5 -1 -16
1532264636121387 -6 15 16 -4 1 4 0 -1
1532264636160283 2 6 -3 5 3 2 -3 -3
1532264636182225 12 1 -12 -1 19 5 -1 3
1532264636188209 -8 -11 25 -5 -3 -2 -2 3
1532264636218134 7 23 26 7 -2 2 3 13
1532264636264006 -10 1 -7 5 -9 -2 2 -9
1532264636286945 5 -8 -15 -7 -4 -1 1 -8
1532264636323847 -1 -63 14 -1 4 5 1 5
1532264636346785 -9 -28 2 -3 -5 12 -7 -29
1532264636384684 -2 1 6 0 14 -3 1 -4
1532264636406633 -6 -4 4 0 1 1 0 12
1532264636451505 -12 -17 0 0 8 -3 -3 -10
1532264636465467 10 9 9 -4 0 0 2 4
1532264636480427 3 17 -6 2 -1 -4 0 -1
1532264636504364 5 4 6 3 3 -6 -6 -4
1532264636540267 -3 -7 -4 -2 -4 0 -1 -3
1532264636624047 12 -20 16 8 6 6 0 -8
1532264636691862 -5 11 -13 -11 -1 -1 1 -4
1532264636728763 -19 -1 -4 -3 5 4 4 -11
1532264636842459 35 27 21 10 4 4 0 39
1532264636894321 2 26 8 41 6 0 1 -3
1532264636954161 8 19 20 -2 -5 -5 -7 -1
1532264636969121 2 4 9 -4 3 1 -1 3
1532264637019985 4 5 13 1 -2 1 1 -2
1532264637028960 -3 0 6 -8 -3 -2 0 2
1532264637066859 3 -12 2 24 7 3 -1 2
1532264637096785 3 2 28 8 2 1 -1 0
1532264637117723 -1 -18 -20 -2 6 2 2 2
1532264637171579 3 -20 -91 -18 3 1 0 -2
1532264637200502 0 1 -42 -4 -1 -2 -2 -4
1532264637230422 -11 -21 23 110 23 4 2 1
1532264637260342 -7 9 -12 -87 -11 -4 -1 -6
1532264637290262 -33 10 10 18 6 -1 5 -2
1532264637336139 -9 -2 12 -43 -11 -1 -5 -1
1532264637358080 -3 5 -7 -40 -4 1 -2 -1
1532264637368054 -4 -17 -6 -11 -2 6 2 -2
1532264637417920 -7 -27 10 16 3 12 1 -2
1532264637451830 10 -6 -32 5 3 3 -1 2
1532264637493718 1 14 11 -9 -7 -1 -1 2
1532264637584475 6 -30 -32 -29 -2 -3 -2 3
1532264637599435 3 5 -26 13 0 -2 0 4
1532264637637334 -16 0 -18 -14 -3 3 -1 -8
1532264637652293 6 3 0 31 10 -2 -1 -1
1532264637742060 -11 -19 36 10 1 -13 -1 -2
1532264637786934 -4 10 -28 7 2 0 -1 -5
1532264637839821 -1 5 4 -23 -5 5 0 3
1532264637876693 14 -14 -79 -14 -4 -4 -3 0
1532264637914592 -9 11 59 22 5 22 2 -3
1532264637951494 -8 -2 -4 -12 -4 -4 4 -6
1532264638019312 -21 3 1 -10 -4 -9 -6 -4
1532264638079152 5 -1 -6 -2 -3 19 9 -4
1532264638153952 12 -2 0 3 -1 7 -7 13
1532264638259670 9 2 0 4 2 -25 -13 27
1532264638356411 0 6 8 1 -3 -12 -28 36
1532264638409270 -1 -4 -6 26 6 -4 -22 4
1532264638505013 4 9 4 -7 1 -4 15 -2
1532264638550890 -25 -1 -7 -4 3 46 -5 -41
1532264638610731 26 17 8 4 2 40 18 31
1532264638670571 3 7 7 5 5 -1 12 -4
1532264638710464 1 -2 -5 1 -1 -8 -17 4
1532264638875024 7 0 7 -4 19 8 7 1
1532264638910927 4 0 2 -3 -3 2 1 -1
1532264639008667 5 -13 7 33 13 3 3 2
1532264639030608 -10 -69 -13 -35 -13 -4 -4 -4
1532264639128347 -2 45 57 1 -4 -2 -3 13
1532264639188187 2 9 78 -6 -1 -1 -2 -2
1532264639278944 4 -1 -19 -8 -4 -2 0 -1
1532264639293904 1 -4 -5 13 3 1 -1 -2
1532264639339781 -2 1 -25 -10 -3 -5 -2 -1
1532264639353744 -3 -38 -36 -4 -1 0 1 -1
1532264639375693 0 -1 -55 0 -3 -1 -2 -2
1532264639393638 -5 -16 -73 1 -1 2 -1 -1
1532264639415579 0 2 -43 3 4 1 1 1
1532264639454474 -18 28 2 6 -2 -8 7 -62
1532264639489381 -16 77 0 6 1 8 -16 -27
1532264639519301 11 -3 109 101 69 4 23 16
1532264639534261 4 14 19 -26 -10 0 -7 -15

1532264639571162 -4 -6 -73 -58 -31 -9 -2 -16
1532264639617090 -20 -25 -84 -14 -7 -6 -3 15
1532264639631052 13 -36 -50 -1 9 46 14 9
1532264639667954 11 13 91 2 -4 57 -16 -3
1532264639684908 28 71 -21 -9 -11 63 46 99
1532264639728791 -6 12 -11 -16 5 -10 -1 -23
1532264639759709 -7 -23 -58 12 -1 -29 4 -6
1532264639790627 -9 -2 44 30 4 -9 -7 -17
1532264639796610 1 1 42 9 5 -1 -5 -9
1532264639834509 -16 -1 21 103 46 8 5 -3
1532264639847474 3 -4 9 -23 -10 -6 0 -1
1532264639870412 -1 -23 20 9 11 -2 -3 -5
1532264639894348 0 3 5 -41 -13 -7 -4 -4
1532264639916289 -15 3 16 -8 -7 0 0 -3
1532264639931250 8 8 4 -13 -4 -4 -3 -2
1532264639954189 6 31 -8 -7 7 -3 4 0
1532264639984108 -1 3 3 -9 7 0 -2 0
1532264640022007 0 -3 1 -5 -9 -5 -3 0
1532264640035969 -1 -12 -5 -7 -1 0 0 0
1532264640050929 -5 -57 -6 9 3 4 2 2
1532264640073868 -1 17 -10 -4 8 -4 -2 0
1532264640087831 2 30 17 -5 -8 -1 1 0
1532264640110769 -1 -6 -9 0 1 -1 -1 2
1532264640134706 1 12 37 0 -12 -9 -2 -2
1532264640156647 1 42 -6 7 2 3 -2 -1
1532264640193548 3 -1 40 -1 4 -1 0 -1
1532264640200530 0 -5 127 14 2 0 -1 -13
1532264640218482 1 -18 7 7 4 -2 0 4
1532264640254385 -3 -15 9 -5 -4 3 1 3
1532264640276327 -1 10 7 3 5 2 2 -2
1532264640298268 -3 2 -15 1 3 1 0 4
1532264640313228 0 15 8 1 7 -2 -2 -1
1532264640337164 2 -3 4 1 -5 -3 -2 0
1532264640351127 -2 -7 -1 -5 -5 -2 -1 0
1532264640374067 -1 -6 -3 -4 -6 -2 0 0
1532264640397004 -1 -20 1 0 6 1 0 -2
1532264640410966 0 7 -5 5 12 5 0 -1
1532264640433906 -4 -21 9 22 -15 -1 0 -3
1532264640456844 0 4 -34 -38 -21 -8 -5 -3
1532264640479783 0 0 5 -2 2 -7 -4 0
1532264640516684 -7 -9 -10 2 6 -1 -3 -2
1532264640530647 1 4 7 58 0 -6 2 2
1532264640561563 -1 5 10 -4 -30 -1 -2 0
1532264640576525 -1 -7 -5 -31 5 -2 -3 -1
1532264640599462 -4 -4 -29 -17 -19 -11 -2 -2
1532264640636364 0 2 -26 -16 45 6 1 3
1532264640650327 0 2 -23 -15 0 -1 0 -2
1532264640696204 2 0 -35 1 -10 -15 3 7
1532264640734103 2 -5 10 8 12 -6 0 1
1532264640778983 9 12 18 8 -3 -5 -2 2
1532264640802921 3 -12 -116 18 4 1 2 1
1532264640818876 -1 -5 -56 -10 -10 -3 2 2
1532264640860764 2 31 79 0 4 2 -2 1
1532264640878723 -6 -21 21 10 2 -1 0 -2
1532264640899660 -7 -34 -7 -7 -6 -2 -2 -5
1532264640927585 7 11 -2 3 15 8 4 0
1532264640950523 7 19 -53 8 1 0 -2 2
1532264641034299 -11 -28 -56 -13 4 2 1 -1
1532264641070203 4 -13 0 -14 -11 -3 9 69
1532264641117078 -8 9 30 1 1 -5 -1 -9
1532264641146001 0 -15 -64 -26 -6 8 5 22
1532264641182902 -3 20 69 0 -2 -5 -3 -2
1532264641221799 -7 -11 -18 -9 -11 -8 -4 -15
1532264641259697 4 -7 -39 2 9 7 4 11
1532264641356438 12 16 -26 9 12 3 1 -3
1532264641453179 10 -38 0 0 7 3 0 10
1532264641484097 5 4 20 5 8 3 -1 -17
1532264641520001 -7 -10 -19 -8 -1 -11 -3 -17
1532264641581835 -14 -23 4 0 -5 -1 -4 -20
1532264641701516 -30 33 3 4 -1 -17 -4 -56
1532264641776316 0 15 2 -30 -9 -4 2 -7
1532264641799254 13 -36 -9 68 16 -2 4 46
1532264641829174 10 -37 -14 1 -6 17 2 -4
1532264641859094 23 -10 -35 -6 -1 -26 -1 9
1532264641909958 0 8 9 4 3 -18 1 36
1532264641934892 -24 60 -3 5 -2 -5 8 25
1532264642001713 -1 25 28 -4 4 4 6 -13
1532264642015676 14 -23 4 -2 -3 -7 1 36
1532264642046593 -5 11 -4 0 -1 3 -5 9
1532264642061553 -6 18 -2 -6 -3 -1 -3 -5
1532264642101447 -15 -10 -43 1 -2 8 -3 -49
1532264642112418 5 -15 5 5 2 3 2 0
1532264642150315 8 -20 -4 8 1 4 1 17
1532264642181233 5 -13 -20 -4 -4 -1 -1 -18
1532264642188214 1 -4 5 2 0 2 2 -4
1532264642242070 -4 4 15 -83 -26 -1 -7 13
1532264642264012 0 27 -37 12 15 9 7 11
1532264642301910 11 -25 -11 15 2 -3 -2 7
1532264642315878 -1 -1 4 3 3 1 0 -5
1532264642368731 0 20 34 12 5 -3 2 10
1532264642375713 -4 1 -41 3 -4 -3 -2 -6
1532264642408641 -3 -1 -3 7 5 1 -2 -6
1532264642421590 -3 -1 -3 2 0 3 1 2
1532264642444529 -8 -8 11 -28 -21 -6 -4 -3
1532264642481430 -1 14 -1 -3 -9 0 -2 -2
1532264642505366 -4 -5 -1 11 6 2 0 0
1532264642519329 -9 -17 4 -14 -6 -4 -1 -3
1532264642541270 4 1 -7 -49 -5 3 -2 -1
1532264642555233 4 5 8 9 -9 -5 0 1
1532264642579169 -4 -25 -5 1 0 -2 0 -1
1532264642602107 -9 -8 -6 -4 -14 -2 -1 -5
1532264642639008 1 -4 38 19 -8 -6 -1 0
1532264642683889 2 -20 10 -2 6 0 0 1
1532264642698849 0 2 -46 0 7 3 3 3
1532264642721787 -8 4 4 -6 -4 -3 -2 -3
1532264642744726 13 -8 -23 -5 -2 -3 -1 2
1532264642765670 12 15 18 -17 -3 -1 1 0
1532264642783622 -12 -43 40 -1 4 1 1 -2
1532264642804566 -4 -34 -7 -14 -6 -6 1 0
1532264642841467 0 -3 -42 -1 -2 15 1 -6
1532264642855430 6 43 0 -7 -1 15 8 11
1532264642885350 0 9 -10 3 6 102 8 1
1532264642903302 7 43 -2 -4 -3 -35 -2 2
1532264642926240 0 15 18 -9 -10 -13 -4 -6
1532264642945190 -3 -62 28 -5 -6 -2 -1 -4
1532264642984086 -11 -23 10 14 23 -6 -1 8
1532264642999046 2 33 -16 -23 -12 10 0 2
1532264643021985 -7 22 33 -3 -12 5 1 -3
1532264643043926 -2 9 28 -12 26 5 2 -6
1532264643066865 1 -13 26 -1 -9 5 -4 -4
1532264643082824 1 -3 -45 -9 -7 2 3 0
1532264643103766 8 -4 6 64 0 3 1 1
1532264643117728 1 -4 3 -22 26 7 2 2
1532264643140668 8 16 16 -8 -16 -2 -1 -1
1532264643177569 4 8 15 12 -10 -3 -3 -6
1532264643201505 -12 -1 -6 -7 1 0 0 -3
1532264643237408 7 -62 -3 -7 -4 -31 -58 3
1532264643322181 -3 -91 11 10 2 4 13 3
1532264643358086 3 41 5 6 1 -3 -1 -2
1532264643403963 0 6 0 3 3 5 14 -3
1532264643456822 -21 4 -4 -4 1 -2 -3 -6
1532264643477766 -6 -34 4 5 3 12 5 2
1532264643523643 11 12 -2 4 3 3 -7 5
1532264643546582 3 5 2 2 1 0 1 12
1532264643584480 -4 -7 -12 -14 -1 3 4 3
1532264643644320 1 3 14 -11 -5 -4 0 -1
1532264643667264 -2 13 8 7 -1 -3 -3 -2
1532264643718122 1 4 -1 -13 -2 1 0 -1
1532264643741061 5 -5 4 -12 -1 0 0 -1
1532264643837803 2 5 20 -14 -11 -1 -1 -2
1532264643897643 -3 -17 19 -22 0 4 1 1
1532264643906624 -1 -5 20 -30 -4 -1 -1 -1
1532264643966459 5 -36 -38 16 8 3 3 4
1532264643981419 0 -3 -48 -21 -2 2 3 0
1532264644004358 1 11 -16 -1 -2 -4 -4 -5
1532264644041259 -1 8 -36 38 6 2 2 0
1532264644055222 6 -7 -10 -77 -18 -7 -5 -2
1532264644094118 3 -28 12 -6 -5 -1 0 1
1532264644132017 -19 3 4 -32 7 4 4 -3
1532264644185873 -12 0 18 -4 -7 -4 -1 -5
1532264644206816 -1 -6 -39 1 -4 6 1 -4
1532264644244715 7 16 54 7 1 12 1 3
1532264644327493 -9 19 108 -26 -1 -6 -1 -7
1532264644357414 -4 -13 -16 -4 -2 9 -3 -3
1532264644470112 2 6 41 6 1 -3 -2 -1
1532264644550895 21 -1 -35 3 2 -2 -1 2
1532264644595776 5 -22 -8 -6 -2 -1 1 -3
1532264644641692 1 4 -20 -6 -7 2 1 -1
1532264644745415 -10 0 -16 -1 0 -4 -4 -21
1532264644778327 5 -12 -18 0 -1 -14 -2 19
1532264644813234 -11 -6 -14 -2 -2 -9 4 30
1532264644854124 -3 4 -6 -5 -2 3 2 -15
1532264644868086 -12 -1 5 1 -3 -92 -18 -83
1532264644970812 9 1 5 -1 -6 -26 -13 -37
1532264645069548 -4 -6 -4 2 5 36 24 -6
1532264645091501 -1 14 27 4 4 -9 -1 -6
1532264645143366 3 -12 9 -7 -1 -19 -15 -18
1532264645249068 -1 -7 43 -10 -4 -6 -4 1
1532264645263031 -3 -20 -19 -2 -2 -2 7 41
1532264645308908 13 8 -7 -1 -1 -3 3 -9
1532264645368748 13 -2 -8 4 0 -7 -1 -14
1532264645442550 -2 4 4 0 2 3 -3 -1
1532264645488428 -3 8 10 2 2 1 -1 -1
1532264645526326 -2 1 0 -3 -4 -2 -5 0
1532264645586166 -6 1 2 2 12 4 -5 -4
1532264645633041 6 1 -2 2 15 -3 -1 -3
1532264645646006 -4 -3 1 -12 -16 -6 -1 0
1532264645705846 13 1 -6 -32 -18 -4 4 4
1532264645766683 3 -36 -2 3 -5 -3 -3 -1
1532264645788625 0 18 -37 -7 0 -2 0 -1
1532264645848465 -5 -23 7 -6 2 2 0 0
1532264645908316 4 -1 -69 1 2 4 2 2
1532264645946204 -5 5 29 -6 -4 -6 -2 -4
1532264645984133 0 -31 -1 0 -5 -4 -3 -2
1532264646051950 -2 7 12 2 1 -1 0 1
1532264646112789 -4 -12 -43 -26 -6 -1 -1 -1
1532264646118773 5 22 30 -7 -1 -1 1 3
1532264646156672 5 -32 -17 16 11 6 3 6
1532264646171631 0 -21 -22 4 2 -1 -1 -1
1532264646186591 -5 -32 -22 -21 -8 -5 0 1
1532264646219511 30 7 -12 12 7 -11 -7 -9
1532264646239450 -14 -60 -37 -5 -6 33 -47 25
1532264646268373 -18 -45 8 -2 -5 1 21 -9
1532264646291311 0 14 31 -63 -22 12 12 6
1532264646328212 2 6 64 -11 -15 4 1 -1

1532264646348159 9 -6 -63 -84 -16 -12 10 10
1532264646361125 -8 -4 -14 25 8 6 5 -3
1532264646391045 -4 0 -12 28 11 10 6 -1
1532264646411988 1 -16 82 27 7 -17 32 7
1532264646440911 -49 12 -30 8 6 -55 65 -63
1532264646471828 3 -40 -75 6 6 11 -8 17
1532264646503743 -1 4 40 -20 0 3 -16 13
1532264646578550 -15 -17 -1 23 0 -2 -12 -6
1532264646606469 -6 8 -12 10 4 -1 -6 -1
1532264646622426 -2 -1 -52 -9 5 0 -5 -5
1532264646651348 -2 6 6 10 -5 -4 -3 -2
1532264646665311 -1 1 18 -5 9 4 1 0
1532264646688259 3 -8 -13 -1 -9 -6 -2 -2
1532264646712185 -5 5 -5 43 -2 2 0 0
1532264646742105 0 0 -15 -37 -13 -5 -3 -4
1532264646757069 4 8 -5 12 2 1 -1 0
1532264646808926 -1 2 -7 1 2 -3 -3 0
1532264646832864 -3 -5 -7 2 5 -1 1 0
1532264646891706 1 8 -1 2 4 2 0 0
1532264646921626 -4 -28 -13 -2 -1 -3 -2 -3
1532264646959524 -3 -44 1 1 11 3 2 2
1532264646974485 -2 -2 -14 0 -4 0 1 -1
1532264647011387 -1 0 -12 -4 -3 0 -1 -4
1532264647034325 -3 23 92 1 -6 1 -1 -1
1532264647071226 0 7 -1 -1 9 3 -4 0
1532264647108128 0 -4 0 5 -13 -5 -1 -2
1532264647117103 -3 -14 7 -6 0 -1 0 -2
1532264647161983 -1 -16 -5 -1 1 1 -1 0
1532264647176942 -1 -5 2 -7 4 -5 0 -3
1532264647199882 -1 -4 -21 -25 -11 6 -1 0
1532264647215839 -1 2 47 -19 -10 -12 -3 -3
1532264647236783 0 -11 -7 -3 -6 1 2 0
1532264647274686 -1 1 -11 -6 -11 -4 -1 -1
1532264647296623 -1 -1 -16 12 5 -3 -3 0
1532264647311583 1 18 17 -2 10 -9 2 -1
1532264647334521 1 -11 14 20 -18 -8 -2 -3
1532264647347487 -4 -4 6 -18 3 1 -2 -2
1532264647356463 -7 -16 -42 5 -1 -12 -1 0
1532264647380399 6 17 -1 -15 -10 -16 -2 2
1532264647403348 -3 -5 34 29 -7 -11 1 -1
1532264647432261 -1 9 19 -11 -10 1 -1 -3
1532264647468164 2 4 1 15 4 -3 0 1
1532264647477140 -8 -19 -25 -12 -13 2 -4 -4
1532264647536980 0 -18 -47 0 11 4 0 1
1532264647573881 -2 -22 -50 -5 0 -3 -3 1
1532264647610783 1 12 -24 -3 6 6 2 1
1532264647695559 -3 -10 -5 1 -7 -3 -6 -2
1532264647731460 2 -13 -62 2 0 -4 -1 9
1532264647769359 -18 -32 -34 -6 4 2 1 -3
1532264647776340 -17 -10 8 -12 9 17 5 -2
1532264647837177 -1 1 106 20 -1 1 -2 15
1532264647850143 29 34 27 10 1 -13 3 6
1532264648084516 0 -18 -19 -8 0 -10 -3 -21
1532264648129396 -1 8 -5 3 -5 -3 0 -5
1532264648259049 0 -10 -1 3 0 0 -1 3
1532264648296948 13 19 3 0 0 -2 -6 -2
1532264648346814 27 18 -6 -1 1 -2 -2 39
1532264648370761 -9 36 6 48 10 2 0 0
1532264648416628 -5 -25 2 -12 -5 -1 -2 -12
1532264648461508 0 1 -3 -5 -1 -1 -3 11
1532264648510377 -3 4 12 -6 -5 -6 -4 16
1532264648556254 22 -5 11 5 4 -11 -2 24
1532264648570217 -17 0 35 3 2 3 5 -2
1532264648625071 -13 55 9 3 4 5 1 -13
1532264648647012 4 -39 -9 -5 -3 11 -2 -4
1532264648661972 5 -14 -12 -3 -2 8 3 -1
1532264648698873 -16 -13 26 4 -1 27 -8 -48
1532264648721811 5 -9 -43 -9 -3 -19 -3 13
1532264648775668 4 -7 -65 -3 -5 2 2 9
1532264648798606 -15 17 -22 3 5 6 0 -4
1532264648819551 7 -11 -14 -2 1 -6 3 10
1532264648880388 -17 -17 5 13 4 2 1 -34
1532264648887369 -9 -12 1 -44 -10 -3 -5 0
1532264648911305 -9 -78 -22 19 9 2 0 -3
1532264648939230 -9 -47 -91 -20 -4 -3 -1 0
1532264648953192 -2 -13 1 4 0 -2 -1 3
1532264648977129 -3 -10 8 -21 -11 -3 7 15
1532264649013033 -4 -15 -21 15 9 4 0 4
1532264649058911 -2 0 -12 -1 -5 0 6 -13
1532264649103790 -2 -3 7 -1 -10 -2 -3 0
1532264649179587 -14 -14 0 -8 9 1 -3 -2
1532264649201529 2 11 5 -16 -12 1 5 -2
1532264649239427 2 19 -5 -8 0 -2 1 -1
1532264649253391 -10 -11 9 2 1 0 -8 -4
1532264649262366 -2 -4 1 -2 -2 2 7 1
1532264649286302 15 32 26 -13 -3 -8 -3 0
1532264649301262 -9 -20 -43 0 12 2 4 0
1532264649345144 -2 16 20 -3 -9 0 3 -2
1532264649367095 -3 -33 1 -2 -5 0 1 0
1532264649418948 10 14 -8 4 0 -3 2 -9
1532264649432910 -2 56 0 2 0 -9 -15 -3
1532264649455849 3 80 18 7 1 1 -4 -18
1532264649492750 -5 38 16 -8 -5 -8 0 -20
1532264649515696 -11 -36 0 -4 11 61 10 -7
1532264649522670 -1 -40 -16 0 -1 9 -2 2
1532264649552600 5 15 7 19 2 -9 1 11
1532264649582510 -10 14 -18 -6 -3 -3 -2 -25
1532264649612430 -4 1 4 -16 0 -3 7 12
1532264649636366 -7 1 -6 -1 -1 -14 -4 4
1532264649659305 -11 -92 -21 -4 3 7 0 -8
1532264649681246 10 13 -8 2 10 -1 -2 -3
1532264649720142 21 11 -11 -2 -4 -2 -1 5
1532264649742083 -7 3 -15 -5 -1 4 2 -3
1532264649755049 -19 38 -7 0 3 -5 -3 2
1532264649801924 1 6 -13 2 1 3 5 0
1532264649823876 10 24 -6 -23 -11 -4 -1 5
1532264649838825 16 42 14 14 2 3 -1 7
1532264649884702 6 24 14 10 2 -2 -5 -4
1532264649959502 14 15 10 6 2 -1 -4 -3
1532264650042280 3 -31 -25 -7 1 2 -4 -9
1532264650072201 -1 1 16 6 3 4 13 10
1532264650094142 3 -14 10 -1 1 -2 0 8
1532264650102120 6 3 1 31 5 1 -5 -6
1532264650124063 -2 -3 -6 6 -1 1 2 -25
1532264650161960 3 6 -7 5 -2 -4 -4 1
1532264650198862 6 14 17 61 10 0 1 -2
1532264650319539 3 1 9 4 -2 -4 1 -1
1532264650341481 -1 -7 -6 -7 -4 1 1 0
1532264650385364 1 15 25 20 3 -3 1 2
1532264650415283 -6 -39 -11 -24 -7 -4 -3 -2
1532264650438222 5 20 3 47 11 3 3 5
1532264650445203 -7 -19 -32 14 -3 0 -1 -5
1532264650492079 0 -6 30 37 10 1 0 -1
1532264650505043 6 26 51 20 7 3 0 2
1532264650530974 -2 0 -13 -3 -5 -3 -3 -5
1532264650551918 -3 -30 -34 15 5 -1 2 -1
1532264650566878 -3 -10 -32 -1 0 -2 -1 0
1532264650590814 -7 -49 -45 -11 0 1 1 0
1532264650618739 14 9 18 -24 -3 0 -1 1
1532264650663619 1 43 -42 -30 -7 -5 -1 -1
1532264650680574 -2 -12 -32 34 3 -1 2 1
1532264650756387 -8 20 29 -26 -2 -1 3 2
1532264650807248 3 -9 2 -7 -6 3 -1 -1
1532264650829176 -1 -12 1 10 2 -1 -1 -2
1532264650882035 -9 -30 -51 2 0 1 3 1
1532264650903976 6 5 -5 -6 1 1 0 0
1532264650917939 0 15 26 20 6 -6 -3 -2
1532264650940887 -1 3 2 -8 -8 -9 1 1
1532264650956851 4 -6 45 14 5 2 -2 -5
1532264651015678 1 1 63 -14 -2 -10 -3 0
1532264651106435 4 -4 26 31 7 5 2 3
1532264651167272 4 0 6 -4 -3 -16 -5 8
1532264651286953 -3 -11 -29 -4 -2 -4 -1 2
1532264651423587 -11 -6 -3 -4 -3 -6 -1 -40
1532264651460503 -11 -11 -3 1 3 -14 -2 -6
1532264651474454 -22 0 2 -4 -6 -10 -14 -70
1532264651526312 22 4 7 4 -1 -40 2 45
1532264651586152 3 -7 -13 -4 -6 0 -10 10
1532264651624065 1 -24 -17 -4 5 32 6 -5
1532264651683891 -7 14 17 5 1 -5 -1 -66
1532264651706829 -6 -4 -9 3 6 5 7 -17
1532264651765673 -7 9 -44 -37 -7 -3 2 13
1532264651826509 16 39 21 15 -3 7 5 -1
1532264651984089 4 -2 11 1 4 5 -1 -5
1532264652006029 -7 -5 9 -2 0 -1 1 -13
1532264652043928 -13 -17 -13 -2 1 25 5 24
1532264652065890 -11 -3 5 1 -5 -10 3 -15
1532264652103789 6 -1 -6 -1 -2 -2 -2 -8
1532264652125730 -4 -2 1 -2 -2 -3 2 6
1532264652200531 4 -1 -2 1 -4 -26 -17 -5
1532264652283309 -1 8 8 28 -1 -6 1 -1
1532264652322206 -3 -63 -1 -37 -15 -5 0 -1
1532264652403987 -8 -78 -42 0 2 4 -4 -1
1532264652456849 -1 -19 22 -8 0 2 2 -2
1532264652509704 -2 -43 1 -3 -3 2 3 -1
1532264652545608 4 14 7 7 -3 1 -5 2
1532264652583507 3 -9 -3 -15 -2 -2 -1 0
1532264652643347 2 4 -14 -2 3 3 2 0
1532264652666285 7 29 47 1 1 2 0 -2
1532264652764024 -7 0 11 3 -1 0 -4 -3
1532264652920604 2 55 37 14 -1 16 -3 -5
1532264652951522 -6 -38 -128 -36 -15 4 -9 4

1532264652998397 2 -35 9 4 3 3 -3 11
1532264653050258 13 34 -52 -1 2 1 7 -34
1532264653072199 27 -17 -25 7 15 -31 -20 71
1532264653106114 -22 -20 38 1 -6 -5 -24 17
1532264653131042 0 -35 -20 17 11 -8 -5 15
1532264653153981 -6 -7 -105 -86 -26 -9 -8 -12
1532264653168941 -1 3 14 12 1 1 -5 0
1532264653182904 -2 -4 0 11 6 0 -2 7
1532264653207837 3 10 19 -5 -7 4 15 2
1532264653228781 4 4 4 -16 -2 -1 -7 -5
1532264653242743 0 4 29 -4 10 3 0 -1
1532264653289618 -8 -9 -37 -35 -21 -7 -4 -1
1532264653328524 8 5 6 -28 -3 2 -1 8
1532264653350456 2 1 -8 -12 -5 -2 -1 2
1532264653394357 -4 -5 4 -16 0 1 0 0
1532264653418291 7 16 -5 -5 -1 1 0 3
1532264653433234 -7 -12 -5 -10 -4 -3 -1 -2
1532264653492077 -8 -10 -10 -1 4 1 -1 -8
1532264653528978 4 -6 -72 -15 -2 5 3 2
1532264653551916 3 12 30 30 -1 1 1 6
1532264653565880 0 -3 -48 -4 5 -2 2 8
1532264653581851 1 14 -53 -13 6 2 -2 1
1532264653634696 1 -10 -6 -4 -15 -1 0 2
1532264653671596 0 12 26 -4 -1 0 -4 -3
1532264653694536 -1 -7 18 0 -2 0 -1 -1
1532264653770332 -3 -7 4 0 4 4 -1 0
1532264653808231 -2 -3 3 1 5 2 0 0
1532264653843138 1 1 19 -12 4 -1 -4 0
1532264653880040 0 1 -14 -3 -3 11 2 -2
1532264653919933 -3 -9 -20 10 -13 -13 -2 -3
1532264653940877 -1 -4 -21 9 8 1 -1 -1
1532264653963816 2 4 8 -16 -17 -7 -2 4
1532264653985756 0 -2 21 16 2 -4 -3 -5
1532264654030636 -5 -15 -31 -25 -31 -6 -3 -3
1532264654045596 1 0 9 -3 0 -2 -2 1
1532264654083495 2 10 38 14 12 1 0 -2
1532264654137351 -3 -3 -32 -21 -24 -5 0 -1
1532264654160290 -4 -2 47 -3 2 -1 -3 -2
1532264654197191 3 7 -21 0 8 1 1 -4
1532264654234092 0 7 0 -7 -1 1 -1 -1
1532264654264025 -1 4 26 -1 -2 -1 -1 -2
1532264654299916 0 -12 -11 6 -10 -5 -1 -2
1532264654362748 -3 17 97 -18 -3 1 0 -1
1532264654390675 4 -39 -37 1 1 19 2 1
1532264654436551 -6 -25 2 -1 -6 66 -14 -32
1532264654511351 2 -84 40 14 2 -34 5 22
1532264654563213 3 -2 11 8 6 5 3 -13
1532264654572189 2 -26 -35 -9 -18 37 0 12
1532264654594130 5 -42 -5 -6 1 -23 -5 19
1532264654668930 8 5 16 -1 -4 2 1 9
1532264654753712 2 -10 -7 -3 -4 3 3 5
1532264654774647 -46 45 -11 -2 -3 1 1 -33
1532264654917265 -4 -43 3 -15 0 -1 2 8
1532264654954167 5 -7 1 -5 0 -4 -2 36
1532264654968130 0 -8 -12 7 2 -4 -3 -13
1532264655096786 -5 -4 4 10 6 -2 -1 -3
1532264655147649 7 29 -20 5 -6 -30 -3 11
1532264655179565 -3 -16 -2 -3 -1 -14 -8 -3
1532264655233420 7 18 5 -3 -4 -17 -1 6
1532264655255361 -5 -4 12 -1 -1 3 -5 -27
1532264655284284 0 -7 -21 -4 -2 -1 -2 -17
1532264655291266 -10 6 23 -7 -2 1 -5 -10
1532264655305228 -20 -5 31 1 -1 -3 -4 -36
1532264655337143 16 17 -6 4 3 5 2 15
1532264655374046 -15 8 -1 0 -3 4 -2 -26
1532264655395986 2 -36 -11 -4 0 -1 2 1
1532264655421916 1 -15 67 9 3 -1 0 7
1532264655456823 4 57 10 73 30 10 6 30
1532264655470785 -3 -39 19 47 31 9 2 0
1532264655500705 7 11 18 -15 -2 0 -2 -14
1532264655525639 -3 -37 -50 16 0 -2 0 5
1532264655576503 -2 16 -2 -19 -3 -3 -1 -1
1532264655599441 0 1 -24 -10 -16 -2 -1 -2
1532264655638337 3 -4 4 -3 -1 4 0 3
1532264655650306 7 13 -3 -7 -12 -9 2 0
1532264655674243 -2 -9 4 -2 19 3 -1 -3
1532264655697181 -2 -13 -2 0 -8 -1 0 -5
1532264655735079 -4 -19 -21 -5 -8 0 0 0
1532264655757029 1 9 -16 1 0 -4 1 -1
1532264655816860 1 32 10 -19 -10 -3 -2 -2
1532264655830822 -3 -49 -52 0 5 1 0 1
1532264655861740 2 14 -6 -9 -4 -4 -1 0
1532264655876700 1 12 8 -4 3 0 -1 0
1532264655914599 7 0 4 25 3 -1 0 3
1532264655950503 7 -4 -8 -4 -2 0 -4 1
1532264655973441 -17 -33 1 3 -1 -3 -4 -21
1532264656034278 -18 -21 15 29 10 6 3 -2
1532264656056220 2 -20 14 -4 -5 1 3 6
1532264656130022 1 -18 -31 -14 -6 0 2 -3
1532264656153958 2 3 -18 -13 0 0 -2 -11
1532264656176898 -12 -24 -3 -9 -9 -3 -2 5
1532264656190861 -11 4 7 -4 -2 0 1 5
1532264656220780 5 48 -1 -2 1 2 6 19
1532264656238732 -7 -9 -19 -5 -7 -4 -4 -7
1532264656281618 1 22 6 3 7 2 -1 5
1532264656340460 7 6 4 2 5 3 1 3
1532264656453159 16 0 -3 -1 -6 -2 -1 8
1532264656477094 -11 -13 7 -5 -4 -4 -3 -7
1532264656507035 11 3 5 -5 -8 -2 -2 1
1532264656558876 -12 -32 -14 34 16 6 0 -2
1532264656596774 10 45 14 -9 -5 -3 -6 -4
1532264656679553 -11 -26 -20 -9 3 3 3 4
1532264656692519 -19 -37 -15 -6 1 4 3 -40
1532264656746374 -15 23 -5 -13 -5 -7 -6 -25
1532264656784273 6 2 34 14 5 0 1 5
1532264656837132 -13 -56 -21 -17 -8 -5 -2 -12
1532264656873035 -1 -2 0 -1 -2 0 4 5
1532264656926892 5 16 12 9 -1 -1 0 1
1532264656992716 -4 -9 -6 -5 5 -1 1 -2
1532264657062529 7 18 18 21 0 -2 0 3
1532264657099430 -1 1 10 14 -2 -2 0 -1
1532264657113393 10 6 -2 -9 -4 -1 0 1
1532264657159270 -4 -11 -11 -18 -3 0 2 -1
1532264657173233 2 26 63 -17 -3 -2 1 -2
1532264657189196 3 -6 23 -24 -2 0 0 4
1532264657242062 3 -3 -8 -22 -10 -3 -3 -2
1532264657256028 -5 13 63 40 -4 -2 -2 -1
1532264657278951 1 24 -33 50 4 1 -1 -1
1532264657301890 -4 -45 -19 -31 -10 0 0 -2
1532264657331810 13 -7 -20 -58 -21 -10 -5 -1
1532264657361729 6 -16 -28 -16 1 3 2 4
1532264657384667 -3 1 49 14 -6 -1 2 1
1532264657453484 12 15 22 17 6 -2 1 3
1532264657465451 3 -8 -88 33 5 2 2 3
1532264657504348 13 -16 13 3 -1 -5 -2 0
1532264657519308 -1 -7 17 13 0 1 0 0
1532264657542264 -25 1 17 12 6 4 5 -2
1532264657564188 25 -15 -35 -1 -1 10 -2 1
1532264657617046 -2 2 -4 -6 -3 -5 0 -2
1532264657631009 0 21 16 -1 1 1 1 1
1532264657653947 -7 1 11 -6 -1 -1 2 -2
1532264657721767 -35 11 -30 -9 5 4 1 -6
1532264657780609 10 -4 -21 1 -1 25 5 16
1532264657879345 -6 -6 -16 -1 1 -21 -4 -2
1532264657984065 9 7 52 -1 -1 -6 0 1
1532264658043904 -5 -8 -32 -5 1 -7 -1 4
1532264658194502 -9 18 -1 -1 0 11 18 38
1532264658231404 3 -10 11 -1 -3 -2 -24 -10
1532264658261324 9 -6 0 -5 -3 -7 -14 19
1532264658340114 -16 -6 -77 -2 -6 -3 1 -19
1532264658353078 -4 -3 22 0 6 -45 -5 -23
1532264658418902 -13 -5 -3 -2 -3 -26 -3 -6
1532264658448822 -41 -3 33 3 0 4 7 -29
1532264658472758 9 -1 1 -4 2 5 -2 20
1532264658561520 -2 -10 5 2 -1 -12 6 -1
1532264658598422 11 7 -13 0 0 17 1 16
1532264658667238 8 -8 10 -3 -1 -3 7 -9
1532264658703142 7 -3 10 -5 0 4 6 -8
1532264658800881 -1 -27 20 4 1 -8 -8 -13
1532264658823824 -2 12 8 5 1 5 -1 -12
1532264658837782 -1 -9 -40 0 -3 -1 -7 -4
1532264658897622 1 -23 -14 -2 -6 -11 8 -39
1532264658943500 -7 -2 29 3 3 -2 -4 4
1532264659041265 2 5 -5 -2 2 1 8 3
1532264659124017 -2 -4 0 5 3 0 -1 -1
1532264659146956 4 2 0 -14 -28 -3 -2 2
1532264659160917 13 -1 -1 5 6 -20 2 1
1532264659183857 1 0 -1 -3 -7 6 -2 3
1532264659266635 1 -6 -3 -6 -6 -6 -3 -2
1532264659303537 -8 3 -2 6 -5 -4 -5 -2
1532264659357395 -6 10 4 0 4 2 -1 -1
1532264659394294 -3 -14 15 -1 -7 1 -2 -1
1532264659409254 -4 -54 49 6 1 -5 -2 -2
1532264659469094 -6 -19 26 9 3 -1 -1 0
1532264659484059 3 14 -3 -5 -1 2 -2 -1
1532264659558854 1 -7 -25 30 11 3 2 -2
1532264659566833 5 38 60 0 4 -4 0 1
1532264659635648 -2 -5 -66 -1 -4 1 -1 -3
1532264659663574 -1 -17 -22 -9 3 2 1 -1
1532264659695501 4 5 -12 3 -1 -1 -2 1
1532264659746352 -10 -28 -120 0 3 1 2 -1
1532264659760315 -4 15 55 7 3 0 -2 4
1532264659807203 1 -14 -47 3 1 2 1 10
1532264659820155 -3 -9 -13 1 3 -33 27 75
1532264659843093 -40 17 -8 0 5 -1 -10 -29
1532264659852069 46 52 -35 3 9 33 -1 -54
1532264659876005 -30 39 73 8 0 13 -10 0
1532264659902934 -1 -34 39 17 10 12 1 0
1532264659935846 -6 -11 -2 24 5 -7 0 -8

1532264659948810 7 27 46 37 13 5 -2 -1
1532264659978731 1 -2 39 3 1 -5 -3 -12
1532264660000672 -5 7 -4 -12 -7 7 3 -5
1532264660040591 -1 49 45 -1 -3 -8 -3 -1
1532264660060537 7 -10 -28 -7 -2 4 0 8
1532264660110403 -3 -50 -19 1 -6 2 -3 24
1532264660115390 -5 13 -36 1 0 -2 -4 -13
1532264660131348 -2 -8 -2 3 0 1 2 -7
1532264660174233 -3 18 -24 -4 -3 -2 0 0
1532264660205149 -1 -6 10 -1 -2 -3 -2 -1
1532264660227091 1 16 34 2 -2 -1 -2 1
1532264660265987 -2 -12 -22 -5 -3 -3 0 0
1532264660325828 11 -23 -37 -11 -4 -4 0 0
1532264660377689 22 -8 81 15 7 15 -6 -6
1532264660391652 6 -116 58 0 4 -16 -37 -77
1532264660412598 -5 19 -54 -7 0 1 1 4
1532264660442515 -11 16 19 -42 -17 -20 9 0
1532264660481411 -4 4 32 31 8 -14 1 -12
1532264660489390 -2 -1 -34 -7 -4 -12 8 5
1532264660503353 -16 -5 -6 -2 3 -6 -3 -9
1532264660533273 1 -2 33 17 1 -2 4 1
1532264660557209 5 6 -5 36 15 0 4 3
1532264660596104 1 0 8 -6 0 5 2 5
1532264660632008 1 -2 21 80 42 11 5 1
1532264660646968 1 -5 10 -17 -13 -1 -4 -4
1532264660682873 3 16 0 -8 -8 -2 -1 2
1532264660705811 -9 -12 -5 -12 -3 -3 0 -1
1532264660728750 -5 -17 -14 -9 -6 -4 -1 -1
1532264660757673 0 1 11 3 8 5 -1 2
1532264660796568 -1 0 10 -5 2 11 1 -12
1532264660819506 1 -8 -11 -1 -8 11 2 -29
1532264660849427 -6 8 1 7 -7 4 0 -4
1532264660871369 7 -8 -73 -3 7 -6 2 10
1532264660909267 11 -3 80 0 1 -2 -3 20
1532264660923229 -2 6 13 5 4 1 0 0
1532264660946169 -3 -8 -53 0 -1 3 0 -1
1532264660992046 12 6 51 -6 9 1 -4 4
1532264661006016 -12 6 14 0 7 3 -1 -7
1532264661058868 -7 1 5 -3 -2 -4 -2 -18
1532264661074824 0 5 -3 -3 0 -2 1 -7
1532264661111726 2 -7 -1 -4 -9 -1 2 0
1532264661125688 2 8 5 2 5 -2 0 -2
1532264661171566 -3 -5 -3 1 -16 -4 1 -3
1532264661185528 -1 -27 -8 -3 4 2 1 2
1532264661209465 3 22 -26 -3 3 -3 -1 -2
1532264661231406 2 7 10 10 15 5 2 0
1532264661245368 -3 -6 -13 -50 -13 -3 -3 -1
1532264661276285 -2 -13 -41 -27 -30 -9 -4 -3
1532264661291247 -5 3 16 -13 -21 -12 -1 -2
1532264661329144 2 7 -6 16 1 16 -3 -2
1532264661352083 3 1 6 65 29 -6 0 3
1532264661365048 -5 -9 17 -31 -42 -15 -2 -3
1532264661411924 2 3 8 -19 1 -5 0 -2
1532264661464782 1 6 15 15 -13 -17 0 0
1532264661500685 0 -6 -4 -7 -9 -4 7 6
1532264661539582 0 2 13 4 -1 2 4 2
1532264661591443 -5 -6 6 4 7 3 2 -4
1532264661651283 -12 -35 -1 -16 2 -7 1 3
1532264661725086 3 28 40 16 0 -25 -3 -2
1532264661757001 -2 -11 -49 -11 -3 6 -4 -3
1532264661778942 0 25 30 -1 -4 -1 -2 7
1532264661831800 -11 -8 -27 -47 -8 32 -1 -10
1532264661891640 -4 3 -37 -2 -8 -34 7 3
1532264661981400 10 39 -21 14 9 17 9 44
1532264662033262 1 31 7 5 3 9 0 -1
1532264662071160 8 8 -2 1 -6 -34 -5 -4
1532264662153938 6 -26 -6 -2 -6 -4 -4 3
1532264662191838 6 -45 -8 -6 -4 0 30 -16
1532264662221758 -5 13 8 2 9 23 33 2
1532264662274633 7 7 10 -1 -3 -4 -2 19
1532264662287582 3 19 8 0 -3 0 -12 4
1532264662310520 12 85 -3 2 -4 -5 -11 -1
1532264662348418 -5 -5 5 6 6 4 0 6
1532264662432194 8 -27 -9 -3 0 0 -5 7
1532264662462115 -6 -7 13 -2 0 2 0 9
1532264662521954 8 -20 -15 -4 -2 -2 13 20
1532264662558856 -12 -30 24 -1 0 -1 -4 -8
1532264662596754 -3 -11 7 -8 -4 12 -2 -8
1532264662611715 -9 -19 -2 -2 -4 -14 -7 -15
1532264662634654 -7 9 7 4 1 1 0 2
1532264662647619 1 2 -8 8 2 -4 0 1
1532264662686514 -20 8 3 11 1 -1 0 -18
1532264662710451 -16 -16 -14 -4 0 -1 -3 -80
1532264662723416 16 -6 -3 -3 -1 2 18 27
1532264662761315 -5 3 -35 -3 -3 2 -1 37
1532264662768295 -1 -1 -10 3 -1 23 -7 -38
1532264662791237 -9 -5 -23 5 7 -5 6 -6
1532264662814173 -8 -28 1 -2 -3 -4 2 -8
1532264662828136 20 18 10 -1 0 -1 1 22
1532264662859053 6 2 19 -4 1 -3 2 -4
1532264662875011 -7 2 6 -1 -2 -5 0 -5
1532264662903933 10 7 -5 -6 -5 -6 -5 0
1532264662964772 -1 36 6 4 4 -1 -1 8
1532264662979731 -2 -12 14 22 0 1 0 8
1532264663039570 3 -11 -16 -22 -10 -2 10 2
1532264663076472 1 -1 -23 8 2 3 -7 -8
1532264663090437 1 5 -14 -3 -5 -4 -4 -1
1532264663136312 2 -14 -6 -12 -8 -3 -4 -1
1532264663167229 2 20 -15 4 1 9 1 0
1532264663196152 -2 0 -2 -8 -2 2 0 -2
1532264663256993 3 1 0 26 6 2 1 2
1532264663269955 0 -6 7 12 7 1 -1 -2
1532264663293890 1 1 0 0 -8 2 0 -1
1532264663316828 3 -8 -4 8 -1 -4 -1 -1
1532264663356741 3 30 7 8 -6 -4 -1 0
1532264663367693 7 17 5 0 -4 1 4 3
1532264663390633 6 15 -5 -3 1 1 0 3
1532264663429529 -2 -3 -2 3 -3 -2 -2 -3
1532264663450472 3 3 1 -1 0 -2 -2 1
1532264663474407 -7 1 -1 3 -4 1 4 -2
1532264663496349 9 37 7 12 0 -1 1 3
1532264663557186 -12 -47 4 0 0 1 -6 -14
1532264663570152 9 1 -32 -8 -3 -3 1 16
1532264663617027 -14 5 1 -10 -1 -1 -1 -10
1532264663629991 -2 19 21 1 3 2 17 10
1532264663659912 9 -7 2 -1 -2 2 -2 29
1532264663678862 -5 -1 -21 -2 0 0 10 -1
1532264663699805 -1 -14 -13 0 -1 0 6 -4
1532264663723741 -7 9 6 -4 -3 -1 1 -1
1532264663773608 8 -13 -6 -5 -1 1 3 -23
1532264663796546 2 10 -1 -4 6 1 -3 11
1532264663810509 12 9 1 6 3 2 -3 20
1532264663833447 -6 10 -3 1 8 -2 -3 -7
1532264663879325 -10 -7 3 -5 -6 -1 -1 -12
1532264663893288 1 -3 -12 -4 -8 -2 5 0
1532264663953128 6 -8 -8 -10 -5 -1 -4 -4
1532264663999005 0 -1 -7 9 3 0 -4 -2
1532264664021943 -16 -9 15 6 -2 -5 -3 0
1532264664036903 17 -6 -20 -3 1 2 0 6
1532264664072807 7 20 12 11 2 -1 -7 -4
1532264664142621 -4 -9 -4 -9 -5 -3 -6 -5
1532264664179522 -7 -9 -7 -15 -5 4 12 -3
1532264664217420 -10 -25 -17 -6 -1 1 3 10
1532264664276263 8 11 -3 1 5 6 -4 0
1532264664298205 8 30 24 2 -1 -2 1 -11
1532264664358045 -3 1 -6 6 3 1 -3 -1
1532264664440823 -7 -9 -1 -18 -4 0 -1 -2
1532264664515623 -1 -14 -2 0 0 -1 -1 0
1532264664561501 -2 2 0 4 2 1 -1 -2
1532264664591420 -1 3 3 -5 3 2 0 2
1532264664621340 -2 0 -4 1 -2 2 1 -3
1532264664643282 -1 1 3 1 2 -1 0 -1
1532264664667218 2 -1 -2 -7 -5 -3 -1 1
1532264664719083 0 -3 -2 -4 6 0 -2 -2
1532264664778920 2 22 -2 -2 -3 -3 -1 0
1532264664808839 1 18 1 0 -2 1 -1 -1
1532264664845741 0 8 6 0 -5 1 0 -1
1532264664898599 1 1 -29 0 -7 -5 0 -2
1532264664958440 -6 -71 -56 17 -1 1 -1 1
1532264664981378 1 -6 41 4 -6 -1 -2 0
1532264665041219 3 31 16 0 9 2 1 5
1532264665109037 4 8 20 10 6 1 1 1
1532264665161895 0 21 9 -1 -2 -1 1 -1
1532264665175858 -1 -10 0 -5 -5 -2 -1 0
1532264665235698 -1 -3 12 -19 -25 -9 -2 -5
1532264665289553 -1 0 4 36 5 -10 -4 0
1532264665296535 -1 0 -7 -6 -15 -9 -3 -3
1532264665349394 -14 -13 -18 -17 -12 -9 -3 -3
1532264665356375 6 6 7 17 12 19 2 0
1532264665402252 2 6 6 19 3 11 5 -1
1532264665438156 3 14 8 -11 3 0 -3 -1
1532264665498994 -1 -7 -6 -17 9 5 -1 -2
1532264665535908 5 -15 -16 -6 -20 -6 -1 0
1532264665581773 8 12 -4 2 -1 6 5 3
1532264665603714 -3 8 11 4 2 -1 3 1
1532264665641613 -1 -2 -10 2 -6 1 1 1
1532264665655575 -1 -12 16 -7 -5 -10 0 -3
1532264665701452 -3 16 21 -1 3 3 0 3
1532264665715415 12 -4 -36 -4 -4 -1 -2 -3
1532264665829111 -1 20 0 1 0 -6 0 8
1532264665872993 -19 16 38 2 -1 9 1 8
1532264665918871 -10 25 6 2 -1 5 4 0
1532264665941809 -1 -12 -24 -2 1 -6 -1 12
1532264665964748 -5 8 -1 8 1 6 -2 -7
1532264666001649 7 -2 9 1 -1 -6 2 5
1532264666040545 0 -4 -8 -8 -5 -4 -5 -7
1532264666061489 10 -14 -15 -3 1 -4 -1 -5
1532264666108364 -3 1 11 -8 -4 -2 -4 -7
1532264666121330 -19 9 -29 5 -1 0 0 -1
1532264666204109 -4 1 -23 4 3 -25 -4 3
1532264666331766 -15 -19 -10 5 1 -1 0 -3
1532264666337751 -27 31 42 1 1 3 1 1
1532264666384626 5 2 28 -10 -6 -8 -1 2
1532264666457448 0 -7 15 3 0 18 7 2
1532264666527257 3 -2 -9 -3 -9 -46 -19 -21
1532264666587084 -4 0 -4 0 2 -33 -12 -14
1532264666608029 -22 -2 -1 -1 2 -36 13 -10
1532264666632962 -17 6 10 1 1 -32 -29 -52
1532264666646924 -9 -7 -6 -3 -2 -6 -9 23
1532264666667867 21 4 8 1 1 20 30 23
1532264666706764 -29 4 -2 1 10 89 1 -57
1532264666735687 -7 -6 1 0 0 -11 -9 -43
1532264666828439 8 6 -8 -2 -3 11 2 15
1532264666840406 8 6 -4 0 -1 12 3 10
1532264666886284 -17 -3 -9 -2 -1 -12 -2 -14
1532264666900247 -2 -18 -4 -4 0 -7 10 -4
1532264666947121 5 -9 5 -2 -2 -6 -3 16
1532264666960087 8 -4 17 1 1 0 -5 12
1532264666984023 -9 20 0 5 0 -4 -5 -27
1532264667006962 -12 1 5 -3 -1 -4 -13 -28
1532264667019926 7 21 3 4 0 -1 0 40
1532264667043863 -1 0 -3 0 2 -2 -4 -9
1532264667066801 4 6 -27 -1 -3 2 10 4
1532264667080773 3 -33 -23 0 2 0 -8 -17
1532264667104700 -9 5 13 2 0 -3 -11 -19
1532264667126641 -15 -51 6 -3 -3 -3 -1 -58
1532264667140621 7 22 -5 0 -2 -5 -15 12
1532264667164540 3 9 0 0 0 0 6 0
1532264667186481 -1 -16 7 -4 -1 -10 2 -16
1532264667200444 6 24 -1 -1 -1 3 -1 -3
1532264667217398 -10 -5 9 2 1 1 1 -26
1532264667246320 -6 -4 -1 -2 1 1 1 -2
1532264667260284 -2 -7 -1 2 1 3 3 8
1532264667284220 -20 -2 -3 -1 -1 -1 -4 -5
1532264667307158 5 6 4 -2 3 6 3 5
1532264667320124 6 3 -1 -2 -6 -12 -1 14
1532264667366999 2 2 1 5 -5 -3 -1 5
1532264667388939 3 3 -5 9 6 3 0 3
1532264667403899 11 -3 -4 12 -10 -8 1 4
1532264667426839 0 -2 0 -15 -8 -7 -1 2
1532264667449777 -1 -2 -1 -45 -7 -3 -3 -3
1532264667486679 -5 -23 -7 -47 -9 -4 -4 -4
1532264667500641 -4 -1 -1 -5 16 7 2 3
1532264667509617 -1 5 -1 7 6 -7 -2 -1
1532264667546519 4 -13 4 12 -4 -1 -2 -1
1532264667569456 4 28 -12 1 3 -1 -1 -2
1532264667606359 1 35 9 9 -1 -1 -1 0
1532264667637276 -3 5 -8 -20 -6 -3 -3 -1
1532264667659217 5 -28 12 7 1 0 2 12
1532264667689136 -4 -17 -23 -1 -2 -1 -2 0
1532264667718060 31 36 -15 -28 37 15 3 6
1532264667748977 6 -21 10 -20 -8 -4 2 1
1532264667793857 0 -4 -57 6 10 16 0 -6
1532264667831756 2 8 -24 0 6 2 2 5
1532264667845718 -3 -9 -20 2 0 -4 0 0
1532264667890604 3 8 -9 13 4 -1 1 1
1532264667923511 -1 -13 -46 -2 -4 1 1 -1
1532264667935478 -5 2 -50 -2 -2 22 -15 64
1532264667974399 3 -11 -30 -1 -8 5 6 -48
1532264667996324 -7 4 -77 -10 -1 5 12 -17
1532264668028239 6 -4 39 -7 -3 10 -3 5
1532264668034223 4 -10 82 44 12 -12 7 4
1532264668051178 -2 -39 -64 -18 -3 -11 -1 4

1532264668090074 1 33 67 -6 -4 -5 -1 0
1532264668109022 0 -3 2 10 2 3 -1 -1
1532264668137945 -3 -4 21 4 3 5 -1 -1
1532264668168863 8 4 -50 0 1 3 3 5
1532264668182825 3 5 -4 3 0 -1 1 -5
1532264668206761 -1 3 -53 3 1 -5 -1 -2
1532264668252667 -26 12 -49 -9 -3 -15 -3 -30
1532264668259648 -1 -22 -78 3 3 -37 -13 -2
1532264668289568 1 36 41 4 16 21 0 -93
1532264668303536 15 -15 62 17 -6 -8 8 34
1532264668326470 1 -1 24 -19 23 12 -1 -1
1532264668350406 -4 95 66 13 -15 -8 -2 25
1532264668372348 -6 -38 -3 0 -42 -9 -7 -18
1532264668393291 3 -6 -14 -32 1 8 2 4
1532264668418224 0 3 7 2 6 3 1 -6
1532264668439168 0 0 -23 2 20 11 -3 -4
1532264668460112 -2 5 -6 -9 -9 1 -2 -4
1532264668513968 5 -4 -13 -6 -11 -6 -4 -1
1532264668543892 10 -2 -15 -9 25 9 2 3
1532264668589766 -6 11 -19 -67 -7 23 -4 -3
1532264668612705 3 30 11 67 111 51 8 4
1532264668634646 -2 -11 -2 35 -24 -17 -2 -1
1532264668671547 1 -15 -49 -10 7 -8 -4 -6
1532264668685509 5 -21 3 9 -9 -8 1 -8
1532264668709445 -8 50 9 -10 1 -10 -4 -10
1532264668731387 3 -15 2 -15 -44 -22 -1 1
1532264668754336 4 30 -57 -12 -28 -15 -2 -2
1532264668771280 -3 -12 4 -12 -6 1 1 -5
1532264668805189 -2 61 14 18 6 4 4 -11
1532264668852064 -21 -20 -12 -14 -10 -4 -1 -17
1532264668874005 -1 16 9 23 30 3 0 -8
1532264668890967 0 -10 -6 6 5 0 -1 -1
1532264668913899 4 10 13 -3 -1 -5 1 10
1532264668934843 -4 7 47 4 3 -8 -3 -10
1532264668955787 -15 -4 24 0 3 -3 -1 -13
1532264668973740 -3 0 -3 -1 4 2 0 -5
1532264669009642 12 -1 -18 -1 3 -5 -2 4
1532264669031584 -1 -1 -6 -2 6 3 2 6
1532264669045547 -5 0 4 -3 -3 -2 -2 -2
1532264669091424 -3 -1 -3 2 7 -1 0 -3
1532264669105386 7 1 -2 0 -4 0 0 2
1532264669129323 7 -2 0 -1 0 -2 2 13
1532264669151264 4 1 8 -1 9 4 -1 9
1532264669165227 -5 0 3 3 -2 0 0 -8
1532264669189163 -3 0 -1 -1 -2 1 -1 -4
1532264669212102 0 -3 -3 -6 -1 -4 -1 5
1532264669234043 -3 1 -2 0 2 -5 -3 -7
1532264669271941 0 1 -4 -2 11 12 0 -1
1532264669285904 -1 2 2 3 -2 4 1 -4
1532264669294879 0 3 -1 -8 -30 -10 0 1
1532264669315824 -1 2 0 -15 4 15 -1 -4
1532264669333780 2 6 2 23 55 1 5 2
1532264669354720 -1 -2 -12 0 1 3 -3 -5
1532264669382645 0 1 0 -7 46 17 -1 1
1532264669408576 -2 0 2 -15 -24 -2 -3 -2
1532264669414560 3 8 24 19 31 -7 1 1
1532264669435503 0 -1 4 28 -7 -7 0 3
1532264669460437 -2 -10 40 -20 17 3 1 1
1532264669512299 -2 -6 -11 26 -32 -11 -3 -5
1532264669540225 -5 -8 -10 -7 -12 -20 -6 -5
1532264669587098 1 -4 -11 8 38 14 1 -2
1532264669617019 -2 13 22 7 6 -2 -1 -2
1532264669676860 -3 -8 -4 2 14 3 1 2
1532264669787562 2 4 -18 5 0 1 1 -2
1532264669848401 5 24 25 -6 -11 -6 -3 -3
1532264669878320 1 -22 -51 -9 11 9 0 3
1532264669904251 1 -8 -33 -9 -8 1 -1 1
1532264669970074 14 4 3 8 -9 5 -1 4
1532264670013957 -11 27 -11 -7 -2 -2 1 -64
1532264670027920 2 -4 49 4 6 34 19 1
1532264670074794 -1 11 44 20 8 1 -4 -7
1532264670111696 -5 -1 -80 1 3 -9 -1 -10
1532264670134634 3 33 44 12 -5 16 27 23
1532264670156577 9 23 43 26 0 6 14 14
1532264670216416 -3 -14 -11 8 15 6 3 -8
1532264670231376 3 17 17 4 1 -13 -6 -10
1532264670254314 -1 37 36 0 4 -3 -2 -3
1532264670291227 -2 -11 -10 -3 -1 -7 -2 3
1532264670328117 19 12 6 -2 -8 -21 10 39
1532264670344074 23 -1 -4 1 -1 -5 -6 21
1532264670381973 -2 22 2 5 15 15 2 1
1532264670396934 -13 -26 1 0 7 -5 -5 -20
1532264670433849 -5 13 5 -4 -6 0 -4 -13
1532264670456774 -7 -42 17 1 0 1 -1 -10
1532264670470736 -9 6 -1 3 -2 3 2 -9
1532264670494672 10 65 30 -20 -5 0 -3 3
1532264670516613 -1 -10 -10 0 0 1 -1 -9
1532264670531583 1 -22 -9 8 2 2 0 1
1532264670545536 -8 -8 -5 10 -6 -1 -4 -1
1532264670584432 2 -7 13 5 6 2 1 -8
1532264670621333 1 12 12 5 0 -3 -5 -5
1532264670643274 9 -2 21 -2 -1 -9 -3 7
1532264670682170 -3 10 16 5 0 -3 2 8
1532264670696133 -9 4 8 -1 3 23 -1 -20
1532264670719072 -6 -6 7 -5 -5 -4 -1 -8
1532264670734032 -11 7 -29 -4 -6 -11 -4 6
1532264670770933 -4 16 -22 -3 -8 -24 0 28
1532264670793872 -1 3 -17 3 -2 -4 -2 -1
1532264670815813 -5 -12 5 -10 -5 8 2 -7
1532264670846730 1 -5 15 -13 -4 -17 -4 -15
1532264670884629 -2 10 1 -1 -4 0 1 3
1532264670899588 11 1 10 -3 -4 -7 -4 -20
1532264670913552 10 25 -42 -3 -2 34 9 20
1532264670951450 -3 -22 -16 -3 0 1 -2 -3
1532264670973392 -1 11 -4 11 3 2 -1 -7
1532264671004309 -8 4 16 -5 -3 -18 1 18
1532264671019269 6 28 -8 -3 -1 0 -2 1
1532264671042207 1 5 11 -9 1 -6 -1 -11
1532264671064148 -1 -41 -3 -41 -23 3 -2 -4
1532264671094069 4 -2 -12 14 2 3 -8 -14
1532264671123989 7 24 -56 24 11 5 3 -1
1532264671146927 -7 0 -32 12 2 -9 -5 -9
1532264671175850 -1 -5 8 2 3 -12 -4 -39
1532264671205770 0 -20 -47 -20 -5 -4 0 -6
1532264671235690 4 6 44 -8 6 5 4 11
1532264671273590 2 -7 -49 -7 1 0 0 2
1532264671296527 -7 -2 -7 -73 -18 -4 -1 -1
1532264671357380 -3 8 10 16 5 5 -3 -6
1532264671379306 -4 -7 7 44 12 -3 -1 -3
1532264671393269 0 2 2 59 15 3 -1 -1
1532264671416207 -8 -8 -8 -11 -2 2 3 -3
1532264671453109 -5 -2 -5 -12 -1 0 1 -2
1532264671476047 -3 -11 -1 -5 -8 -6 -5 0
1532264671498986 4 1 17 9 8 0 -1 2
1532264671536885 0 9 8 -2 2 -1 0 -1
1532264671566805 -2 -19 0 8 0 0 1 0
1532264671595727 3 14 21 -7 -8 0 -1 -1
1532264671618666 -12 -34 -26 -11 -4 -2 -3 0
1532264671633626 4 4 7 6 -1 0 7 -7
1532264671656564 14 1 4 3 -1 6 -3 29
1532264671693465 5 9 -15 0 2 -6 -3 5
1532264671716405 -2 -17 12 5 5 2 -1 -8
1532264671739343 -11 -12 14 -1 -4 0 -1 -5
1532264671753306 -12 16 43 -19 -3 -1 1 -14
1532264671776245 15 9 5 -2 -6 -20 -18 20
1532264671799183 -5 -36 -27 8 8 3 5 6
1532264671822121 15 -15 6 17 3 -3 -1 -7
1532264671873997 -15 -41 -14 1 -4 -10 3 -24
1532264671903903 6 -36 -8 -5 -6 5 0 6
1532264671933823 10 50 -3 -4 -7 -4 -7 -11
1532264671979700 -5 -19 14 -8 0 5 -2 1
1532264671992666 5 12 1 -4 -3 3 2 -3
1532264672052506 -6 35 -16 3 0 2 -1 -19
1532264672121339 5 30 14 11 2 -2 0 13
1532264672159220 -16 -16 6 8 -1 0 0 0
1532264672248981 -1 -10 -8 -22 -4 -2 0 -85
1532264672301839 20 19 -6 -18 -7 -2 -1 16
1532264672315802 17 8 -4 -5 -1 -2 -2 0
1532264672375642 8 -7 8 1 -3 -2 -4 22
1532264672436479 -25 -14 -10 -3 -2 -5 -1 -16
1532264672459418 -1 -4 4 11 -1 0 -1 -27
1532264672518261 10 3 -8 27 6 1 1 0
1532264672556159 -1 -7 -8 -13 -2 0 0 -4
1532264672602037 -2 3 4 -9 -3 -4 -3 2
1532264672781556 1 4 -1 1 2 1 1 2
1532264672841397 0 0 2 -3 -7 -1 0 0
1532264672915199 -1 -2 -1 14 12 1 -1 2
1532264673043855 1 -15 -20 2 2 2 2 1
1532264673058815 -6 -36 65 -7 7 0 1 -4
1532264673126634 12 59 3 5 -4 -2 -2 4
1532264673178495 6 0 -2 -2 -3 -2 -4 10
1532264673201434 -4 -23 -35 -2 -5 -3 2 -1
1532264673261273 -3 -9 -6 1 2 0 1 -5
1532264673305156 -6 -8 -4 -1 -1 2 2 0
1532264673359027 -5 -26 2 2 16 2 1 4
1532264673381951 -1 -9 -6 -3 -15 -4 -2 1
1532264673418852 -1 9 10 3 -3 -2 0 -5
1532264673432815 1 11 9 9 19 7 1 -2
1532264673450767 -5 -7 -15 -10 -11 0 -1 -5
1532264673479689 1 -4 9 -7 -9 -4 1 2
1532264673486670 -1 12 -1 -3 -5 -10 -2 -2
1532264673503626 1 3 -13 6 -1 2 -2 3
1532264673525567 1 1 -1 6 20 -6 -1 0
1532264673548506 0 3 -4 -19 6 5 -2 0
1532264673584409 3 9 1 -6 -37 -18 0 2
1532264673598372 -3 -2 -6 8 17 -12 -4 -3
1532264673621311 1 5 6 -20 -10 28 4 2
1532264673650233 0 2 11 -4 28 19 -1 -1
1532264673712076 3 6 25 31 25 3 2 1
1532264673763929 -3 2 5 -15 -9 -5 -2 0
1532264673786868 1 5 13 -8 -9 -5 -3 -3
1532264673816787 1 -8 -20 5 10 3 0 0
1532264673825765 1 -7 -4 -4 -9 -4 -2 0
1532264673869654 4 -5 18 -1 -1 1 -3 3
1532264673891588 16 -19 -15 -11 -6 -10 1 0
1532264673914527 -2 -3 -21 -13 -10 -5 -2 0
1532264673930500 0 2 18 2 0 -1 -3 -2
1532264673953423 -2 10 16 5 0 -9 -1 2
1532264673974367 -9 -2 -2 -2 -4 -3 -1 -7
1532264674028223 0 -6 18 3 -1 -6 -3 -1
1532264674034214 7 12 -5 2 4 11 2 1
1532264674078089 -13 16 37 -2 -1 4 -2 4
1532264674094047 1 6 10 1 -1 -17 -7 -6
1532264674155881 0 -3 12 -6 -4 -2 -4 0
1532264674167849 2 1 -22 -4 1 0 3 1
1532264674214724 12 -1 9 -11 1 2 0 0
1532264674220707 2 6 23 44 9 2 2 0
1532264674266586 0 -20 -73 -7 7 -9 -1 1
1532264674343380 11 0 0 -7 1 -10 4 -1
1532264674357354 7 0 4 1 1 -6 9 1
1532264674439124 13 8 10 0 3 15 4 14
1532264674469043 4 -2 -4 -1 -1 -24 1 27
1532264674506950 15 6 0 -1 -1 84 24 3
1532264674520920 8 1 1 -2 -4 -57 -16 -14
1532264674543844 4 -6 -3 -4 1 51 4 15
1532264674604680 2 -3 -5 -3 -2 -26 -1 65
1532264674649561 3 2 -17 4 -1 -25 -5 11
1532264674686462 -3 -2 -4 2 2 6 17 3
1532264674700425 -9 -10 -11 -5 -3 -14 1 -30
1532264674709420 -14 -57 3 1 0 -15 0 -9
1532264674746302 10 25 -4 -6 -5 2 -7 0
1532264674807140 -18 -24 -14 -5 -1 3 2 -20
1532264674820105 6 7 21 2 0 -2 1 -8
1532264674866980 10 -8 -6 5 1 -9 0 -5
1532264674880958 4 14 13 5 3 16 4 5
1532264674926820 -24 -3 41 5 -4 -27 0 -32
1532264674940782 13 19 -4 3 -2 -8 0 6
1532264674955742 -13 2 -12 -6 -5 -9 -2 -5
1532264674986660 8 4 -11 -3 -2 4 -2 38
1532264675023562 0 -27 23 3 -3 -39 -8 -28
1532264675060462 10 -3 1 -1 -2 -4 2 29
1532264675083401 -3 -1 -21 0 -1 1 0 -6
1532264675098361 8 2 -8 -2 -3 -11 -3 8
1532264675116313 0 1 2 -1 -3 -3 2 4
1532264675166180 -7 -5 -5 1 -1 -12 2 -8
1532264675180156 -5 4 0 -1 -1 -7 -6 -9
1532264675203081 -3 -5 -5 -1 12 0 -2 -1
1532264675263918 -13 -5 -2 -5 -7 21 2 -7
1532264675286857 -6 -1 -1 3 3 -39 1 -2
1532264675316776 0 -3 -1 -9 -31 -16 -12 -2
1532264675369636 -8 -5 15 54 -14 -2 -4 -2
1532264675429475 8 -7 -9 8 9 3 2 2
1532264675466377 0 2 -3 -20 -5 -1 -1 -4
1532264675489315 -9 5 -3 -32 -11 -2 -2 -3
1532264675527222 -4 -64 -35 -9 -4 -2 -2 0
1532264675563132 1 30 40 -6 -1 1 -2 0
1532264675572098 2 31 69 2 0 -4 -1 -2
1532264675596032 -2 7 10 -22 -8 -3 -1 -3
1532264675622958 2 -29 7 -2 0 1 1 1
1532264675646894 -4 -17 61 -4 -3 -4 -1 -2
1532264675668835 -1 27 52 1 1 -1 -5 -2
1532264675714719 -1 2 -20 17 7 3 1 -3
1532264675737658 -3 -27 -53 -13 -7 -2 -2 -4
1532264675766580 0 -3 -33 -7 -5 4 -2 2
1532264675805476 -1 11 37 3 -1 -3 0 -2
1532264675819439 1 16 -93 -8 -3 -1 1 -1
1532264675856340 1 50 -48 13 2 2 0 1
1532264675872303 5 13 -28 -18 -8 -1 -2 0
1532264675918175 -1 -5 -38 0 0 1 2 1
1532264675961060 3 18 -30 0 2 0 0 0
1532264675971034 2 11 11 -4 -8 0 -2 6
1532264676013924 5 20 -15 1 3 9 5 15
1532264676044836 -1 83 -38 -8 -9 0 -23 -21
1532264676074756 -13 -29 70 -29 -12 -1 4 -4
1532264676096698 -6 -8 52 12 9 -1 1 -9
1532264676102681 1 -5 12 32 5 -7 3 -8

1532264676149556 0 10 -8 3 -1 -3 0 -4
1532264676185460 0 -32 -50 -1 -2 1 3 -4
1532264676239316 7 7 27 -3 0 -1 0 2
1532264676246298 -7 -60 -52 -9 -3 2 0 -2
1532264676299163 -1 17 43 -1 -5 0 -1 -4
1532264676305147 2 8 -44 0 1 -2 -3 8
1532264676344044 1 11 -3 9 4 3 2 2
1532264676352033 -5 -6 -35 0 -4 -5 -1 -3
1532264676373965 3 -14 10 4 -2 2 -1 1
1532264676389921 0 7 1 -10 -4 -1 -1 1
1532264676432807 1 8 -31 -5 -1 -5 -2 -2
1532264676462726 0 -3 -7 -11 -3 0 1 -1
1532264676485665 0 6 18 -34 -12 0 0 -2
1532264676525365 0 38 72 16 1 -1 -2 1
1532264676531348 3 -37 2 -40 -3 -5 0 -2
1532264676546309 -16 9 14 -5 -5 1 -2 -11
1532264676585205 3 -36 -26 1 -2 -16 -11 49
1532264676599167 64 50 12 3 3 -11 23 -47
1532264676639061 3 52 38 4 3 66 35 -33
1532264676652026 -13 -31 -79 -42 -13 0 -8 8
1532264676673969 -9 20 -97 -24 -11 -10 -23 7
1532264676718848 -10 -13 -9 14 -4 -3 -11 4
1532264676756746 1 13 26 -7 -2 1 2 -2
1532264676771706 -4 7 17 1 1 1 -4 0
1532264676809611 -6 -4 1 4 5 -2 -2 -3
1532264676839532 6 32 16 3 -5 1 3 1
1532264676854492 -3 -4 -36 -35 -5 -3 -2 -1
1532264676875435 0 3 5 -1 2 2 3 2
1532264676893387 0 8 -35 -25 -9 1 0 -2
1532264676916326 11 11 43 25 -14 -2 0 1
1532264676935275 -13 -8 -10 -60 -26 -7 -4 -5
1532264676953228 -1 7 -4 7 5 1 -1 4
1532264676980155 -1 -4 -8 14 2 -4 0 1
1532264676995116 1 0 6 22 11 5 -1 -2
1532264677034011 0 16 -2 -5 0 -2 -3 -1
1532264677048971 -5 -36 7 0 4 3 1 1
1532264677071910 23 59 4 -5 -3 1 6 12
1532264677093851 -7 -37 12 3 8 3 4 -3
1532264677118823 -2 17 -13 -1 2 3 -7 -12
1532264677130770 -2 -53 51 10 0 -8 -3 2
1532264677153709 1 23 -3 11 3 0 0 5
1532264677169667 -7 -6 -77 -4 0 2 -2 -1
1532264677190610 -25 3 64 -8 -4 -4 -2 5
1532264677213549 -21 -6 -18 6 5 16 -4 -31
1532264677243469 -3 -1 -17 -5 5 -2 0 -17
1532264677273399 -27 1 5 -2 -5 -16 -3 -34
1532264677311288 5 0 -5 1 -1 -1 -1 1
1532264677333229 7 0 0 -3 -1 -5 1 1
1532264677348189 -4 -3 -12 -2 -1 -6 1 -8
1532264677371128 6 1 10 1 0 1 1 11
1532264677394066 -19 -1 -2 0 0 -1 -2 -21
1532264677416008 -2 -1 4 0 0 0 -1 -3
1532264677453906 9 -2 -6 1 -1 -2 -2 8
1532264677467869 10 1 -4 -1 -2 0 -1 15
1532264677490810 3 2 -1 -1 0 -2 0 7
1532264677513746 -1 1 3 0 0 1 0 -7
1532264677527709 -6 -1 2 1 -1 -1 -2 -7
1532264677550648 -6 0 0 -3 -9 -4 0 -4
1532264677573586 7 0 -1 0 3 0 -1 3
1532264677611485 1 -1 4 3 11 4 2 -3
1532264677633447 5 1 2 -1 -4 -4 0 4
1532264677648394 -1 4 0 -10 -8 -4 -2 0
1532264677671325 -1 -6 -31 -3 5 -1 -3 1
1532264677693266 1 -5 -32 1 5 1 1 1
1532264677709224 2 1 71 11 -8 -2 -2 -2
1532264677731165 1 10 12 2 0 -7 3 2
1532264677762082 1 4 23 5 -2 -12 0 1
1532264677768066 -3 -13 -22 -22 -12 3 -1 -2
1532264677791005 0 -4 -8 3 2 2 1 0
1532264677813944 -1 1 8 4 23 9 -4 -4
1532264677836882 -3 -5 -16 -13 -15 20 4 0
1532264677850845 0 9 -20 -5 -18 -12 -3 -1
1532264677873786 -1 -4 -60 -10 -30 -1 0 -1
1532264677896722 0 3 34 3 -17 -11 -4 0
1532264677933623 -3 -4 9 -13 6 -10 -2 -2
1532264677956562 0 -5 27 19 21 2 1 -1
1532264678002440 4 14 11 11 5 5 1 0
1532264678053303 0 12 -46 -5 7 15 3 1
1532264678076244 1 4 27 5 17 1 0 1
1532264678113143 2 6 -31 7 15 8 2 -1
1532264678136082 -2 1 36 -8 -7 -1 -4 -2
1532264678172983 -8 -29 26 -25 -7 -1 0 -8
1532264678196919 -2 -52 -40 5 9 6 15 12
1532264678256759 -11 -15 -44 -12 -3 9 21 -39
1532264678293661 -10 -3 -17 -15 -10 -9 -16 -29
1532264678317597 15 31 90 13 12 25 -8 5
1532264678331559 5 41 56 5 -9 -13 -14 7
1532264678390402 3 12 -18 6 3 8 16 25
1532264678451240 -19 -25 14 -3 -5 -7 -7 -37
1532264678489138 -1 11 9 0 -2 -10 10 -31
1532264678534018 4 17 -10 0 -9 3 -3 5
1532264678618792 11 15 1 0 -5 -1 3 8
1532264678653704 -5 27 0 -1 -7 -3 -1 -6
1532264678706556 -9 -12 -7 -8 -4 0 -1 -15
1532264678775373 -11 -59 -36 -11 3 3 -5 -20
1532264678834215 -2 3 -21 5 -2 -2 -8 -19
1532264678923989 -28 22 7 1 0 2 0 -31
1532264678931953 0 -73 -15 -7 1 0 0 19
1532264678976834 10 19 10 -2 -1 1 0 9
1532264678999772 5 11 22 -3 -1 -4 0 -15
1532264679036674 -14 22 -3 -2 8 12 -3 -38
1532264679059612 18 49 8 -2 -6 -14 1 19
1532264679081554 -17 -8 11 1 0 -3 -1 1
1532264679134413 6 -12 15 11 2 3 0 5
1532264679149373 4 -13 1 -3 -4 -6 1 2
1532264679187271 5 3 -12 -5 -2 -2 2 -8
1532264679217191 0 52 -7 -4 -3 -2 0 -2
1532264679277031 -6 -1 10 9 5 -1 0 -14
1532264679289996 -19 -33 -13 -35 -16 -6 -5 -24
1532264679336871 5 5 20 -20 -7 0 -2 -10
1532264679358812 4 26 3 7 4 -2 -1 -3
1532264679419650 3 18 6 -22 -14 -4 -2 -12
1532264679456586 3 -2 -6 6 7 10 -8 1
1532264679486490 -2 -4 9 13 -1 -1 1 2
1532264679539349 -2 -5 -8 -2 -5 -3 -3 1
1532264679583231 0 -3 -1 -7 -11 0 -2 -4
1532264679659028 -5 38 2 22 2 3 1 0
1532264679681967 0 -9 13 -5 -7 -2 -1 1
1532264679726847 2 29 4 -2 -3 -2 -2 1
1532264679779706 -5 -28 -6 -10 -5 1 1 12
1532264679839546 -2 16 -12 -9 -4 1 -2 -1
1532264679876447 -3 29 2 -1 -1 -5 -5 -20
1532264679935290 -3 3 26 24 10 4 4 -12
1532264679959226 -8 7 2 -12 -2 -1 -1 4
1532264679996127 -2 3 7 -3 1 -6 -2 -5
1532264680019066 -7 -2 -6 -11 -5 -1 13 -9
1532264680055967 -7 42 5 -2 -1 0 -4 9
1532264680078906 8 -5 4 8 14 3 -1 9
1532264680117802 2 76 15 0 5 -5 -22 -31
1532264680161684 14 -46 2 5 7 8 6 -6
1532264680259423 11 44 -3 -1 -5 -7 -5 -3
1532264680372122 2 -9 7 2 4 3 10 26
1532264680426988 -22 -13 15 -4 0 2 -6 -1
1532264680461882 -16 -10 -4 0 0 -3 -8 -45
1532264680535684 -15 -11 -15 -12 -4 -1 5 11
1532264680544660 -5 9 11 5 1 1 -1 1
1532264680560618 8 4 6 4 -1 -3 -1 22
1532264680626442 -2 0 13 9 3 -2 -5 -6
1532264680649380 -9 -27 -13 -3 0 4 5 -19
1532264680678303 13 18 8 4 0 -3 -3 26
1532264680685284 18 23 11 4 0 -3 -1 17
1532264680738143 0 -3 -9 -2 -1 2 3 -3
1532264680775045 3 5 2 1 0 1 2 6
1532264680874784 -1 -11 -1 0 -1 0 -1 -2
1532264680918660 -1 1 0 0 0 1 2 0
1532264680942596 -1 1 -2 -1 -1 -4 -1 0
1532264680978500 -1 -4 1 -4 -6 -4 -1 0
1532264681002436 -1 -3 -3 -13 -3 1 -1 0
1532264681040341 1 0 -1 3 7 0 0 0
1532264681055298 -2 -9 -4 -2 7 -2 -2 0
1532264681098180 1 -18 1 5 1 2 -1 0
1532264681144058 -1 -58 -11 -25 -13 -4 -4 -2
1532264681181956 -6 54 7 -3 3 -1 0 -6
1532264681203898 2 -50 -24 -8 -2 -4 -3 2
1532264681263737 9 67 0 -8 -1 -4 1 1
1532264681270719 2 55 35 0 0 -2 -3 -2
1532264681337540 0 9 20 -5 -9 0 0 -11
1532264681361476 -1 -1 37 4 -3 -2 -1 3
1532264681384415 2 -2 -19 5 0 -1 0 8
1532264681398378 3 -8 6 -2 -1 0 -3 0
1532264681422314 -3 1 6 3 4 1 1 7
1532264681444255 12 18 4 4 4 3 4 8
1532264681482154 -1 -15 -9 -3 -1 0 3 17
1532264681518057 8 30 7 0 7 2 -3 -4
1532264681541993 0 32 8 4 1 1 0 -4
1532264681586873 -5 -15 -15 3 -7 -3 -1 -2
1532264681623775 -3 -7 4 78 33 3 3 0
1532264681637737 -4 -21 -10 -35 -30 6 0 -2
1532264681684612 5 -6 -5 -3 -8 -17 -2 -2
1532264681697577 -2 -3 -10 -10 -4 -1 -3 -1
1532264681706553 -4 -8 7 -2 -10 -17 1 0
1532264681744452 5 -4 1 -40 41 29 1 -1
1532264681758415 -3 -6 -6 -9 -7 3 -4 -4
1532264681804292 0 5 -6 15 -17 -9 -2 -3
1532264681834213 3 10 61 8 4 5 2 0
1532264681864132 -3 -16 -25 2 -5 -3 3 -1
1532264681894052 -3 -12 -29 -6 -14 -6 -1 -1
1532264681909012 3 0 -10 10 8 12 -6 0
1532264681925982 4 2 -20 9 3 8 2 2
1532264681984809 -8 -8 -1 1 -3 -6 -8 -3
1532264682022708 -1 -4 -6 -9 -5 -2 0 -2
1532264682029690 0 -9 -37 -1 1 3 0 1
1532264682077562 -13 -1 -16 -8 -1 -3 -3 -10
1532264682089529 0 -10 15 0 1 -13 -1 -1
1532264682105486 9 -6 -10 -13 -2 18 1 1
1532264682128425 -1 4 25 10 -6 -6 -1 0
1532264682224171 3 25 32 -13 -5 -1 1 -2
1532264682428622 -8 -3 -3 -1 -1 -3 -1 -14
1532264682441589 -6 16 13 -5 1 15 0 -9
1532264682518383 -17 -2 26 -5 -1 -6 6 30
1532264682534340 0 -2 -6 2 1 -4 2 -9
1532264682554286 -6 -3 -1 -2 -1 -9 -8 -4
1532264682607145 1 -7 -21 -8 -4 2 2 -11
1532264682620110 -2 1 12 3 -1 -11 0 24
1532264682696904 -7 -1 -3 1 7 39 25 23
1532264682727822 3 -1 -6 0 -3 -20 -6 -12
1532264682740788 -1 -2 -3 -1 -1 -12 -9 11
1532264682786665 12 -1 8 -4 -1 9 -3 41
1532264682823566 -9 -17 27 -3 -5 -35 -1 -22
1532264682907343 -24 -18 -38 -16 1 8 -3 -14
1532264682929284 2 -3 -10 0 -18 -13 -14 9
1532264683003086 -1 -6 11 -22 -5 5 3 -10
1532264683057944 -8 40 -52 -4 4 3 1 -19
1532264683086862 -1 -7 2 0 0 -3 0 0
1532264683108803 1 -1 13 -2 4 13 -4 5
1532264683148698 -6 -15 -11 -3 -1 8 10 0
1532264683169641 9 3 -8 2 2 -5 2 0
1532264683182607 -2 -4 13 -1 -2 -5 -3 0
1532264683243443 -1 -2 -11 2 -3 -21 -2 -5
1532264683266382 -4 -8 4 0 -2 -4 0 0
1532264683289320 0 3 1 2 26 3 -2 -1
1532264683327220 -5 -2 0 -1 3 -7 3 -3
1532264683363124 -3 -1 0 -2 -8 4 2 -2
1532264683424958 6 3 1 -1 7 29 10 12
1532264683529678 -6 -2 -6 -1 6 -6 -2 -2
1532264683574558 -4 35 4 37 5 2 -1 -1
1532264683611460 -9 -4 29 -2 -3 -2 -2 -3
1532264683625422 3 26 83 -10 -15 -2 0 2
1532264683671299 -2 -10 15 1 -4 -1 -2 -9
1532264683685262 -16 -17 -20 -3 0 2 -3 -14
1532264683762057 1 -35 26 3 9 3 0 -2
1532264683790979 4 10 -5 -7 -3 0 -2 1
1532264683813919 2 12 13 6 4 -2 1 0
1532264683830873 2 28 4 1 -2 -1 -1 -1
1532264683850820 -3 10 9 -2 -1 -2 -1 1
1532264683888718 1 -2 -28 0 -1 1 -2 2
1532264683925620 4 29 46 -3 -3 -2 -4 -1
1532264683958532 -2 33 27 -4 1 1 1 1
1532264683971497 1 -17 -37 14 5 2 -1 -2
1532264683985459 -5 -23 42 -5 -1 -2 1 0
1532264684035326 -1 -13 -10 -5 -4 -2 -2 0
1532264684045299 7 22 -128 -8 4 16 9 -24
1532264684071230 -10 -23 -86 0 8 13 62 98
1532264684092174 4 -49 64 -2 -13 -17 -45 -9
1532264684130073 -6 -3 -1 1 -1 0 -28 -27
1532264684158995 3 26 -37 -56 -25 -6 2 -5

1532264684212851 -2 -6 -18 20 6 -5 10 -3
1532264684243769 2 11 35 10 3 -1 9 -1
1532264684256734 0 17 85 14 5 0 -14 -2
1532264684278675 0 1 42 4 5 5 -7 -5
1532264684308595 -6 -41 -64 12 6 3 2 1
1532264684349485 3 -27 -17 -6 -2 -9 -1 2
1532264684370430 4 -9 8 6 3 -1 0 0
1532264684413315 2 37 -37 -10 25 -3 -2 1
1532264684451214 -2 25 60 0 -13 -2 -3 -2
1532264684485159 -2 -11 -46 0 -1 -1 0 0
1532264684536023 -1 -6 -13 0 0 0 1 -1
1532264684542007 2 -6 -31 25 3 3 0 -3
1532264684573933 -3 8 14 -13 -4 1 -1 -3
1532264684595864 -1 -3 -28 -17 -4 -3 -1 1
1532264684617805 9 -1 74 17 4 3 -3 4
1532264684647726 -26 34 2 4 0 -25 -20 -86
1532264684675650 7 -18 25 -5 -4 -4 40 -21
1532264684701581 -25 -25 85 -9 -13 -10 -25 -8
1532264684723540 -8 -71 -128 -23 -9 9 12 -10
1532264684738482 -15 -18 -49 -7 -15 -15 -17 0
1532264684751447 -12 -15 -42 30 4 -1 -11 -16
1532264684790366 0 10 3 -12 -3 0 -1 4
1532264684835224 1 -9 18 2 -4 0 -1 3
1532264684871127 -2 10 10 -15 -18 -8 0 1
1532264684908029 1 0 40 -31 -6 -1 -1 -1
1532264684931965 -1 4 -2 4 -12 -6 -4 -1
1532264684953906 0 4 -34 -8 18 8 2 2
1532264685014744 2 3 58 9 1 -3 4 2
1532264685036684 0 -4 -37 8 3 -4 -1 1
1532264685074584 -1 2 38 -7 -9 -9 -3 -2
1532264685087549 -5 -39 -107 2 0 -1 -1 -3
1532264685134424 -17 -38 4 3 1 2 -2 -14
1532264685149384 12 37 3 2 13 1 0 7
1532264685171324 -1 37 51 4 0 6 0 0
1532264685194264 0 18 13 5 -10 -1 -4 -4
1532264685208227 -8 -20 -24 -23 7 4 0 -6
1532264685231165 -11 2 17 2 -1 0 0 -4
1532264685254104 9 -1 -7 -1 -8 -5 -3 7
1532264685268066 2 0 6 -1 -1 -4 1 -1
1532264685291005 1 2 9 2 1 -3 -1 1
1532264685327906 4 2 11 0 1 1 1 7
1532264685350845 -1 -3 -18 -3 0 -3 1 3
1532264685373798 -8 -2 -4 1 -3 -1 -2 -12
1532264685387746 2 -2 4 2 -1 0 -3 3
1532264685410685 3 -1 0 -2 -1 -1 1 -2
1532264685441602 10 0 -3 1 -1 -2 0 6
1532264685456561 1 1 -4 1 -2 -2 -1 3
1532264685516428 -5 -1 -1 1 -1 1 -1 -12
1532264685583249 2 2 23 -3 0 11 0 2
1532264685643089 -2 -7 -22 4 5 9 0 -1
1532264685665030 1 2 43 8 3 -10 2 -1
1532264685682982 -4 -7 -44 -29 -15 -22 -6 -4
1532264685702929 0 -2 -11 57 49 12 6 0
1532264685725867 -2 -1 0 -14 -30 -8 3 1
1532264685770747 0 3 -8 -13 18 8 -1 1
1532264685785708 1 -2 12 43 50 7 1 1
1532264685807649 0 -12 -34 12 15 5 1 1
1532264685862502 -2 -2 39 20 -4 -4 -1 -2
1532264685883446 -4 -4 -28 -24 -31 -3 -5 -2
1532264685917356 1 7 36 -3 5 5 0 1
1532264685936305 3 13 73 -21 2 2 3 0
1532264685988166 -1 3 -15 13 7 1 0 -1
1532264686036054 -3 -14 -53 7 -11 -6 -1 -1
1532264686056995 -10 -13 -68 -12 -1 -3 -4 -5
1532264686124801 -3 5 19 -7 -3 -2 1 0
1532264686168683 -7 -15 -102 -12 -13 -4 -3 -2
1532264686198603 0 3 -9 5 12 6 1 -2
1532264686275399 -12 -16 45 -10 3 0 4 0
1532264686304321 0 -26 54 2 -6 -17 -5 14
1532264686342219 -8 -58 -50 -32 -15 2 9 22
1532264686514758 0 29 76 4 -4 -12 -8 -11
1532264686542683 3 -17 10 -4 -6 -3 -2 1
1532264686604518 -23 -60 -24 -4 -6 -2 0 5
1532264686633440 8 -2 -7 4 4 -2 -1 -2
1532264686678321 -2 24 4 0 7 -1 -1 -6
1532264686747137 -21 -21 3 1 5 1 3 -13
1532264686798998 -4 93 13 -4 -4 -2 1 -22
1532264686865819 0 -29 -13 -3 2 2 0 0
1532264686926657 22 0 -3 4 -5 -8 -5 10
1532264686956576 0 30 13 2 1 0 -1 -4
1532264687001456 20 11 12 -3 -5 -3 0 7
1532264687046336 -2 15 42 3 3 -6 -2 1
1532264687062299 -11 24 0 0 6 4 1 -5
1532264687100192 -3 20 8 9 0 -8 7 9
1532264687145072 1 -7 -12 15 7 7 1 -6
1532264687159035 15 21 8 -4 -2 21 -2 7
1532264687172998 -3 -31 -13 -8 0 -6 1 4
1532264687218875 11 -5 19 -3 2 10 -3 0
1532264687232838 -1 -15 -10 4 0 -5 -1 0
1532264687241813 1 -3 -3 -5 -1 -16 1 -2
1532264687279712 0 -6 12 3 0 0 -2 11
1532264687309632 6 -5 -3 -1 -1 1 -3 15
1532264687331574 3 0 -16 -1 -3 -8 -1 -37
1532264687339553 7 8 21 3 1 -2 -7 -14
1532264687361493 2 14 17 2 -3 -3 1 22
1532264687401387 4 -5 0 6 -1 -1 0 15
1532264687413355 18 -34 -61 12 -14 -9 11 9
1532264687450256 9 -28 -31 -1 11 26 48 13
1532264687461227 0 17 -9 -3 -15 -9 -19 -3
1532264687482171 -6 -36 57 19 1 1 -6 -3
1532264687503115 9 5 48 -12 4 -1 5 1
1532264687521067 8 22 -1 -4 -6 -3 -5 2
1532264687543008 -2 14 -6 11 0 -4 -5 0
1532264687578912 -1 5 14 -12 22 6 2 0
1532264687624790 0 2 14 3 -9 -7 -3 -3
1532264687639766 -2 2 17 -6 -2 2 -1 -2
1532264687675653 10 10 4 8 16 6 0 4
1532264687699589 2 -9 1 2 4 -2 -2 0
1532264687735493 -6 -7 3 0 -5 -2 8 3
1532264687752450 10 16 -4 2 -2 -3 0 -5
1532264687781385 0 -2 9 15 4 3 -1 0
1532264687795334 2 -16 1 2 6 -2 1 0
1532264687827265 4 17 8 1 3 2 0 0
1532264687842208 -6 -11 -12 -11 -2 -2 -1 -1
1532264687864149 -5 -8 -23 -15 -4 -2 -2 -3
1532264687902048 -7 -3 -2 10 5 2 -1 -1
1532264687915014 -4 -43 -16 -1 -8 -1 2 -3
1532264687938949 -2 -8 9 5 1 -5 -7 -20
1532264687960891 -3 -33 8 7 4 2 0 9
1532264687999787 1 48 4 -14 -4 -1 2 10
1532264688035691 -3 -1 21 6 10 -28 -54 -5
1532264688119467 5 -20 3 2 9 3 6 5
1532264688193270 -1 -20 -6 3 -16 -3 2 -2
1532264688239150 -3 7 -5 5 -7 -4 -8 4
1532264688245131 5 2 -17 -16 -8 0 0 -3
1532264688275051 2 -34 -17 -21 -4 6 -7 -22
1532264688328907 8 5 -8 -6 -11 -4 -4 1
1532264688358827 5 -9 -1 -2 -1 5 5 -2
1532264688418667 -17 5 -1 -1 0 -2 5 -1
1532264688570260 -14 -43 -3 0 -1 -9 -6 -21
1532264688644064 -9 25 25 6 -1 -3 2 -4
1532264688703904 -5 7 -8 -7 -1 1 10 20
1532264688771728 -19 -35 -31 -10 -3 1 2 -9
1532264688861483 0 -14 -15 -4 0 1 3 2
1532264689005098 2 6 -17 -18 -11 -3 -4 -4
1532264689077904 2 -15 -1 15 7 0 3 -2
1532264689137744 -7 -4 -7 88 8 -2 -3 -5
1532264689212569 -6 4 47 43 4 2 0 3
1532264689251465 0 7 -25 -44 -11 -5 -1 3
1532264689280387 3 8 1 -4 -6 -2 0 -5
1532264689320281 2 19 111 -43 -15 -3 -2 -3
1532264689327262 12 -5 6 -7 -2 -2 -1 3
1532264689368153 0 15 82 81 31 1 5 2
1532264689433981 7 6 -21 -12 0 1 -1 0
1532264689447940 4 -5 -22 4 2 -13 -5 -1
1532264689454921 -8 13 43 -15 -7 5 3 2
1532264689491830 4 3 30 -8 -1 5 1 2
1532264689531730 0 -2 -22 9 -2 -17 -1 1
1532264689582579 1 12 17 -4 4 5 0 -3
1532264689596542 5 -28 7 -3 -1 -14 -13 -16
1532264689640424 1 -6 -62 -6 1 -3 4 5
1532264689694281 -9 -39 55 -52 -14 -7 -4 -12
1532264689717246 10 -1 11 -49 -11 4 -3 -5
1532264689769080 4 -2 26 -26 -12 -4 -2 -4
1532264689917683 -5 -9 -16 7 1 4 1 1
1532264689941620 4 10 64 -3 -3 2 -2 -4
1532264690113161 9 -2 -3 -8 -1 -2 1 30
1532264690203918 -21 -3 -6 -1 -2 -12 2 -2
1532264690241816 1 1 -1 4 3 1 -8 -36
1532264690308638 -2 -6 3 0 0 6 -6 61
1532264690323613 0 -2 -3 -1 -2 -3 5 -10
1532264690406376 13 5 22 -2 1 4 10 32
1532264690428318 -6 4 -11 -3 -3 -6 -8 -36
1532264690512094 7 -26 -23 -8 -4 -14 -11 -12
1532264690549006 -3 5 9 4 1 -7 -3 -7
1532264690563954 -1 -3 -20 0 3 1 -1 2
1532264690608835 -12 -5 6 4 0 17 -1 27
1532264690661694 4 -4 -10 -11 -3 -10 4 4
1532264690706573 1 8 5 1 1 -5 -2 -3
1532264690803315 -1 11 25 1 -2 -13 -5 -16
1532264690886094 -1 -7 -10 -3 1 -12 2 -6
1532264690909032 3 -3 -2 1 0 3 -3 13
1532264690968872 3 -6 9 -3 0 -6 -4 -7
1532264690982834 -2 5 -3 2 2 1 7 9
1532264691005773 1 -7 -11 -4 -3 2 -2 22
1532264691042675 2 -8 -8 -5 -3 -2 -4 4
1532264691089550 -2 2 1 0 -3 5 -2 -15
1532264691134430 2 2 2 4 -3 -18 0 4
1532264691148392 2 0 5 0 4 7 6 6
1532264691194270 5 2 1 7 3 7 5 0
1532264691208232 4 2 1 -10 -4 -18 -1 0
1532264691247143 5 1 -6 -6 -22 -2 -1 0
1532264691313950 -5 -4 1 7 7 -2 4 -4
1532264691351848 2 -17 3 0 12 5 -7 -1
1532264691374787 2 2 -4 -23 -7 0 3 0
1532264691388749 0 3 -1 7 8 4 1 0
1532264691448590 -3 -43 -14 -11 -2 1 -27 0
1532264691471528 1 4 -29 5 -1 1 1 0
1532264691508430 -4 -34 3 1 -3 2 10 6
1532264691531368 -4 8 27 -4 -5 -5 4 -4
1532264691546328 2 46 24 -3 0 -3 -2 -3
1532264691568270 0 -76 14 -1 -5 0 -2 0
1532264691599186 -1 22 12 4 5 5 1 0
1532264691628110 -7 -15 -68 -16 -4 -4 -1 -2
1532264691659027 -3 -44 -16 -5 1 -1 2 -2
1532264691673988 0 10 3 4 2 3 0 2
1532264691735821 -4 -8 49 -9 -6 -1 -2 -5
1532264691787683 0 2 7 5 2 -3 0 -3
1532264691815613 4 20 -19 4 7 0 1 1
1532264691855508 0 28 38 26 8 2 3 0
1532264691890416 -5 -9 -36 0 -4 0 1 -2
1532264691953247 11 -63 -69 2 -1 -7 3 0
1532264691967210 -11 12 74 4 -4 -24 -14 14
1532264692004111 11 37 -28 -25 -5 -8 6 1
1532264692019071 -1 28 -100 46 11 10 -3 -6

1532264692064948 8 9 43 -2 3 -9 4 4
1532264692085892 -3 -10 -9 4 1 0 -1 -2
1532264692123792 5 30 -99 -1 4 2 1 1
1532264692177647 2 -38 -55 1 1 -2 1 1
1532264692184628 2 5 31 4 2 0 1 0
1532264692205572 -4 22 105 -6 -2 -1 -3 -1
1532264692235492 -27 -26 112 -4 -11 -5 -28 -79
1532264692282367 46 56 28 -10 -15 8 5 25
1532264692288351 15 66 60 8 -1 3 8 25
1532264692326250 -10 -2 55 6 3 -2 -24 -5
1532264692337220 4 -7 -50 17 -3 -1 11 1
1532264692363151 -5 24 -30 -23 -12 -19 -17 -12
1532264692396063 -5 1 17 -26 -6 1 3 -2
1532264692408036 -7 -15 -42 -40 -14 -6 -5 -7
1532264692453908 -1 -7 -21 4 -6 -3 -6 -4
1532264692467876 -3 4 7 -46 -21 -13 -3 -4
1532264692521727 -10 -6 -16 -16 -22 -4 -4 -2
1532264692566607 3 -4 -16 -47 -6 -2 -1 -1
1532264692581567 12 -5 11 -20 -10 1 1 3
1532264692611487 2 -2 10 33 28 16 3 2
1532264692671327 -2 67 5 -8 -7 -1 -1 -7
1532264692694266 -2 19 24 -47 58 43 7 -1
1532264692708228 2 -15 -16 -1 -44 -15 -6 -10
1532264692754105 2 3 0 19 3 -5 -8 -62
1532264692777045 -3 -42 -8 -3 0 0 -3 -11
1532264692797988 2 -35 -93 7 23 4 4 14
1532264692836884 1 -16 44 2 -1 1 0 6
1532264692874783 25 5 27 3 -8 -3 2 38
1532264692896724 -4 -14 -6 7 -8 -3 0 -15
1532264692934623 -6 -4 5 0 4 -4 -3 -4
1532264692971524 -8 -8 7 -1 -5 -3 0 -10
1532264692994463 -3 -1 -2 3 -3 3 2 6
1532264693008436 -36 -5 -15 -2 0 -2 -2 -27
1532264693061284 3 3 3 -1 -1 -2 0 1
1532264693091205 21 -3 1 0 -1 -1 -3 5
1532264693114143 3 3 0 0 2 0 -1 5
1532264693195923 4 0 -2 3 0 1 6 21
1532264693262745 -4 0 -1 -2 -13 -1 -2 -25
1532264693294660 0 -1 -4 1 -2 -2 -7 -9
1532264693354500 -2 2 -4 -3 20 9 -2 -4
1532264693414339 -1 -2 -6 10 10 -3 0 -3
1532264693467199 -3 -5 -26 9 -5 -13 -3 -2
1532264693497119 3 7 7 1 -27 22 5 2
1532264693534020 -6 -4 -14 -15 -34 8 -2 -2
1532264693556964 -2 -11 -25 3 13 -16 -5 -1
1532264693578900 1 -7 -2 15 52 23 5 1
1532264693616799 0 6 7 -19 -31 -9 -2 2
1532264693690601 -6 1 17 -14 -10 10 -1 3
1532264693774378 -1 -2 -25 5 -12 -8 1 -2
1532264693819257 -2 -9 -12 -9 -2 -2 1 -1
1532264693857162 -2 -13 -20 4 4 5 4 1
1532264693916996 1 -3 8 1 0 -2 -1 -4
1532264693953897 3 11 7 13 -7 -9 1 13
1532264693977833 -18 -56 -33 -6 9 7 1 -12
1532264694020719 -2 7 86 -1 -8 -4 -6 -13
1532264694073577 -5 -30 30 -14 -17 -3 -1 -8
1532264694157353 3 26 -7 0 2 7 1 28
1532264694248110 20 -3 13 6 9 10 9 -18
1532264694264067 -17 8 64 7 0 4 0 -32
1532264694298975 -9 23 -8 3 5 21 1 11
1532264694337870 4 11 -50 -18 -13 -6 0 2
1532264694396713 3 -1 0 -1 17 0 -2 -6
1532264694434612 -8 2 10 1 -11 -4 -4 -9
1532264694486473 1 -8 7 -1 5 0 -3 -8
1532264694524387 -13 -17 19 -1 -4 1 3 -26
1532264694541327 0 12 -4 1 1 1 0 8
1532264694562270 2 -26 -14 -9 -6 -1 -1 12
1532264694599172 -9 25 -8 -5 -5 -2 0 21
1532264694613134 -5 -14 -34 0 2 0 -1 -4
1532264694659011 -4 -16 3 -1 1 0 0 2
1532264694672974 7 -7 -23 -11 -6 -4 0 4
1532264694710874 1 -36 -42 -6 -3 -1 -1 35
1532264694749769 12 14 14 -2 -1 -1 -1 45
1532264694762734 -3 9 -21 0 -3 -1 3 4
1532264694780698 5 -16 2 0 -1 1 -2 -1
1532264694801630 -7 2 25 -7 -4 -3 0 -45
1532264694818585 -23 0 8 2 -2 -5 -3 -29
1532264694840526 0 -10 -16 -17 -8 -15 -2 10
1532264694863464 -9 -9 13 4 3 5 -8 -16
1532264694878429 7 -9 -38 -2 -3 -3 1 2
1532264694901364 0 18 -13 -4 -1 5 0 -3
1532264694922308 11 10 2 3 1 2 2 10
1532264694968185 4 36 -8 -10 -3 -3 -1 5
1532264694982147 22 16 14 -6 -1 0 -5 15
1532264694996110 -25 -26 -12 -7 -2 -13 -5 -23
1532264695020046 5 -2 -19 -3 -4 1 6 3
1532264695064926 15 -10 7 -6 0 -6 -1 13
1532264695077891 5 8 9 1 -1 2 -1 -6
1532264695124766 -4 -8 3 -7 0 -1 -6 -20
1532264695138729 6 23 -17 -1 1 0 3 -3
1532264695169646 -2 9 29 1 -3 -1 -1 -12
1532264695176635 6 -6 -50 87 31 4 1 5
1532264695190590 6 31 0 20 3 4 2 -4
1532264695221507 3 3 37 -5 2 2 2 7
1532264695244446 -2 10 -26 -8 -1 3 0 -6
1532264695259406 0 23 -27 49 9 2 2 -1
1532264695297305 1 -4 68 -43 -11 -3 -4 -1
1532264695319246 -5 -32 -26 -2 1 1 -2 -5
1532264695342185 -5 13 20 7 -4 0 -4 -3
1532264695370110 -2 -6 -20 14 5 0 1 -3
1532264695381091 0 1 0 11 2 1 -2 2
1532264695411001 -1 -4 8 4 1 -2 2 2
1532264695439923 -1 -52 -12 -2 -5 0 0 1
1532264695461865 3 6 10 -10 -2 -3 -1 4
1532264695500761 -1 0 -6 -2 -1 -1 -3 -1
1532264695521705 -1 6 -3 4 2 1 3 0
1532264695559603 0 -13 -7 30 12 2 0 -1
1532264695581545 4 11 7 9 0 -2 0 1
1532264695604483 -2 0 -5 5 -4 -1 -1 -1
1532264695641385 -3 -4 -19 -21 -16 -7 -4 -1
1532264695655347 5 11 9 54 19 6 4 3
1532264695672302 -1 -1 24 -16 7 0 2 0
1532264695724177 1 -1 8 72 17 4 2 2
1532264695762062 1 0 0 12 13 1 3 1
1532264695775028 -1 -1 3 -20 -13 -6 -3 -1
1532264695784002 3 1 -4 -5 4 4 2 1
1532264695800958 3 54 1 -8 -2 6 0 0
1532264695823897 0 -1 7 11 -10 0 0 0
1532264695851822 -2 -4 17 23 17 2 -1 0
1532264695865784 9 6 1 11 -2 -3 -2 1
1532264695895705 -7 -14 -16 -9 0 0 -1 -9
1532264695934601 -12 -28 -12 -10 2 5 0 -2
1532264695955545 1 -13 -22 -34 -10 -5 -2 -2
1532264695978483 14 25 13 9 2 -3 -1 3
1532264696015385 -5 -53 0 -7 -5 -1 2 3
1532264696024363 -10 -25 -12 -12 1 -2 -1 -7
1532264696083203 8 -1 15 10 -1 -1 -1 0
1532264696092179 1 8 5 -3 -1 0 1 -1
1532264696122099 4 -9 0 -6 -1 3 8 5
1532264696144040 1 22 -4 -6 -7 -1 -4 7
1532264696181939 -3 30 0 -6 -5 -6 2 -5
1532264696211859 0 -17 -5 -10 0 0 4 5
1532264696277683 0 26 9 27 25 -4 -7 -14
1532264696292644 16 21 -6 -7 0 1 2 12
1532264696340518 -2 -8 0 -15 -7 6 20 21
1532264696361459 -1 -14 2 -2 -10 -6 -10 -57
1532264696384398 -1 -1 -4 4 -1 0 -2 4
1532264696398360 8 0 10 25 7 1 1 7
1532264696407349 5 9 1 3 5 1 2 7
1532264696431273 -7 -13 4 0 -5 0 4 17
1532264696483134 -3 -6 -7 -14 -7 0 4 -11
1532264696526019 13 36 23 15 10 6 4 9
1532264696540984 -2 -3 4 8 4 0 4 1
1532264696585859 -11 -50 -8 -4 -4 0 0 -1
1532264696654675 16 35 13 5 -2 -4 -3 -16
1532264696728478 2 -7 -18 -4 3 1 1 -1
1532264696803277 -19 -13 -8 -9 -6 -4 -3 0
1532264696841177 9 18 10 2 -2 -3 -1 -7
1532264696863117 -6 -16 -14 -10 -1 1 -1 31
1532264696960856 -25 -13 5 3 3 1 -7 -29
1532264696983794 -8 -11 -16 -12 -5 -2 -1 5
1532264697074552 10 16 5 -1 0 3 2 5
1532264697103475 -16 -36 -35 -11 -1 0 -3 -6
1532264697141374 6 25 19 7 0 0 2 1
1532264697186254 -2 3 9 -4 -2 0 -3 0
1532264697201213 -2 -6 0 0 -1 -1 2 -2
1532264697261053 -10 -16 -9 -5 -1 0 3 -3
1532264697305933 5 -4 -1 -3 0 -3 0 0
1532264697320893 0 3 -5 -6 -6 -2 -2 0
1532264697351810 -8 -7 3 -8 -4 -1 0 -2
1532264697380734 2 9 -3 -20 -1 -2 -4 0
1532264697411651 3 5 4 28 6 2 1 1
1532264697425614 4 -10 -32 3 -3 0 -3 1
1532264697463512 -5 -6 -10 2 3 -2 4 -1
1532264697523352 2 -12 -2 -4 -1 1 -2 0
1532264697554269 9 9 28 16 -1 -3 -1 -2
1532264697583192 -4 -11 15 -10 -2 -1 -2 1
1532264697606131 -9 -9 -9 9 0 2 -2 -3
1532264697629070 -3 4 23 -17 -4 0 0 0
1532264697652008 1 -13 7 -5 -2 0 -1 -1
1532264697665970 2 10 -15 7 7 2 1 0
1532264697680945 -1 -3 -18 -15 -5 -5 -2 -1
1532264697711858 -2 -2 -24 -8 -2 1 1 -1
1532264697725811 9 43 -15 -3 -2 -1 0 4
1532264697802605 -4 -19 -4 16 1 2 2 -3
1532264697816568 3 7 20 5 -1 -10 2 5
1532264697831528 -7 9 107 3 -2 -5 -1 0
1532264697853470 7 -16 5 -7 2 -13 -1 -2
1532264697883389 14 -6 14 2 2 -5 -4 -1
1532264697906328 3 4 -68 -7 -2 -1 1 6
1532264697922285 -1 -6 -88 5 1 5 0 -4
1532264697943230 -6 7 30 -3 2 0 5 0
1532264697967165 -5 -1 -4 1 -3 1 -3 0
1532264697989107 -1 11 -87 -1 1 -2 0 -9
1532264698004066 -4 -1 21 10 4 2 -1 -3
1532264698034984 -9 -11 72 -21 -5 0 -1 3
1532264698086845 -2 0 7 -5 1 -2 0 1
1532264698131726 8 -9 -28 -11 -7 -9 -1 -1
1532264698206528 1 3 5 1 -4 -9 -5 1
1532264698297300 -7 -7 3 -2 -4 -11 -2 -20
1532264698334184 -3 -3 -15 6 -1 -3 -6 -35
1532264698364111 -2 16 19 2 -2 4 4 9
1532264698423950 4 1 8 3 4 14 3 4
1532264698485778 -6 -1 -2 2 -3 -5 8 12
1532264698506722 2 7 6 0 -1 -15 11 -29
1532264698542627 12 -12 -13 -2 2 36 -9 -3
1532264698589501 -8 0 16 2 -2 14 -1 -15
1532264698625405 -3 6 8 1 2 -7 5 -2
1532264698649340 9 -6 -9 1 10 -9 -1 -35
1532264698663304 -14 10 13 -5 -31 -3 -14 25
1532264698746082 -20 0 0 3 -5 -51 -24 -6
1532264698782998 -7 -14 -29 0 2 -1 -12 -3
1532264698805922 17 3 38 10 1 -9 33 41
1532264698842824 17 18 5 -6 2 25 -12 26
1532264698865762 -11 -15 -20 -3 3 25 -5 -35
1532264698911640 14 -8 -4 0 -3 -8 -8 8
1532264698926600 -5 -3 13 -1 -1 -26 -10 -12
1532264698932584 1 4 -34 1 7 75 44 48
1532264698971484 1 0 -9 2 2 -17 -7 -24
1532264698977463 -6 -1 14 -1 -2 -23 -13 -16
1532264699009378 9 -2 9 3 3 95 10 -18
1532264699031320 -11 -3 -18 3 -2 -44 -17 -52
1532264699069218 -6 -4 -7 -2 -2 -11 -4 -2
1532264699114098 -12 4 27 1 -2 14 -14 -57
1532264699131054 -8 -2 26 2 -3 -12 -4 -33
1532264699165960 -5 -3 0 0 -1 0 1 -9
1532264699188899 -3 2 18 -3 -2 -17 -1 4
1532264699225800 4 -14 11 -2 -3 12 -1 32
1532264699249736 17 1 4 -2 -3 1 -1 15
1532264699286637 -1 5 -21 2 0 1 1 2
1532264699292621 -3 -1 47 -2 0 -5 1 2
1532264699331517 -3 12 13 7 0 -21 -3 1
1532264699346477 -6 2 -47 -3 4 35 5 -7
1532264699369416 1 -2 6 4 -3 3 4 23
1532264699430253 -4 -5 -15 -4 0 1 0 -3
1532264699489095 -14 2 -5 1 -5 -3 1 -9
1532264699512034 2 2 -4 -2 -3 -1 -4 -3
1532264699585837 -5 1 0 8 20 13 3 -2
1532264699631714 3 -1 -2 -1 -11 2 1 1
1532264699668616 -3 0 0 -3 -1 8 3 -2
1532264699691555 -5 -8 -1 2 0 5 0 -1
1532264699728455 1 0 6 21 -6 0 1 1
1532264699765357 -6 -15 -4 -9 0 2 0 -1
1532264699788295 -3 -2 1 6 -1 -5 -4 -3
1532264699825197 -7 -24 -17 6 4 6 2 3
1532264699834173 -7 -49 -14 -1 -1 -1 -2 -3
1532264699872071 -1 9 27 29 8 -2 1 0
1532264699894013 3 15 -30 3 2 1 1 0
1532264699961831 -4 5 58 -7 -4 -1 0 2
1532264699976801 4 -5 -24 -4 4 -4 2 2
1532264700014691 -2 18 48 -1 2 2 0 -2
1532264700074537 -3 10 0 -3 -6 -4 1 -4
1532264700134370 3 24 -3 1 2 -3 -2 -1
1532264700171271 1 21 0 16 8 2 -3 1
1532264700195207 -4 -32 36 -4 -2 -3 -5 -1
1532264700231111 1 23 -36 -3 -3 -1 0 0
1532264700256044 -1 -5 29 -6 -8 -3 -2 -1
1532264700291949 -4 -21 -35 -11 -10 -3 1 -1
1532264700336829 -2 -1 2 -7 -6 -2 -2 -5
1532264700389688 0 33 20 5 -2 2 0 1
1532264700396669 3 12 -38 -8 -2 -2 2 1
1532264700450535 0 -15 -1 -1 0 -1 0 1
1532264700495405 -5 15 12 -9 -3 0 -2 -4
1532264700531308 2 -11 -33 3 -1 1 0 0
1532264700616082 -1 0 -3 2 -2 -2 -4 -1
1532264700622066 -2 -12 -66 3 0 -3 0 -2
1532264700651986 -1 5 -25 -2 1 5 2 26
1532264700673929 -9 -25 -7 2 2 -20 -16 1
1532264700741746 -4 -80 52 -3 -4 17 2 16
1532264700779644 -3 -29 -128 -37 1 -9 -7 -5

1532264700824525 3 2 -4 22 0 -2 -3 5
1532264700891346 1 1 41 -8 -3 2 0 0
1532264700929244 -3 -1 -40 13 2 -2 0 -4
1532264700937223 -2 2 -64 1 -4 3 -1 -1
1532264700967143 -6 -5 -50 -11 -2 2 -4 -5
1532264700999058 -16 84 16 4 2 7 19 24
1532264701003047 1 65 3 -12 -6 21 46 43
1532264701019161 -3 -10 -97 0 3 -2 -23 -4
1532264701051080 -3 -22 82 14 3 2 -17 -9
1532264701058062 -5 -23 -45 -3 -3 -21 -9 -28
1532264701080010 7 -31 -116 13 -1 -5 -11 -8
1532264701095957 0 -34 -18 -6 5 1 -4 -6
1532264701124881 -1 11 98 -1 -7 -3 -1 -4
1532264701146826 0 -3 -5 9 2 2 -2 -1
1532264701184720 0 3 15 -9 -7 -2 11 0
1532264701206661 4 0 -21 -7 9 4 2 -2
1532264701236582 7 8 9 -30 -7 0 0 -1
1532264701250544 -4 -13 3 14 -9 -4 -1 0
1532264701281462 -1 -6 -23 -5 -1 -2 -3 -2
1532264701310384 -6 -3 76 -23 -8 -2 1 -4
1532264701334321 5 -1 -3 -8 17 6 2 1
1532264701357259 -2 0 52 -18 -6 -7 -2 -1
1532264701370224 1 7 -30 -10 -10 2 -2 -2
1532264701394160 4 34 -1 -2 -6 -3 -2 -1
1532264701416102 -7 -1 -50 -2 -14 -1 -1 2
1532264701461978 -7 -13 -46 -2 -5 5 -1 -2
1532264701467963 1 19 -6 -3 -9 -8 -2 -2
1532264701490902 2 -35 9 -2 -9 -9 -2 -3
1532264701513840 -3 -9 -41 -6 2 -2 -2 -1
1532264701520822 -2 -10 -73 -9 -3 0 0 -3
1532264701538774 1 16 -1 -24 -19 -4 2 11
1532264701560715 -2 -12 -16 7 4 2 -1 -1
1532264701580662 0 6 42 0 -4 -9 -7 -6
1532264701598614 -19 0 15 6 4 2 2 -11
1532264701620555 -14 -24 -2 1 -4 -2 5 51
1532264701640518 5 24 16 5 -2 -1 1 -11
1532264701658453 10 -47 15 2 -1 1 -3 -1
1532264701681392 3 16 6 0 -3 -2 0 -5
1532264701702350 7 11 3 0 -2 -1 2 -3
1532264701718305 12 4 2 1 -1 -1 -3 -5
1532264701741233 4 9 45 3 0 0 0 3
1532264701762177 9 5 -9 1 1 0 2 13
1532264701778133 -4 -5 -6 -4 -4 -2 -4 -1
1532264701801072 -6 0 -6 -1 2 0 1 -3
1532264701820022 4 4 0 1 0 -3 -1 -1
1532264701837974 -4 1 -9 -3 -3 -3 0 -4
1532264701860913 -7 1 -2 0 -2 -2 -2 -6
1532264701880859 -3 3 1 0 -6 0 -3 4
1532264701898811 -22 -17 -4 -3 -3 -3 -1 -7
1532264701933718 -6 -1 -6 -5 -11 -3 2 -2
1532264701956656 -2 3 -1 -1 -1 -1 -1 -1
1532264701979595 -4 -1 -1 2 0 -2 2 1
1532264702016496 8 17 12 5 6 33 41 20
1532264702039435 2 -8 8 2 5 -15 -14 14
1532264702077333 -3 1 -12 9 10 0 2 5
1532264702099274 -1 -1 -1 -14 -6 -2 -14 -5
1532264702122214 -2 -1 10 5 -1 -4 -4 -4
1532264702137174 -1 -4 -3 3 5 -1 -2 3
1532264702182077 4 8 11 25 11 4 3 2
1532264702196016 2 -1 3 20 -2 -1 -1 2
1532264702218954 -15 -12 -6 -9 -10 -2 -4 -7
1532264702241896 2 2 -2 -4 -3 -7 -16 -2
1532264702279798 -2 -2 -6 1 -32 0 5 -1
1532264702292758 -4 -6 -2 -41 -17 -11 -4 -5
1532264702339632 4 6 -18 34 32 19 5 3
1532264702352597 2 9 -33 -21 -11 -14 -5 -1
1532264702399472 1 -9 54 -12 -3 -7 -9 2
1532264702459312 -2 -10 62 23 9 6 1 -1
1532264702482250 -4 4 98 -3 5 7 2 -1
1532264702520150 -6 -11 -64 -5 -4 -3 -3 0
1532264702533115 5 18 -38 -3 -2 0 0 7
1532264702556053 -9 -1 49 -2 -7 -7 -2 -8
1532264702579989 2 8 -75 8 1 3 -1 0
1532264702601931 6 -1 51 16 5 3 1 0
1532264702622875 2 7 11 12 -11 -7 0 0
1532264702669749 -3 -4 11 -31 -16 -20 0 -2
1532264702759524 -9 4 38 -6 3 13 -10 0
1532264702864244 6 13 -30 8 -4 -9 13 -7
1532264702924101 -1 13 -58 6 5 -8 1 -16
1532264702983924 6 -7 -11 -1 3 -1 8 13
1532264703036783 -1 14 34 -3 5 4 3 10
1532264703104602 2 3 8 3 0 3 1 0
1532264703126543 3 33 7 0 1 0 1 6
1532264703201343 9 -12 -6 -4 -1 -4 -5 -3
1532264703240239 9 -43 -5 -13 -2 -2 -2 -2
1532264703261183 -12 -9 3 13 3 1 1 0
1532264703284127 0 11 12 3 0 -1 1 0
1532264703329002 6 9 -8 4 -1 -1 3 -1
1532264703343962 -9 2 10 -1 -1 1 -2 1
1532264703403801 -18 4 28 7 4 7 4 -5
1532264703435716 2 -12 -14 -5 1 1 0 19
1532264703478601 4 -3 20 6 1 -5 1 -1
1532264703509518 6 45 -47 -10 -2 -6 -3 -4
1532264703539438 -6 -41 23 5 2 2 3 6
1532264703592297 4 -24 12 -30 -4 -3 0 0
1532264703621220 -18 27 12 3 3 9 5 2
1532264703668094 1 -22 -37 0 -6 0 9 -13
1532264703674079 0 9 31 1 1 20 3 4
1532264703703998 8 9 -30 9 0 6 -2 -7
1532264703756857 -12 -3 -8 -1 0 2 -2 13
1532264703786777 0 -16 -35 1 -1 1 2 3
1532264703832655 7 -28 27 49 26 17 9 8
1532264703884516 2 -14 -18 -23 -2 -1 -2 -2
1532264703921417 12 -7 2 -7 -3 -1 1 13
1532264703944356 4 -4 42 -2 0 0 1 3
1532264703958318 -1 4 13 0 -3 -2 -2 -2
1532264704012175 4 14 11 12 1 -1 -2 -2
1532264704026137 4 9 6 -9 -4 -2 1 -2
1532264704049076 -3 0 1 -10 -4 0 2 1
1532264704071017 -2 5 -13 -9 -11 -7 -3 -1
1532264704138836 -3 5 31 7 -1 -3 -2 -1
1532264704281455 0 2 14 12 -2 -3 0 -8
1532264704304393 4 0 3 4 -4 -1 -1 4
1532264704348276 0 0 -15 5 2 0 0 0
1532264704364233 2 -46 1 0 -1 0 -3 0
1532264704401134 -5 14 12 10 3 4 2 5
1532264704424073 0 31 -8 9 2 -1 -1 4
1532264704438036 12 -32 3 5 3 -3 0 7
1532264704460974 -7 7 16 -12 -5 -1 2 13
1532264704482915 -13 -63 -17 -1 1 4 0 -4
1532264704499870 6 8 11 16 1 -4 -2 3
1532264704520814 -3 7 -9 -2 -1 1 -8 -18
1532264704544750 -3 -2 2 2 -2 2 -6 -40
1532264704604590 10 35 36 1 0 5 10 27
1532264704626532 9 -28 -12 6 0 -3 4 2
1532264704664431 6 2 18 -9 -1 -2 -9 -4
1532264704694350 19 12 -1 -3 0 0 -1 37
1532264704723273 0 -27 -13 -6 -6 -3 1 0
1532264704754190 -2 18 1 -3 1 -2 0 -12
1532264704792089 -13 -6 -1 1 3 -2 0 -11
1532264704814030 -12 -21 -1 -12 -14 -10 -2 11
1532264704903790 -12 -34 -21 -3 -6 0 0 8
1532264704933710 13 24 6 -5 -8 -7 -14 13
1532264705008510 5 -22 -8 15 2 -2 -1 -33
1532264705084307 7 12 11 9 0 -1 2 7
1532264705248867 -2 -4 1 3 -3 -7 -3 -3
1532264705331646 -3 -4 -5 -25 -4 2 -2 -2
1532264705383508 -4 -20 0 -3 -2 -2 0 -3
1532264705437365 -4 5 -5 -8 -1 2 0 -4
1532264705512164 -4 -4 -15 -24 -4 -11 -2 -2
1532264705563027 -5 3 16 -14 -3 -4 -3 -3
1532264705586964 2 36 76 21 5 -2 2 2
1532264705637828 -8 -7 -33 -2 2 -1 -1 2
1532264705661763 9 8 42 -14 1 0 1 0
1532264705676723 6 -8 2 16 3 0 0 5
1532264705693678 4 -12 -23 -19 -7 -1 0 -3
1532264705737561 5 3 13 -6 -3 0 -3 0
1532264705751523 4 17 41 -9 1 5 1 -2
