1532257755802810 -11 -16 8 49 16 3 3 -4
1532257755814775 -6 -14 -1 -5 0 -2 -2 0
1532257755845692 5 20 0 4 -4 -4 -2 0
1532257755932459 -2 -66 -21 -5 -5 -4 -1 -1
1532257755949414 3 30 -7 -3 4 -1 -2 -3
1532257755972353 -1 -4 15 1 -5 0 0 1
1532257756011249 -2 7 -20 3 -5 -2 -3 -2
1532257756018246 -1 -11 -21 -8 -6 -4 -6 -7
1532257756040171 0 -7 1 1 1 0 1 1
1532257756063110 -4 -1 22 2 -4 -2 0 -1
1532257756078070 -1 -42 -7 -1 1 1 1 1
1532257756100011 -2 -7 -6 -6 -1 -1 0 0
1532257756122950 -1 -5 -26 -3 -1 -2 0 0
1532257756136913 1 16 -5 3 2 1 0 2
1532257756168828 -3 -11 2 0 -2 -1 1 -13
1532257756243628 0 16 11 -2 -3 -1 -1 2
1532257756256593 2 -3 0 0 0 0 1 1
1532257756303467 0 -1 2 -2 0 -2 0 -1
1532257756362309 -1 -9 8 -10 -10 0 0 1
1532257756437110 2 25 94 22 13 -2 -2 -1
1532257756482987 -4 -13 72 -6 -7 2 -1 -1
1532257756519889 4 17 30 19 32 9 2 2
1532257756723345 2 -4 -26 7 22 12 4 1
1532257756746283 -11 -11 30 11 21 2 -2 -5
1532257756806124 -1 -20 7 -5 -4 1 1 1
1532257756901867 -9 -30 -92 -31 -26 -9 -5 -2
1532257756961707 -1 -71 -20 -14 0 0 -1 2
1532257757052474 -4 4 9 20 7 6 -1 -2
1532257757105324 -1 -18 -7 -1 3 13 4 -2
1532257757211040 -3 48 -6 -17 -2 -4 -4 -2
1532257757225006 -6 -22 -19 9 5 -3 1 -1
1532257757233979 -1 -13 22 8 -3 -10 -3 0
1532257757270881 17 10 28 -1 4 11 1 4
1532257757293819 -6 5 14 -3 0 32 5 1
1532257757330720 15 2 4 -26 -4 9 2 5
1532257757344683 -13 -32 -24 -9 -2 -18 -5 -5
1532257757353660 2 -26 -14 -17 -8 8 -5 -5
1532257757405521 2 11 3 -4 2 85 22 1
1532257757430453 39 49 -44 -51 -8 -24 -7 6
1532257757473339 4 16 -3 -4 -15 2 3 2
1532257757511238 -12 -25 12 -23 -2 -17 -2 -5
1532257757578059 -10 9 81 -19 -3 -3 0 -3
1532257757594016 -12 -26 20 18 7 -10 -6 -3
1532257757654854 -4 -70 -54 0 4 4 2 2
1532257757689761 -5 -39 -6 -4 6 2 4 1
1532257757743616 0 0 -13 10 6 0 -2 1
1532257757773537 -1 8 -61 -5 0 -6 -1 -3
1532257757810438 4 45 -6 4 4 2 3 5
1532257757878256 -10 -70 -43 -1 2 0 4 4
1532257757893216 7 -41 20 12 0 -2 -2 -2
1532257758146538 -3 -10 7 1 4 2 0 2
1532257758285168 2 26 4 1 0 1 5 -4
1532257758350992 -1 -8 -3 1 -1 2 39 9
1532257758433771 -4 -6 -2 -2 0 0 8 -4
1532257758455712 -3 -7 -5 -1 -1 -6 4 5
1532257758493611 -8 -22 -30 -9 -3 -2 -2 -3
1532257758515552 -1 0 -16 0 1 1 0 3
1532257758549462 0 -2 -3 -1 0 0 10 4
1532257758567413 1 -10 -4 -10 -3 2 21 2
1532257758651189 -5 2 3 1 -3 -4 -3 -1
1532257758673131 7 -13 4 11 4 -2 -52 -19
1532257758762891 -16 7 -7 -3 -4 -5 -13 -3
1532257758778848 -8 -32 -11 3 -5 -24 -15 -5
1532257758794805 5 -21 -84 -3 0 6 -15 -4
1532257758802800 -4 -17 -2 -1 -2 8 -33 2
1532257758841680 0 -5 -7 -11 -7 -11 -47 1
1532257758875589 -7 -5 28 -6 2 2 -15 1
1532257758896533 3 5 11 5 -3 -8 26 -6
1532257758952401 7 -26 3 -10 -4 -21 -58 -8
1532257758958367 -8 58 14 2 9 37 64 -8
1532257759019214 3 33 1 1 -10 -36 -55 -1
1532257759058101 -12 -12 36 4 -5 -5 -30 -6
1532257759087024 -12 15 8 7 5 13 24 2
1532257759123925 -9 23 20 5 -2 -30 -68 -12
1532257759152851 5 -12 11 -1 1 14 23 4
1532257759175787 -3 -12 -31 -7 -6 -22 -46 -24
1532257759229643 -8 -3 -18 -14 1 17 -11 0
1532257759266544 3 10 -8 -6 -6 8 57 4
1532257759295467 -4 12 6 4 -2 2 31 6
1532257759309429 8 22 7 -8 0 -4 6 4
1532257759318418 3 5 6 -3 -1 0 12 -3
1532257759335360 19 28 -2 -2 3 -2 -7 5
1532257759387221 0 1 -5 1 -7 2 -63 -5
1532257759409162 12 18 10 12 1 0 -4 8
1532257759423125 6 29 -1 -21 -4 -4 8 1
1532257759438085 -2 -1 10 -6 -1 -3 -21 0
1532257759461024 3 0 -1 18 4 -5 -16 -1
1532257759498923 9 15 0 -6 0 2 4 -4
1532257759543802 -8 -20 -8 -10 -2 -34 8 -7
1532257759587685 -10 5 -4 -6 -5 -49 -53 -4
1532257759639547 1 -5 -11 0 -7 -83 -42 -8
1532257759670464 30 6 3 -5 -26 4 -24 -2
1532257759716342 0 -15 17 9 7 16 24 11
1532257759729307 21 -15 -9 -8 -2 -8 -62 -22
1532257759738283 -3 22 6 2 4 -11 0 -3
1532257759776181 -2 2 3 6 -10 -38 -3 2
1532257759789146 -4 2 13 -4 -2 106 -11 -7
1532257759822059 3 12 6 0 11 94 39 5
1532257759859957 -2 -8 -6 0 6 16 22 -3
1532257759879903 -3 -8 5 -2 3 12 -18 0
1532257759917802 -3 14 6 6 5 14 5 1
1532257759940741 -4 8 2 -1 -4 -11 8 4
1532257759991605 -3 10 1 2 7 31 58 2
1532257760015541 5 12 4 5 1 -3 3 -1
1532257760052456 -5 -21 -8 1 1 -11 -4 1
1532257760075381 -2 5 -5 0 1 14 1 1
1532257760097323 0 16 -1 -1 -2 11 -5 -1
1532257760121258 -1 -32 -1 0 0 -2 3 0
1532257760135221 -7 -33 -6 -1 -1 0 -6 -2
1532257760158160 4 17 4 1 0 -3 -3 0
1532257760173120 -3 9 1 -3 -6 -23 -1 0
1532257760195060 -2 17 0 -1 1 -13 -3 -2
1532257760218000 2 -30 0 0 -1 -4 2 1
1532257760254900 -2 -8 0 -3 -4 -8 6 0
1532257760277839 0 -7 -1 -1 3 19 9 0
1532257760314740 -3 -2 0 1 1 2 -4 0
1532257760337680 -1 3 -2 1 0 7 -2 -1
1532257760375578 -1 4 -4 -2 -3 -9 -3 -1
1532257760397520 -7 -7 -9 -5 -2 1 0 -4
1532257760411482 2 4 -3 -5 -2 -1 -1 0
1532257760435425 2 -3 -1 -2 -1 -1 -2 0
1532257760466336 4 7 7 1 -1 2 1 1
1532257760480298 -7 -34 -3 -5 -3 -2 -5 -9
1532257760518206 0 12 3 -1 -1 -2 -1 -1
1532257760578037 -47 0 2 -4 -2 2 -6 -29
1532257760592000 -16 -15 -2 1 -1 -4 0 -7
1532257760614938 16 11 -4 -1 1 -9 -10 9
1532257760637878 -7 -1 32 0 -6 -2 1 -10
1532257760674778 62 20 21 -2 0 4 5 30
1532257760742597 15 -4 -11 -5 -2 0 0 8
1532257760780496 -94 -23 4 -5 -6 -5 1 -17
1532257760795456 -5 0 -1 -6 -3 -2 -11 -10
1532257760817397 2 -12 -5 3 1 2 -1 1
1532257760855296 27 14 5 -11 -3 0 9 6
1532257760877237 37 3 -6 -8 -4 -4 4 24
1532257760901173 -4 -9 0 0 0 2 -1 11
1532257760915136 -1 -14 -7 -12 -2 1 -2 -13
1532257760946053 14 17 -15 -4 0 1 13 6
1532257760974975 -32 15 32 2 -3 -2 -1 -6
1532257761042794 24 7 6 5 3 2 -3 -1
1532257761052767 0 0 -6 -3 -2 -1 -4 -5
1532257761088671 4 -5 5 1 1 0 1 -4
1532257761117593 6 -10 -10 0 0 -14 -2 2
1532257761163471 22 -12 -11 -2 -4 -1 -3 1
1532257761208351 -11 2 1 1 1 2 -11 -13
1532257761237274 -18 27 -6 -3 -2 -50 2 -4
1532257761262208 -8 3 2 12 6 1 3 -1
1532257761300105 14 -2 8 -12 -5 11 16 9
1532257761312074 20 33 0 -5 -2 10 -3 -5
1532257761337008 -8 -3 -7 -7 -6 22 3 2
1532257761357951 0 6 1 10 4 -3 7 3
1532257761380890 4 -6 0 -2 -1 0 8 9
1532257761394853 -12 -33 -3 16 6 4 9 3
1532257761454693 29 -16 5 1 -4 -2 -14 -2
1532257761560410 -9 11 -4 -10 -2 3 -2 -3
1532257761621247 -21 1 6 5 0 -1 2 -1
1532257761694052 -19 7 5 1 -1 -10 -2 5
1532257761717989 7 -14 1 4 1 2 -2 1
1532257761777829 28 -1 -2 -1 3 6 8 8
1532257761800767 4 6 3 2 1 -9 -12 -7
1532257761823706 -18 -15 -1 -1 -2 -7 -14 15
1532257761883546 -20 -8 -4 -6 -3 10 35 -12
1532257761981284 -13 7 -1 -21 -9 0 2 21
1532257762017189 -2 -2 -14 -21 -4 -5 -7 -6
1532257762063072 -20 -17 -13 -15 -3 1 -1 1
1532257762086011 23 -27 11 5 0 -3 -5 -11
1532257762122912 -14 7 -7 -3 -1 -2 1 1
1532257762205706 8 -1 7 -3 2 2 1 -2
1532257762243604 -14 7 43 1 -2 -2 -2 -3
1532257762303445 19 15 -5 1 2 0 -1 18
1532257762317407 -11 0 -2 -1 3 1 -3 -36
1532257762340345 -14 -6 -5 -1 -2 -4 2 16
1532257762364282 28 -54 -11 -3 -3 -7 -3 -9
1532257762431103 31 44 8 21 13 6 10 -2
1532257762475988 9 -31 4 -13 -6 -3 -32 -19
1532257762543802 9 18 -4 -1 -1 -3 -5 4
1532257762571727 -5 -14 -11 15 6 3 16 -4
1532257762633562 -10 -25 3 -3 -1 -3 -8 4
1532257762695412 -6 1 7 7 0 10 74 4
1532257762716340 -1 -1 -10 -11 -2 9 -28 0
1532257762768202 -5 10 -1 -5 2 -1 8 1
1532257762865940 1 -21 -7 -6 -4 -1 0 0
1532257762903838 -2 2 -8 -4 -3 0 -2 0
1532257762925780 -1 -6 -2 4 -1 0 -1 1
1532257762970660 4 12 -7 -5 -3 -1 0 0
1532257763045460 -2 -1 -52 -5 4 0 2 0
1532257763128239 2 9 2 3 0 -1 -1 0
1532257763145194 16 -16 -21 -8 0 0 -1 1
1532257763232959 8 2 -11 2 3 1 -1 0
1532257763428436 -22 67 7 -7 -5 -9 23 60

1532257763623105 0 11 -13 -3 1 -1 -6 -4
1532257763667992 -8 -9 16 4 2 -6 -5 -4
1532257763728829 -3 8 12 14 15 7 5 -1
1532257763742798 -2 -8 -80 5 13 5 1 -2
1532257763801659 -2 1 -26 -10 2 -1 -2 -1
1532257763825596 4 5 -1 -2 0 0 -1 0
1532257763870476 -1 -6 10 6 3 -9 -30 -9
1532257763885450 -6 0 -2 -2 -2 -3 -24 1
1532257763946279 5 10 -1 1 -2 -2 4 6
1532257764028068 1 -9 -6 2 0 0 -6 0
1532257764051006 3 2 5 -8 -4 0 3 0
1532257764087908 -1 -2 -4 0 0 -3 -8 0
1532257764148745 0 1 -1 -2 1 0 3 -1
1532257764231524 -1 -1 -1 1 -1 -2 -1 -2
1532257764247481 0 0 0 2 -1 0 -1 -1
1532257764305571 -2 -2 -2 0 -2 -1 -1 -3
1532257764342472 1 0 -1 1 -1 -1 -2 1
1532257764388506 -1 -1 -2 -2 -1 2 -1 -1
1532257764425408 0 -1 -1 -1 -1 -1 -1 -1
1532257764448346 -2 0 0 0 0 -2 0 -1
1532257764471285 -1 -1 0 -1 -1 0 1 -2
1532257764508450 2 -1 1 0 -1 0 0 -1
1532257764544354 1 1 0 -2 -1 -3 -1 -2
1532257764568291 0 1 0 -1 -1 1 0 -1
1532257764591228 1 0 1 1 -1 -1 -1 -2
1532257764628130 1 -1 0 -2 -1 -1 -1 2
1532257764665031 -2 -1 -1 -1 0 0 0 0
1532257764725692 -2 -1 1 -1 1 0 -1 0
1532257764784536 -1 -1 -1 0 -1 0 0 -1
1532257764831392 -2 -1 -1 -1 -1 -1 -2 0
1532257764861314 0 -1 0 -2 -1 0 -1 0
1532257764891237 -2 -1 0 1 0 0 0 -1
1532257764951073 1 -1 -2 1 -2 0 0 1
1532257764965037 -1 -1 -1 -2 1 -1 0 -2
1532257765070754 0 -1 2 0 0 -1 -1 -2
1532257765108652 -1 -1 -2 1 -1 -1 -2 -1
1532257765144557 1 -2 -1 0 -1 -1 -1 -1
1532257765190450 -2 -1 -2 -2 0 -1 0 -1
1532257765264253 1 0 -1 0 -2 0 -2 0
1532257765324092 -2 -1 0 0 -1 1 -2 -1
1532257765348028 0 -1 -3 0 2 0 0 0
1532257765370967 0 0 -1 -2 -1 -3 -1 -1
1532257765393906 0 -2 0 -1 -2 0 -3 -1
1532257765430807 0 -2 -1 0 -1 1 -1 0
1532257765490647 -1 -1 -1 0 -1 0 -1 0
1532257765504173 -2 0 0 0 -1 1 -1 0
1532257765551046 -1 0 0 0 2 -1 0 -1
1532257765587926 -1 0 -2 -2 -1 -1 0 0
1532257765610864 -1 -1 0 -2 -1 0 0 -1
1532257765633803 -1 -2 -1 -2 -1 0 1 -1
1532257765670705 1 -2 -3 -6 -3 -3 0 1
1532257765716109 1 7 -65 -3 8 8 4 0
1532257765753011 0 2 0 4 19 2 0 1
1532257765826814 -35 -13 -19 0 -3 -23 -14 -8
1532257765873688 -15 -14 -26 -31 -26 -7 -8 2
1532257765895629 -9 -14 -11 -5 9 7 -9 -2
1532257765933528 18 3 -7 -2 -7 8 10 -1
1532257765946494 24 -9 15 44 3 12 20 23
1532257765973422 30 -4 3 7 9 -3 -4 21
1532257765992371 51 8 15 -1 4 8 18 40
1532257766033261 -14 -5 -2 -6 -1 -2 -5 -12
1532257766053208 51 11 -10 -35 -6 8 2 3
1532257766067170 -15 10 14 -4 -2 -3 5 -8
1532257766091118 -3 2 -8 -8 0 8 14 -16
1532257766113048 -33 -9 -4 -2 -1 -2 -13 11
1532257766135993 6 -2 20 50 11 -6 13 -2
1532257766152941 28 8 -5 -8 1 6 23 5
1532257766203806 -23 1 1 -3 3 7 -21 -20
1532257766240707 31 6 19 9 -2 3 8 -4
1532257766278605 -18 0 3 -15 -4 -2 -26 -6
1532257766293565 1 -5 -1 -1 1 3 0 -16
1532257766315506 -15 34 10 10 4 12 15 -32
1532257766338447 9 -33 3 -6 0 -7 6 -5
1532257766360386 -13 4 -1 3 -2 9 -6 -4
1532257766391304 -13 -1 0 -1 2 -1 2 -3
1532257766437187 5 -5 1 2 -1 -5 5 16
1532257766458125 1 2 0 1 3 17 -16 -2
1532257766481063 1 -4 7 0 -4 -9 1 4
1532257766509987 -14 -8 -7 1 3 6 3 1
1532257766533923 9 -33 18 4 -2 -7 6 7
1532257766555864 -15 -83 -5 -9 -2 -9 -2 -8
1532257766600744 0 -8 69 8 5 -61 -5 -3
1532257766631660 -10 9 50 -11 -7 -2 -6 -8
1532257766675544 10 6 -6 -2 1 14 2 4
1532257766712445 6 14 5 7 -3 -4 0 3
1532257766781268 -2 -54 -12 1 1 6 1 -2
1532257766901892 -1 -6 -12 -3 -1 0 -1 -3
1532257766937795 -2 1 -1 -5 -2 0 -3 0
1532257766989656 -1 -2 -1 -1 -2 -2 0 0
1532257767012987 0 4 5 2 2 -2 0 0
1532257767154611 -9 -44 0 3 -1 -1 -1 -5
1532257767178554 13 14 -4 0 2 1 0 3
1532257767215447 1 5 2 -2 -1 0 0 0
1532257767313186 1 20 7 2 0 1 -1 1
1532257767365048 2 6 2 -3 -4 0 -3 -1
1532257767394968 -3 9 -1 -1 -1 -1 2 -1
1532257767434861 1 -6 3 4 1 -1 -1 1
1532257767455805 2 17 2 -1 0 0 0 -1
1532257767485725 11 11 6 -1 -1 1 1 2
1532257767492707 -1 -2 13 6 1 0 -1 -3
1532257767515645 -2 4 -5 2 -1 0 -2 1
1532257767552547 3 4 2 -1 -2 -1 -1 -1
1532257767599421 0 -7 3 -6 -2 -7 -6 -1
1532257767658263 -1 -6 1 5 2 1 1 -2
1532257767695165 -1 -3 3 -1 -2 -1 1 1
1532257767733064 -5 -4 -4 -3 -1 0 -3 -5
1532257767762983 2 12 9 -3 -1 -2 1 -1
1532257767799885 -3 4 -1 -2 -1 -2 0 -1
1532257767852744 4 4 -7 -4 0 1 1 2
1532257767875682 -2 -10 -3 4 0 0 0 -2
1532257767935523 4 12 5 0 0 0 -1 -1
1532257767972424 2 0 0 0 -2 -1 0 0
1532257767995370 -1 -1 -2 -3 1 -1 -1 -1
1532257768041247 -2 4 13 1 -2 -1 -1 0
1532257768099809 1 12 7 2 -2 0 -1 0
1532257768151683 -4 -4 1 10 5 1 0 -1
1532257768272348 -3 -10 -8 -3 -2 0 -25 -3
1532257768318234 -6 4 -2 1 0 1 -4 2
1532257768378066 -4 9 -6 -6 -5 -8 -5 -3
1532257768402019 0 2 5 5 1 -2 1 1
1532257768437922 4 15 -18 -1 0 2 -10 1
1532257768498760 -2 1 17 4 -1 1 23 -3
1532257768558600 -6 -36 -6 5 8 18 55 5
1532257768641381 -1 -20 -3 2 1 2 -5 -4
1532257768678279 6 26 9 -3 0 -19 96 -4
1532257768715181 7 20 -6 7 6 12 -7 3
1532257768746098 3 7 0 1 -3 -21 34 -7
1532257768768040 -12 -5 4 -5 -2 5 -15 4
1532257768805938 14 15 13 7 10 8 1 4
1532257768856957 9 19 42 18 3 9 5 18
1532257768918279 0 -41 -94 0 5 3 -29 -4
1532257768986317 -2 -18 13 0 -3 -12 -42 -6
1532257769157858 2 3 -9 -1 -1 -11 8 4
1532257769353336 -2 -5 -4 4 2 11 -15 -2
1532257769391234 -5 13 -9 6 0 53 -6 -8
1532257769533853 11 -1 -1 5 15 6 -11 3
1532257769549826 -3 4 -2 -3 -8 -39 22 0
1532257769653533 -3 24 3 0 13 50 3 -1
1532257769706392 2 61 7 -13 -7 -20 4 -1
1532257769781363 3 -6 -2 -3 0 0 -6 1
1532257769803307 1 -3 1 6 4 12 13 2
1532257769863146 0 -9 4 0 0 -2 2 -1
1532257769886086 0 28 1 1 0 0 -5 1
1532257769930977 1 -4 -1 -3 0 5 1 0
1532257769996788 2 -3 -1 0 -2 2 13 2
1532257770056629 -1 -2 -5 -3 0 -4 -3 -1
1532257770088543 2 20 -5 -2 -1 1 7 1
1532257770237146 -3 13 11 3 4 4 11 7
1532257770319925 -21 -21 -104 -1 -1 -2 -4 -17
1532257770326906 5 16 11 0 1 1 3 -5
1532257770439605 -32 -13 -25 -3 -3 -3 -6 -13
1532257770472517 -41 34 20 -2 -1 -1 3 -12
1532257770546320 -3 25 -1 1 -1 1 1 -1
1532257770606160 4 -14 0 -1 1 1 -3 -3
1532257770785680 5 -9 -2 3 1 2 0 5
1532257770845520 -10 6 -38 -5 -4 -2 -2 -6
1532257770868471 3 -28 -25 -7 -3 -1 -1 1
1532257770906366 14 13 -96 -17 -9 -2 -2 -3
1532257770928301 -13 28 68 -13 -7 -2 -1 0
1532257770949242 10 -8 -15 -7 -5 -3 0 2
1532257770979162 1 9 -25 5 3 1 0 3
1532257770988137 0 12 -62 -11 -5 -3 -2 -3
1532257771009083 -8 -29 -14 -4 0 1 -3 -6
1532257771047997 20 20 -17 -8 -1 0 5 14
1532257771086874 -10 -38 -15 -5 -3 -4 -3 -4
1532257771099842 -25 -18 -5 -2 -2 1 -1 0
1532257771108816 0 25 -4 -8 -2 -2 -7 -9
1532257771129760 -6 10 4 -8 -2 0 1 -2
1532257771147726 -3 -4 6 2 -3 -4 -3 -7
1532257771182617 10 23 10 -2 1 2 -2 2
1532257771205557 -2 4 -7 -5 -6 -2 -1 0
1532257771228495 -1 -2 -12 -10 -5 -1 1 1
1532257771243572 12 3 21 -4 0 -1 1 4
1532257771288466 5 5 -23 -6 -2 -4 -3 -3
1532257771310424 4 3 -45 -11 -5 -2 -2 1
1532257771333346 6 -11 -3 -3 -1 1 0 3
1532257771362269 -21 24 124 28 6 1 -1 -5
1532257771408146 -1 25 78 -3 -1 -1 -2 -2
1532257771431149 -9 32 -17 0 0 1 0 0
1532257771447107 9 -1 33 6 1 1 -1 -1
1532257771470048 -11 -25 39 5 5 1 2 -1
1532257771504953 1 82 23 8 4 1 3 -5
1532257771513928 18 70 0 -5 -5 -4 0 14
1532257771529886 -13 -99 -2 2 1 -1 -9 -17
1532257771550830 12 -20 5 10 5 2 29 6
1532257771588728 15 -62 -7 -1 3 2 9 10
1532257771601693 0 21 2 -5 -1 0 -6 34
1532257771633608 -1 55 1 -6 -3 0 -2 -7
1532257771648568 10 0 0 0 -1 2 -2 -6
1532257771685485 -4 -9 -1 1 0 -1 0 -1
1532257771708407 6 14 1 4 1 -2 -2 -6
1532257771722371 5 -33 -4 -4 -2 -1 -3 1
1532257771745309 5 9 4 -11 -8 0 -1 1
1532257771768248 -1 -17 2 -5 -5 -2 -1 -2
1532257771782211 1 13 1 4 -4 0 -1 -1
1532257771805149 -3 4 -9 -6 -2 -3 -1 -1
1532257771836067 -5 -61 -10 7 4 -2 -2 -1
1532257771851027 5 14 21 -2 4 2 0 1
1532257771871970 -2 -21 28 15 6 0 -1 -3
1532257771889938 -1 -16 -29 -5 -2 2 0 1
1532257771910867 -4 -40 -4 -5 -2 -2 -1 -2
1532257771948764 2 7 20 24 2 3 1 0
1532257771961731 -9 -42 -1 3 2 -1 -1 -3
1532257771985666 0 13 7 8 1 0 -1 -2
1532257772030547 2 14 13 31 5 0 2 0
1532257772045507 4 16 -8 -12 -5 -2 -3 -2
1532257772068448 -1 -35 -12 -9 0 0 0 -1
1532257772091390 1 -8 -19 -2 -2 0 -1 0
1532257772104349 0 -2 -15 -11 -1 -1 2 -1
1532257772128285 -1 12 15 7 2 0 -1 -1
1532257772158205 -6 -1 -12 -11 -1 -2 0 -1
1532257772164189 5 -3 -46 -1 -2 0 -2 -1
1532257772211064 -2 -1 13 -6 0 -1 0 1
1532257772224982 -1 3 23 -2 -2 -2 -2 -3
1532257772247921 -13 7 3 4 1 0 0 -1
1532257772270859 5 27 12 -8 -5 -1 -1 -3
1532257772284822 0 -14 -2 -2 -1 -1 -1 -1
1532257772308852 2 -32 1 1 1 0 -1 2
1532257772330795 7 44 7 4 -1 0 0 -1
1532257772344758 4 -10 -2 5 2 3 1 2
1532257772368694 -5 -44 -4 -3 -2 -1 -1 -1
1532257772398658 11 82 -11 -1 2 1 1 3
1532257772435559 6 -6 -6 0 2 -2 -1 0
1532257772450528 -6 -16 10 0 -4 -2 -4 -6
1532257772464497 11 -47 -23 -6 4 2 6 5
1532257772511366 5 -7 3 2 0 3 1 2
1532257772524331 12 0 -3 -1 0 1 1 0
1532257772548864 1 0 18 3 2 0 -1 -7
1532257772570807 -2 -1 -10 1 -1 0 2 -1
1532257772584769 -3 -23 -20 -4 -2 -2 -1 -1
1532257772593745 -14 -7 -5 -5 -3 -1 -2 -3
1532257772630647 -9 6 4 1 -2 -1 0 2
1532257772653161 -4 -5 0 -3 -1 -2 -1 2
1532257772691059 -12 0 2 2 6 16 8 -50
1532257772704025 2 9 11 1 1 0 3 -9
1532257772750900 9 12 -6 -4 0 -4 -3 19
1532257772788798 0 14 5 -1 -2 -3 -1 14
1532257772810739 -2 -6 1 -2 -3 -2 5 -8
1532257772824702 -11 3 0 0 -1 -1 -2 -11
1532257772833678 -3 -3 6 1 0 2 -1 -3
1532257772870579 3 -5 -4 -1 0 0 -4 -3
1532257772884585 -5 -1 -2 0 0 1 -5 -7
1532257772899544 -6 -11 0 2 1 -2 -3 -10
1532257772930462 -1 -6 -4 1 3 0 1 -3
1532257772945422 2 14 -3 -1 -4 -1 -3 18
1532257773004264 -1 6 -1 0 0 -3 -6 -18
1532257773013241 -1 -9 -3 -3 -1 -3 -2 7
1532257773030196 -5 -1 -3 1 -1 -1 4 16
1532257773052137 -1 30 7 -1 -2 -1 -3 6
1532257773073091 -6 10 -1 -1 -1 1 3 5
1532257773090047 -15 3 -2 0 0 -2 -3 -32
1532257773118964 5 -12 -26 2 0 0 1 16
1532257773140900 -8 7 18 1 0 2 1 7
1532257773169822 -7 -1 -7 -8 -6 -5 -2 -18
1532257773178798 2 -1 -24 -3 -2 0 4 0
1532257773210713 -4 -5 3 2 0 1 -1 -7
1532257773214702 12 -1 -7 -2 0 -3 4 53
1532257773232654 -4 -20 -7 -2 0 1 2 -5
1532257773255593 9 5 4 3 2 7 11 30
1532257773290535 0 16 12 2 5 36 8 -6
1532257773312476 -11 9 -1 -4 -12 -26 -16 -36
1532257773335431 -2 0 0 -4 2 4 -8 -22
1532257773350375 -6 -11 -9 5 5 1 -3 -12
1532257773372317 -4 -14 28 -8 -5 -4 -5 -18
1532257773410215 -2 -11 -24 -3 -2 1 -2 -4
1532257773433154 -1 5 -34 3 0 -1 -1 -4
1532257773463073 0 -15 -6 2 -6 -1 -2 -1
1532257773500973 3 -3 -11 2 4 -3 0 1
1532257773537873 -2 -10 -31 -2 1 1 -2 -2
1532257773563817 6 -14 -7 3 27 9 3 2
1532257773589734 4 -1 2 26 6 1 2 1
1532257773612673 -2 5 -16 -13 -19 -4 -2 -2
1532257773650572 -1 1 12 -5 6 -1 0 -2
1532257773672514 0 1 -33 6 -6 0 0 -1
1532257773710412 2 13 56 2 0 0 0 2
1532257773741329 -4 11 26 27 3 4 1 -2
1532257773808151 -8 -32 32 -27 8 1 -1 -3
1532257773830092 0 11 -20 -6 -50 -7 -1 1
1532257773889932 4 -8 -31 79 25 5 3 3
1532257773912870 -3 43 38 -27 -2 3 -2 -3
1532257773936807 6 31 -18 -34 -8 -7 -4 -3
1532257773949772 3 13 0 0 13 3 1 1
1532257773972711 0 -3 -3 7 5 4 -1 -3
1532257773995650 5 58 65 -46 -23 -11 -4 -2
1532257774032550 -5 -5 42 6 7 2 1 2
1532257774092391 -3 -12 -123 5 18 5 1 1
1532257774130290 -2 -5 -11 -4 -5 -1 0 -2
1532257774152231 -8 -28 -31 6 16 4 -1 -2
1532257774190130 6 -24 41 13 10 2 2 2
1532257774213068 3 5 22 8 -11 -3 0 1
1532257774236007 -19 5 1 -2 -5 -2 -2 -5
1532257774249970 9 21 -16 -15 -15 -3 0 1
1532257774280887 12 10 52 8 -5 -3 0 2
1532257774295847 2 14 17 -1 34 4 2 1
1532257774309809 -12 -12 83 -19 -25 -26 -1 -3
1532257774332748 4 3 7 13 8 4 3 2
1532257774369649 -11 -25 -2 10 8 5 1 -2
1532257774392588 17 17 -7 -13 -14 -7 -4 2
1532257774415527 1 -20 -10 0 0 -7 -1 0
1532257774430487 7 27 -1 -1 -3 -3 0 0
1532257774452428 -1 5 -56 5 -1 5 -1 1
1532257774483345 1 21 13 1 -2 3 0 -1
1532257774490327 6 37 27 7 1 0 2 2
1532257774512268 -24 -41 -24 -1 -3 0 -7 -13
1532257774552166 -7 -8 7 -8 -4 -7 -24 -74
1532257774565126 2 -36 -19 -4 -3 -12 0 19
1532257774596044 1 -11 -19 1 -1 -1 -2 17
1532257774634939 -13 -15 -1 1 1 -2 4 9
1532257774647906 -15 -15 -10 -2 1 1 1 9
1532257774669847 3 -14 14 -4 -4 -3 3 9
1532257774715724 3 0 3 0 0 0 2 7
1532257774729687 -6 2 3 -4 2 0 0 2
1532257774752642 4 -6 9 -2 -7 2 -2 -2
1532257774775564 1 -17 28 -1 2 1 1 3
1532257774789527 9 13 -7 0 6 -22 9 25
1532257774812466 6 16 8 4 -1 10 2 0
1532257774835404 0 -14 2 1 0 -7 -3 -2
1532257774858343 -2 7 18 5 -2 0 -1 -4
1532257774881281 -11 -45 -35 -13 1 9 1 -1
1532257774910204 -7 -10 -7 0 -1 0 -1 1
1532257774920177 8 4 22 -1 -16 -17 -5 -5
1532257774991985 16 44 38 16 6 -5 -1 0
1532257775000961 0 -25 -6 3 -4 0 2 1
1532257775037870 -6 -11 -66 3 3 -3 -1 0
1532257775060801 -8 14 -55 -3 2 -2 3 3
1532257775083740 17 37 36 21 8 3 5 13
1532257775098700 -4 -44 80 3 -9 -7 -7 -8
1532257775150561 -10 -33 31 1 -2 -2 -1 -2
1532257775219378 2 -18 -39 -4 0 -1 -3 0
1532257775263260 4 -3 19 -1 1 0 1 0
1532257775293180 5 26 7 2 -1 -1 -3 -3
1532257775353020 -7 -23 -5 -2 -3 0 -1 -1
1532257775434801 -7 -7 4 -1 0 4 7 9
1532257775534534 2 6 -7 1 2 -2 -1 -1
1532257775601367 0 3 2 -1 -2 -2 -2 -4
1532257775647233 5 -8 -10 0 0 -1 -1 -4
1532257775668182 -7 -47 -14 -2 -1 -1 0 -4
1532257775706076 3 5 6 0 0 1 -1 -2
1532257775727020 -1 -11 -6 -1 2 0 -15 -3
1532257775752950 2 -12 -5 -4 -2 -4 9 14
1532257775772897 -3 -7 0 -4 -2 -1 5 -6
1532257775818775 8 6 -6 -1 0 -1 -11 19
1532257775831740 -1 1 -11 -3 -2 1 -11 -10
1532257775861660 7 -17 0 3 4 4 7 12
1532257775879612 -9 -22 -9 -3 -3 -9 -11 -4
1532257775923494 6 24 20 1 2 8 11 -5
1532257775968388 -2 5 -7 -2 -5 -7 -18 -11
1532257775975356 -15 -1 48 2 2 11 -49 -8
1532257776028215 13 25 118 23 -1 -37 18 -24
1532257776066113 -9 -80 -128 -15 -3 4 102 -10
1532257776081073 16 27 53 4 2 -5 -31 11
1532257776104012 7 19 -18 -11 -6 -22 -31 -20
1532257776200753 8 2 -22 5 9 18 96 11
1532257776214716 16 36 14 -9 -3 -21 -71 4
1532257776253613 -30 25 15 10 1 -17 -48 -21
1532257776328411 -6 -24 -29 5 4 -11 -4 -3
1532257776357334 0 -25 -7 -6 -7 -22 -17 2
1532257776478012 5 21 4 -10 0 -2 -3 -2
1532257776500951 -12 1 -5 7 -4 -19 -70 -6
1532257776537852 -9 -8 0 2 1 -27 -15 -1
1532257776591708 6 3 27 2 -1 39 15 2
1532257776620630 3 -5 -2 -13 17 86 -46 -15
1532257776643586 1 -17 -8 10 29 43 -8 -3
1532257776659526 22 15 -10 13 -7 -34 25 2
1532257776801147 1 -4 -10 5 -6 -22 -10 -1
1532257776814112 0 8 -27 -2 6 13 -12 -1
1532257776838049 3 -17 -5 -2 8 32 -48 -1
1532257776860987 -8 8 9 8 0 -21 -8 2
1532257776874949 -2 -6 0 -5 -3 21 3 -3
1532257776883926 1 -4 2 5 -3 -19 5 2
1532257776943766 1 6 2 -1 -1 -23 -5 -1
1532257776980668 0 -2 1 0 -1 13 16 2
1532257777003606 0 -2 4 -1 -1 3 7 0
1532257777017574 1 2 4 -1 0 1 5 0
1532257777040507 1 76 13 1 1 3 6 -2
1532257777077409 1 -26 -5 1 -1 1 2 0
1532257777123286 3 -9 -11 0 2 0 2 1
1532257777146225 -21 -3 14 15 2 0 2 -1
1532257777197088 -23 -24 -2 -5 -2 -1 0 -4
1532257777265904 57 11 -42 1 0 -2 6 45
1532257777316768 -24 -10 -1 -7 -4 -11 0 -6
1532257777362646 -33 -34 0 -5 -6 -15 -16 -9
1532257777401542 -54 0 -2 15 1 5 -10 -18
1532257777423483 34 -12 -7 11 7 3 8 13
1532257777483323 30 -34 -36 -1 -5 -3 2 6
1532257777506262 -18 8 25 2 -1 1 -4 -8
1532257777543163 22 0 -15 -2 -2 1 0 5
1532257777557125 -1 1 -26 -10 -4 0 -4 -10
1532257777603004 -9 15 22 5 0 -6 1 9
1532257777640901 -5 -7 4 8 0 1 0 6
1532257777663840 -4 -11 -14 4 2 1 1 10
1532257777699758 11 -10 5 5 3 -45 9 17
1532257777747616 23 10 5 0 -2 2 6 -5
1532257777783520 -18 6 0 -2 -3 7 4 -7
1532257777903201 -35 6 -1 -4 -1 2 -2 9
1532257777969025 -14 4 -35 6 -6 0 -1 9
1532257778059782 -27 -3 75 9 3 0 1 4
1532257778105659 -8 22 13 4 1 1 5 5
1532257778150539 4 -14 -22 -2 -1 -3 1 14
1532257778173478 3 -7 -3 3 0 0 -4 -5
1532257778196416 24 15 1 -2 -1 1 34 21
1532257778239302 0 -13 -4 0 1 9 0 -14
1532257778263237 -5 -8 -1 -4 -4 -2 7 20
1532257778308118 9 -22 4 5 -2 -6 -8 1
1532257778346016 -2 -28 6 -25 -6 2 -6 -16
1532257778382918 9 -2 -1 -4 -1 0 9 8
1532257778405856 7 -3 -20 10 8 1 3 -9
1532257778419819 15 6 -3 -13 -6 -1 2 -2
1532257778443755 8 -24 -7 4 -3 1 -1 -1
1532257778465697 12 -20 -72 35 19 6 2 3
1532257778479659 0 11 40 -7 -6 0 3 1
1532257778488635 -7 5 17 -11 -5 1 0 2
1532257778525536 8 -23 -18 -11 -4 -2 2 3
1532257778539499 9 24 33 -3 -3 -2 -1 -2
1532257778586374 -6 17 -8 1 2 0 -3 -13
1532257778608314 5 -25 32 5 3 -2 1 5
1532257778622277 -28 25 63 2 2 3 1 -1
1532257778659178 -56 74 0 -1 0 1 -4 -2
1532257778683115 -6 -5 -10 -4 -3 4 -2 0
1532257778720016 -3 8 -42 -3 -4 -2 0 -6
1532257778804792 30 -39 6 3 0 0 -41 -14
1532257778885573 33 15 -2 -4 -2 -11 -13 22
1532257778909510 -10 -9 2 6 0 -9 -25 -19
1532257778968364 11 37 22 0 -3 -10 -14 -11
1532257779022208 3 0 -20 2 0 -5 -9 -6
1532257779029190 -13 -34 -33 -3 -3 1 9 -3
1532257779090027 -6 15 4 11 3 -3 5 -1
1532257779134907 5 -2 -15 5 0 1 4 2
1532257779144880 1 16 20 1 -5 -4 0 1
1532257779178789 4 37 29 4 3 0 -5 1
1532257779208710 -1 -23 5 0 -1 -3 -48 -5
1532257779238632 -3 -4 1 -2 0 1 2 0
1532257779253589 3 -9 6 -14 -3 0 10 -1
1532257779290491 -6 12 25 14 6 1 2 -1
1532257779329387 3 -7 0 2 0 2 0 -2
1532257779351328 -2 -1 -4 -18 -6 0 -1 0
1532257779402192 -10 -26 -11 -11 -4 -2 0 -2
1532257779448070 1 21 8 5 0 -2 2 1
1532257779484983 -7 41 3 4 2 1 3 0
1532257779507909 6 23 17 3 2 1 -4 -1
1532257779544810 2 -5 -27 -2 0 -1 -1 2
1532257779568747 5 0 15 -6 0 -2 -1 0
1532257779581712 9 -6 25 3 -2 1 0 3
1532257779596671 7 11 4 -6 -1 -2 -2 1
1532257779658507 -1 1 15 -6 -1 -2 -2 -5
1532257779725328 13 33 10 2 2 0 0 -1
1532257779808107 13 16 -18 1 -1 0 -1 1
1532257779831045 -16 -5 6 3 2 1 1 -3
1532257779845008 -5 -15 3 4 3 1 9 22
1532257779898863 22 5 -6 -3 -3 12 11 -81
1532257779913824 -7 3 -3 0 1 24 17 -48
1532257779964688 -15 -1 -18 -21 -1 -4 -12 -1
1532257779988624 2 15 110 -9 -8 -7 0 8

1532257780010565 -19 -69 -24 17 -2 -8 -4 10
1532257780024527 9 52 -86 -11 1 -4 -3 8
1532257780048464 8 0 -13 -11 -1 3 -1 1
1532257780070405 -16 -47 -28 -12 -6 -6 -3 -9
1532257780116282 9 16 -8 0 1 -7 -9 18
1532257780130245 -5 -14 -5 -1 0 8 3 -1
1532257780152204 9 -5 7 -2 0 0 1 7
1532257780168143 -9 1 4 -4 -1 0 4 7
1532257780190085 1 18 0 1 -1 5 -3 0
1532257780213023 -1 0 -3 2 0 -5 0 3
1532257780249925 7 12 1 -1 0 0 -3 -1
1532257780272866 -1 12 2 -3 -7 -7 -1 7
1532257780287829 4 -9 -1 1 5 9 1 -11
1532257780333707 -10 0 -2 0 1 -3 0 -6
1532257780347669 -7 11 2 1 2 3 1 2
1532257780423475 9 -11 -5 0 -2 0 -1 1
1532257780430457 -5 2 0 1 -2 -7 -3 -33
1532257780452400 -1 7 -1 0 1 0 -4 -14
1532257780490296 -3 -26 -7 -3 5 0 3 -2
1532257780527197 1 15 1 -1 -1 32 3 6
1532257780550136 -1 9 7 -3 -1 -1 1 2
1532257780564099 13 36 18 5 3 -25 5 -1
1532257780588035 -2 -31 -3 -7 -11 -61 -4 3
1532257780609977 -2 7 0 2 -2 5 -6 -1
1532257780632915 -14 18 -13 -5 2 -12 -11 -3
1532257780655854 2 -58 -44 -5 -5 -12 -2 6
1532257780687767 -15 -28 4 3 0 12 1 -3
1532257780694750 7 13 7 2 5 45 1 -12
1532257780730653 1 15 1 -1 -1 32 3 6
1532257780755587 8 -15 6 3 4 6 0 -17
1532257780762568 -7 -15 -1 -6 0 0 -7 -46
1532257780789496 -1 -3 0 0 1 -15 -2 6
1532257780821411 3 1 -21 -1 -3 -2 -2 4
1532257780842355 12 -26 -33 -3 1 -3 4 -14
1532257780864296 -4 4 10 -2 1 2 -6 -13
1532257780879256 7 27 13 2 2 -11 5 6
1532257780918151 3 1 5 0 -3 -2 2 6
1532257780939096 12 2 21 5 -1 5 9 7
1532257780970014 5 -5 -40 -6 -4 5 4 2
1532257780986968 -1 8 33 0 -2 -4 -2 -2
1532257781045811 -1 9 -7 3 1 -3 -3 0
1532257781060771 1 -5 -98 -1 -1 -2 3 5
1532257781105651 0 8 19 -3 0 11 0 17
1532257781119613 2 -1 18 2 4 -8 2 17
1532257781142552 -4 -20 10 0 1 6 -19 -31
1532257781165491 -9 -52 34 -6 -6 -8 -4 28
1532257781187432 -10 6 -2 -5 -2 -16 4 -11
1532257781233309 5 27 -47 8 2 8 4 -12
1532257781295143 6 35 39 -10 -2 -2 2 6
1532257781345011 3 3 -25 -2 -6 -7 -1 3
1532257781359971 0 1 37 -3 4 0 0 0
1532257781404850 0 24 10 5 -1 0 0 0
1532257781426792 0 -1 4 -7 -8 -7 -3 -1
1532257781466690 0 -7 31 6 -3 -3 -1 1
1532257781501591 -2 19 3 49 12 3 0 -3
1532257781525528 2 0 -6 0 0 1 1 1
1532257781555448 0 -1 4 -3 1 0 -1 -1
1532257781570410 0 4 -9 8 0 -1 -3 -2
1532257781593347 -2 9 6 1 -3 -2 1 0
1532257781607309 0 -3 -8 -6 -3 -1 -1 -1
1532257781630248 -3 -4 -10 -23 -5 -4 -2 -3
1532257781653187 4 0 18 1 4 5 2 4
1532257781676125 -6 15 0 -5 -7 -3 -2 -2
1532257781690088 -2 -8 -13 -7 1 0 -1 0
1532257781713027 0 10 2 7 3 3 -1 -2
1532257781749928 1 5 8 -2 -3 -1 0 1
1532257781772867 -4 -5 2 9 16 1 -1 -3
1532257781809768 0 0 -57 -4 -9 -8 -2 -2
1532257781833704 2 -4 44 31 32 10 3 2
1532257781855645 0 5 -37 -15 -23 -5 -3 1
1532257781893544 1 3 28 -8 16 7 2 0
1532257781915485 -5 -22 -19 -9 -19 -11 -4 -3
1532257781976323 5 5 23 -12 -6 4 1 2
1532257782050125 -5 -10 -7 -7 -11 0 -3 -4
1532257782253581 -3 12 16 2 0 2 -1 -1
1532257782372264 4 -3 14 1 5 -9 -1 2
1532257782396200 9 27 21 6 6 -3 -1 1
1532257782433100 3 -14 2 6 3 -4 -1 -4
1532257782456040 -4 -29 -2 -1 -4 2 -2 -2
1532257782470003 -1 1 11 0 -1 1 -1 -1
1532257782492941 3 8 -12 1 4 2 6 2
1532257782499923 -1 -3 -23 -5 -6 -14 -35 -7
1532257782538818 0 34 -35 4 2 -11 4 1
1532257782559762 3 32 15 0 1 16 8 1
1532257782577721 -5 -20 6 -2 -1 7 6 -1
1532257782599656 4 28 22 8 4 -11 4 -1
1532257782674456 8 -7 17 -1 0 -31 0 3
1532257782688419 4 9 2 4 0 -25 -5 0
1532257782726317 -2 -11 -43 -3 -1 -2 -4 -4
1532257782778178 -1 -63 27 4 9 8 5 4
1532257782808098 -12 -4 13 0 -2 23 -2 -6
1532257782890877 -3 -52 -21 -5 -2 39 21 27
1532257782995597 -10 -50 -87 -14 -5 -1 -3 -2
1532257783085366 -3 -8 16 -5 2 -6 4 2
1532257783185090 -31 -10 -38 4 6 3 3 -3
1532257783228972 -11 -50 -38 -9 -5 -15 -4 -5
1532257783288813 -9 -21 -16 -5 -6 3 -3 -4
1532257783355634 2 14 24 1 -2 -1 -1 1
1532257783378572 -5 -1 -1 -5 -2 1 0 -1
1532257783422455 3 -5 2 0 -2 -2 -4 -11
1532257783484290 1 25 -2 -1 0 2 6 16
1532257783594994 11 13 3 2 1 5 31 16
1532257783624914 16 31 13 4 4 3 -3 16
1532257783655832 -31 -37 1 22 13 58 -15 -3
1532257783700711 4 38 -28 -10 -10 -6 69 12
1532257783747586 26 6 92 10 5 15 -128 35
1532257783783490 6 0 11 -9 -1 -31 67 4
1532257783864273 -12 -13 15 4 -16 -22 -128 -37
1532257783904167 12 31 2 10 3 -27 54 15
1532257783977970 -3 3 13 2 0 27 -2 -2
1532257784098647 1 -6 -9 -8 -14 -72 -75 -17
1532257784194391 -15 -27 0 12 11 76 64 9
1532257784254231 10 19 68 43 27 69 -11 -8
1532257784263207 1 36 19 1 -18 -35 11 8
1532257784480626 -7 -48 -14 3 7 -8 2 -3
1532257784623244 4 -14 -1 0 2 49 17 10
1532257784683085 48 9 15 8 7 -9 10 27
1532257784816727 18 21 5 6 2 4 -23 2
1532257784923441 18 41 -6 -1 7 6 13 2
1532257784961340 24 11 7 10 4 -3 3 3
1532257784983281 -19 15 15 3 1 -45 -8 0
1532257785051100 -50 24 -7 3 -2 22 5 5
1532257785057084 15 -31 3 -1 0 1 2 -20
1532257785088998 -26 -4 33 3 0 32 -3 -9
1532257785116924 7 -2 -11 1 2 -17 -9 -6
1532257785133879 -11 -3 4 1 4 5 -6 -4
1532257785176764 19 11 6 -3 1 23 31 15
1532257785200700 19 -4 7 -6 -3 13 -12 -17
1532257785260540 -11 5 -13 -8 -6 -6 -5 -7
1532257785297441 14 -23 -4 -3 -4 -10 1 -1
1532257785327362 -12 0 25 -6 -3 -4 -2 -3
1532257785382230 -10 -17 35 -14 -5 -5 2 -2
1532257785411137 -2 4 -19 -12 1 1 0 -5
1532257785449036 -7 15 60 -10 -9 -3 0 1
1532257785485948 11 6 -41 0 -3 -4 -1 1
1532257785499900 12 -1 22 -2 -1 -3 1 3
1532257785523836 1 -9 4 -5 -3 -1 0 13
1532257785545778 24 -16 21 -2 -2 2 -1 -14
1532257785566722 -6 -7 9 1 2 -12 1 -13
1532257785605617 -5 -1 -8 -1 -2 -4 3 17
1532257785619580 -5 5 5 -1 0 5 5 -8
1532257785643516 -3 17 6 1 4 50 -2 -97
1532257785657479 -59 -31 1 1 -3 -11 25 7
1532257785675431 48 -13 -1 -4 -2 -11 -67 -4
1532257785694397 4 -24 -3 -32 -11 -10 20 31
1532257785726295 -9 12 24 -15 -3 -6 0 -3
1532257785739260 43 10 -3 4 -1 -7 -10 18
1532257785786135 31 -7 -22 23 15 -3 -16 -5
1532257785808075 25 13 65 -6 -2 1 9 3
1532257785845974 -22 33 44 3 -9 -3 -6 -6
1532257785859939 12 -10 -53 -18 -7 -2 3 2
1532257785883873 6 14 85 1 0 0 2 4
1532257785905815 -3 -21 -53 -6 0 0 0 -5
1532257785919778 -5 -12 21 -6 -3 -4 -3 -30
1532257785934737 -19 -3 6 9 4 1 -1 -24
1532257785979617 -4 -21 -65 0 1 2 1 5
1532257786032485 17 -10 -100 -7 -4 0 -3 18
1532257786050457 -15 -3 20 1 1 -2 -4 3
1532257786054428 -14 16 -16 1 3 1 -4 -16
1532257786099308 -6 15 7 1 -2 -1 -1 -29
1532257786108286 -1 -57 -15 -3 0 7 33 33
1532257786146183 -8 74 10 -3 -7 -8 44 -68
1532257786170128 -69 -17 5 -4 -4 -5 -24 -32
1532257786191062 25 -79 16 45 18 5 24 14
1532257786206023 2 -16 2 4 12 6 -11 4
1532257786219998 44 51 1 -11 -7 0 -1 36
1532257786242924 3 30 6 6 6 3 8 0
1532257786249905 -2 22 -13 -9 -7 -5 -21 0
1532257786279825 -12 -1 9 -13 -7 -4 -6 -6
1532257786303762 3 -31 26 -5 -5 -5 -8 -3
1532257786333681 -3 -14 1 2 -3 -4 -14 4
1532257786362604 -1 5 16 6 1 1 0 -4
1532257786408481 -1 16 -14 -21 -10 -3 -4 -3
1532257786422444 2 -12 -14 -12 3 -3 0 -5
1532257786429425 -1 -8 -4 -13 -22 -2 -6 1
1532257786447390 -1 16 1 2 34 5 -8 1
1532257786483282 9 -14 -1 11 28 6 0 -3
1532257786505223 -5 2 -2 -1 3 0 0 0
1532257786528161 4 3 4 -16 -10 -2 -1 -1
1532257786536147 -5 -1 4 0 7 3 -1 1
1532257786573041 -3 5 -7 -5 -18 -2 -1 -1
1532257786588999 -9 -4 1 4 -6 0 1 -3
1532257786616924 1 -2 8 -23 -11 -3 -1 -1
1532257786633878 -4 0 0 -10 1 -1 0 1
1532257786649847 -1 8 -17 2 -1 -2 -2 0
1532257786670780 -3 -9 32 9 -1 0 -1 -1
1532257786707681 4 -15 -10 4 3 1 0 2
1532257786715660 -6 -12 5 5 2 1 1 -1
1532257786753559 -8 -5 7 -5 -3 -2 -1 -1
1532257786768534 -8 -21 -4 7 0 3 1 -1
1532257786790460 -3 -5 22 2 0 1 1 0
1532257786805420 8 18 21 18 9 2 2 0
1532257786827361 0 1 -8 -10 -5 -3 -2 0
1532257786850300 -1 -2 -9 -3 -2 -2 0 -2
1532257786896177 10 -6 -5 -12 -5 -2 -2 -2
1532257786925099 10 4 0 5 2 1 0 2
1532257786948039 -10 7 43 7 0 -2 -1 -3
1532257786969980 9 -36 -19 0 -2 -3 -3 -3
1532257787007878 -10 11 -20 -7 -3 -3 -1 -2
1532257787029820 8 -19 6 -3 -2 1 0 4
1532257787053756 -18 95 0 -4 -4 -1 1 62
1532257787067718 -7 8 17 3 1 -3 -13 56
1532257787104620 -8 -25 -12 0 1 -7 -14 -40
1532257787135537 6 -24 6 0 0 -9 3 -11
1532257787150497 -8 -7 78 13 6 3 6 -15
1532257787181428 3 -29 12 15 8 -4 2 -4
1532257787188396 9 2 13 -6 -3 4 3 -4

1532257787210337 0 14 22 -19 -9 -8 -1 0
1532257787247259 13 11 -29 1 0 -2 0 13
1532257787270199 -3 7 2 0 -2 -3 -6 -23
1532257787285172 1 9 -25 1 -1 -1 1 -1
1532257787308099 -5 -1 -47 9 4 3 -1 1
1532257787330039 -2 -8 37 -7 -7 -17 -2 -8
1532257787345000 -2 -2 -4 1 1 -8 1 -2
1532257787367938 2 4 2 -2 0 19 0 32
1532257787389880 -3 -9 -3 -2 -1 4 -1 -3
1532257787404839 4 -4 -3 -7 -6 -4 -1 -7
1532257787427778 2 -2 -5 -2 2 -18 0 -3
1532257787449720 -2 -7 -6 -1 -2 -13 3 3
1532257787464680 4 73 56 7 -5 -2 -4 -11
1532257787487618 0 -34 -28 -4 4 24 1 -1
1532257787510557 -1 -8 -12 -2 -4 4 -4 2
1532257787525517 -8 7 16 -1 -3 6 -5 -36
1532257787547458 0 -18 -18 -4 0 -10 1 10
1532257787570397 0 -21 -18 -3 3 3 2 2
1532257787593336 1 5 3 2 4 3 3 0
1532257787607298 -1 -2 -3 0 -3 -7 -2 1
1532257787630243 -4 -3 -2 1 0 6 -5 -4
1532257787653182 0 -1 23 0 1 13 0 -2
1532257787707038 -6 12 17 1 -1 -9 0 -2
1532257787720003 1 6 4 2 0 -4 0 0
1532257787728979 10 -1 -4 -1 -4 -24 2 5
1532257787764883 4 -10 4 -2 0 9 4 8
1532257787787822 2 -4 -6 -2 0 23 2 0
1532257787810760 0 5 -2 2 0 0 -4 -5
1532257787824722 -1 -4 -4 -2 2 2 -2 4
1532257787847662 -6 4 -3 1 1 -4 0 -3
1532257787870600 -1 -3 -1 1 0 -5 0 -1
1532257787884563 1 -7 -3 -3 2 -5 3 -1
1532257787915480 0 -6 -6 0 1 2 2 8
1532257787930440 -3 2 2 1 -2 1 -2 -3
1532257787953378 1 -1 -4 -3 -2 9 -4 -1
1532257787990296 9 -6 -2 0 0 -5 1 2
1532257788004243 -1 -2 -27 -1 -2 -17 -1 -1
1532257788028179 -2 2 8 -1 -3 24 -2 -2
1532257788064083 -2 -4 0 0 -2 -4 3 0
1532257788088019 -6 7 0 1 1 4 -3 -6
1532257788109960 4 -3 2 -3 -3 -2 1 -1
1532257788132899 -1 -4 3 1 -1 -6 0 4
1532257788169800 0 -2 -4 -1 -1 3 0 -5
1532257788193736 -2 1 0 -2 -2 -1 -1 -1
1532257788207699 5 4 3 1 2 -3 0 5
1532257788230637 -3 0 4 1 -4 -8 -3 -4
1532257788244600 0 8 4 -2 -3 3 0 -2
1532257788267539 -1 -7 -4 0 1 5 -1 2
1532257788313416 -2 -3 -2 -1 0 1 4 1
1532257788327379 1 -3 -3 -1 -1 -8 0 -1
1532257788351315 -6 2 -2 -3 2 3 -2 -5
1532257788381235 1 -1 0 1 0 8 -1 -10
1532257788411155 -3 -3 -1 0 1 -15 -2 -4
1532257788433096 0 -1 -1 -2 -2 -2 -3 0
1532257788448056 0 1 -1 -1 -2 4 0 -1
1532257788470998 -3 -3 -1 0 -1 -1 -4 5
1532257788492936 5 -2 -2 -3 -5 -1 0 -2
1532257788538813 -1 -2 0 0 3 0 -6 -7
1532257788553773 -4 -1 0 2 1 -9 -1 -7
1532257788567736 0 -2 -2 -1 -1 4 2 -2
1532257788590675 1 1 -1 0 0 -12 5 -1
1532257788613613 -4 1 1 0 -1 3 1 -1
1532257788627576 2 -4 -2 0 0 10 -2 3
1532257788650515 4 2 -2 -5 -4 -3 -3 1
1532257788673453 -7 2 0 1 -3 1 -3 3
1532257788695395 0 -2 0 0 -3 -5 -4 -9
1532257788733293 0 2 -1 -2 -1 1 -2 1
1532257788771192 3 1 -1 -3 -1 9 4 1
1532257788793146 2 -4 -1 1 2 0 -2 7
1532257788807099 3 -2 -2 -2 -3 -7 7 10
1532257788852974 -2 1 -1 -1 -1 -13 -1 -6
1532257788867933 -5 4 -2 -2 -2 17 -6 -16
1532257788890878 -2 -3 -1 0 1 -14 -5 3
1532257788913817 -2 7 0 -1 -1 3 1 -5
1532257788926782 -1 -1 2 1 2 3 4 -1
1532257788950718 3 -3 0 0 -1 11 4 17
1532257788973657 -1 2 1 0 0 -11 0 0
1532257788995598 1 -8 13 1 2 2 -4 -6
1532257789055438 1 4 -6 -3 -2 -15 0 0
1532257789101355 6 -5 13 0 -4 -8 0 7
1532257789116314 -9 5 2 1 -3 -6 1 1
1532257789153216 2 -1 -3 2 3 -11 -3 5
1532257789167178 -7 3 -1 -1 -1 0 -3 2
1532257789176154 -3 -2 0 1 4 0 0 -7
1532257789213069 3 -1 -1 -1 -3 -2 0 11
1532257789236008 -3 -3 0 1 -1 4 -2 -1
1532257789280887 2 1 2 0 -3 -4 0 -1
1532257789296174 -1 2 -2 0 1 5 -3 -1
1532257789325978 -2 -5 -1 0 1 2 0 -5
1532257789332961 3 2 -3 -2 -1 -5 1 -4
1532257789363877 -1 2 6 0 -1 5 1 2
1532257789392799 -4 0 0 1 1 23 0 -10
1532257789415738 2 0 0 0 -2 -13 -2 16
1532257789430698 -5 3 9 1 2 6 -1 4
1532257789475577 0 -2 5 -1 0 -4 -3 -12
1532257789490538 2 -4 -7 -1 -3 3 -1 -2
1532257789513477 8 -10 -1 -1 0 -4 3 -5
1532257789535419 1 -5 -9 0 -2 4 -1 0
1532257789564341 -1 0 12 -1 -3 1 -4 -10
1532257789596255 0 2 -30 -1 0 4 0 1
1532257789610217 -1 -3 21 6 0 -5 0 -1
1532257789633157 -2 3 16 4 1 1 -1 -3
1532257789655564 -6 -3 35 4 1 5 -3 -8
1532257789670524 2 -3 1 -6 -1 -10 0 3
1532257789715404 -6 3 0 0 -3 2 5 5
1532257789729367 3 33 1 0 4 10 -3 0
1532257789753303 1 -21 7 -1 4 78 13 4
1532257789776242 3 41 10 -1 3 27 -7 -43
1532257789789207 -2 -55 -2 -2 -6 2 1 11
1532257789798183 -5 3 -6 -1 1 -48 1 11
1532257789819171 2 9 -37 0 2 -21 4 -1
1532257789845096 1 11 -13 -4 0 -10 1 -5
1532257789872024 -1 -2 28 -7 -4 -10 0 6
1532257789895960 -1 9 8 9 4 6 1 -17
1532257789909922 1 -31 -30 1 -1 -4 1 -11
1532257789918898 -8 -31 21 2 0 -10 1 -3
1532257789955800 0 -18 -95 -18 -7 -6 -2 6
1532257789978738 1 49 75 7 1 -1 0 3
1532257789999682 4 -21 -3 3 4 1 1 3
1532257790029618 -2 -11 1 2 1 0 0 2
1532257790038578 -1 -8 17 -6 3 -2 1 -3
1532257790075480 -1 -4 69 23 -20 -4 0 -1
1532257790089442 0 16 -1 -21 8 3 -1 1
1532257790112381 1 8 -4 3 -3 3 0 1
1532257790136317 2 4 8 6 9 -2 -1 1
1532257790166237 -4 -6 3 6 -4 -3 -2 -1
1532257790179203 1 -3 14 -8 3 0 0 1
1532257790218098 -8 9 6 -7 -10 -5 -2 -2
1532257790239042 -14 -26 -24 -41 -1 2 -3 -8
1532257790277938 2 9 -30 23 8 2 2 -1
1532257790291900 4 0 3 11 31 5 1 1
1532257790315837 5 19 17 -27 -10 -20 -2 0
1532257790338776 1 -17 10 -2 -19 -7 -1 -1
1532257790375677 0 8 -2 -3 -4 8 3 2
1532257790411581 -9 4 -17 4 -6 17 -1 -3
1532257790458455 -1 -21 -17 8 -11 -4 1 2
1532257790481395 2 -5 -45 -2 5 -9 3 3
1532257790592098 0 -24 10 -15 36 6 3 2
1532257790758652 -6 5 31 8 -3 -8 0 0
1532257790855394 -6 -20 -12 -1 -3 -5 -1 -2
1532257791037906 6 -25 7 8 6 47 1 4
1532257791082803 5 10 -31 -6 -6 -11 0 0
1532257791140631 -3 -39 12 -6 -2 -21 0 -2
1532257791199474 2 -14 -82 -7 -7 -15 2 0
1532257791308184 0 13 60 10 4 -13 -2 1
1532257791359047 1 -25 24 -12 80 9 -6 -3
1532257791394951 13 17 29 -22 -30 -7 -4 0
1532257791477730 -6 -41 -6 9 -7 -5 0 -2
1532257791523607 1 28 -4 11 2 4 -1 1
1532257791621346 8 15 1 2 -2 -3 0 2
1532257791634312 -2 1 12 -2 -5 -7 -2 -3
1532257791688167 -2 7 6 -3 -3 1 1 1
1532257791743021 5 18 -1 -3 -2 -4 -3 0
1532257791882647 3 23 7 0 -1 0 1 1
1532257791902593 -5 0 -2 -1 0 1 1 -6
1532257791921543 3 -24 5 5 4 3 -59 -6
1532257792032247 1 -30 -117 -13 -8 -34 -34 11
1532257792086103 -4 2 -32 -9 -11 -42 -27 -2
1532257792129985 -21 -55 -28 -7 -5 45 -16 -17
1532257792302524 3 -2 -6 0 4 9 21 5
1532257792355383 1 -16 -1 -13 -6 11 -5 1
1532257792452131 -7 -18 1 0 4 -20 23 -2
1532257792543878 3 -13 -17 -20 -15 37 30 1
1532257792664556 -5 1 -5 0 -5 -96 -9 -3
1532257792797201 -4 -2 1 3 -2 4 14 -2
1532257792851058 -3 15 9 -8 -5 14 6 0
1532257792977719 7 7 -5 2 0 -13 15 14
1532257793067478 64 49 10 4 4 11 39 27
1532257793105378 119 11 27 12 9 12 31 48
1532257793211095 -28 11 14 8 7 11 83 35
1532257793254977 -46 33 5 6 0 -4 -42 -41
1532257793291879 -17 51 18 0 -2 -8 -13 -16
1532257793323793 -5 71 25 14 17 -14 25 50
1532257793345734 43 -82 -23 -4 -6 -74 -31 5
1532257793368673 -28 -10 -12 -14 -12 -112 -32 -27
1532257793405575 3 -14 -1 6 5 48 18 -10
1532257793419538 27 21 4 6 11 53 31 1
1532257793443473 -17 -33 19 -5 -5 -36 -13 26
1532257793465415 -44 8 -7 -5 -1 -10 -10 -44
1532257793489350 6 -28 -14 2 5 34 6 -10
1532257793503313 -1 40 11 7 5 -12 13 12
1532257793526252 -44 -18 -11 3 1 1 -8 -31
1532257793539217 -26 28 -12 33 11 -7 6 -18
1532257793563153 -20 3 15 6 -3 -3 -18 -36
1532257793586092 61 -7 7 -4 2 2 24 32
1532257793608033 34 15 -9 -4 2 -5 -7 7
1532257793622993 67 -4 6 -12 -11 -9 -5 -5
1532257793644935 42 -3 6 -5 -3 -4 -22 -16
1532257793667873 -41 -16 1 -17 -8 0 -6 25
1532257793683847 27 -2 14 -27 -5 -6 -18 11
1532257793704775 35 11 17 6 4 0 -4 7
1532257793727713 -34 -49 -31 2 2 1 -24 0
1532257793743671 -3 0 -25 -3 2 1 16 8
1532257793766609 1 0 9 23 5 3 22 11
1532257793787554 -10 -17 2 1 0 -1 -9 -4
1532257793802514 -20 2 -9 -5 -1 11 -12 -3
1532257793847393 -20 18 11 3 2 8 4 8
1532257793862353 6 -5 2 -1 0 -10 11 3
1532257793885292 -8 -1 -1 -1 0 -2 14 -12
1532257793907233 -25 12 0 -3 -1 -13 4 -72
1532257793922193 -42 11 1 -1 0 16 5 -25
1532257793953111 56 7 2 -1 0 -5 -11 60
1532257793968071 40 61 4 0 1 -5 -31 8
1532257793982033 -1 -25 0 4 2 4 12 29
1532257794004972 -28 -18 -4 -2 -4 -15 -76 2
1532257794027910 31 -10 -2 -7 -3 3 55 27
1532257794064812 19 -23 -16 3 3 0 -6 8
1532257794087750 17 23 9 -4 -6 1 11 -14
1532257794125649 -18 45 5 -10 -5 -2 -11 -17
1532257794147590 -36 9 66 -5 -3 -3 1 2
1532257794161553 29 -9 -26 -5 -1 -2 -4 8
1532257794185489 -6 -16 20 -2 -3 -1 -2 -4
1532257794207430 1 -6 -6 5 2 3 5 2
1532257794230369 4 -8 22 -2 -2 0 -1 3
1532257794253308 -16 -6 9 0 -3 -1 -1 -3
1532257794282230 -2 17 -7 7 4 4 -5 12
1532257794305169 -23 32 -6 5 3 3 -2 -1
1532257794343068 50 -19 -6 -1 -1 -1 5 14
1532257794365009 -9 -6 -45 0 -1 0 -4 -21
1532257794424849 0 -7 -3 -3 -2 0 4 20
1532257794447794 29 21 -1 -3 -4 -5 5 5
1532257794470726 -9 -12 4 0 -3 -2 -1 -4
1532257794485701 0 -47 -7 1 1 8 14 -37
1532257794507628 -25 19 -2 0 -2 -8 11 9
1532257794530566 -11 -8 -21 -2 1 1 -6 2
1532257794545527 -22 -43 6 -1 0 -1 -8 -5
1532257794567468 -5 25 22 -2 0 -3 -14 -16
1532257794590406 8 48 59 10 3 -1 -5 5
1532257794636291 11 11 -4 -16 -1 0 6 6
1532257794642268 -21 -1 -6 -4 -3 -1 -5 -14
1532257794665212 -4 9 -72 5 6 1 1 8
1532257794702108 12 4 12 -7 -2 -2 2 4
1532257794747985 -5 -35 2 19 1 0 -2 -4
1532257794761948 -1 7 -16 -29 -5 -2 -1 0
1532257794784886 -1 14 19 6 2 -1 0 -2
1532257794807824 2 20 6 1 -3 -2 -1 1
1532257794821787 1 3 2 2 3 -3 0 1
1532257794844726 11 -8 -3 -7 -4 0 -4 -5
1532257794875643 -8 -2 10 5 0 -1 -9 -6
1532257794892598 0 -10 1 -9 0 1 7 5
1532257794905564 -7 -19 1 0 2 2 -3 -2
1532257794927505 -2 13 -1 6 2 1 3 -1
1532257794965404 3 2 -1 -16 -4 -4 0 1
1532257794987345 -2 -4 15 2 0 -1 0 0
1532257795011281 -1 -24 -6 2 -2 -1 -1 3
1532257795025244 -6 4 28 3 -1 -1 -2 -2
1532257795048182 4 2 -8 4 0 -1 -1 0
1532257795071120 3 9 31 0 0 -2 1 0
1532257795107025 -10 -34 -12 -5 -2 0 1 0
1532257795129963 7 4 -5 4 0 2 -1 0
1532257795152902 -17 74 97 6 0 0 -1 -2
1532257795183820 2 -7 -7 0 0 -1 1 -1
1532257795213751 -15 0 0 5 5 0 0 -1
1532257795227702 3 50 46 -7 -4 -4 -1 -1
1532257795252635 5 2 -16 4 3 4 -1 -5
1532257795265601 -7 -55 -28 -10 -3 1 2 2
1532257795310481 -3 -9 -6 0 -1 0 0 -1
1532257795325441 35 7 32 0 0 4 4 11
1532257795347382 -55 -33 -22 -4 -3 -4 -6 -9
1532257795385291 2 3 -11 4 4 -9 -9 -42
1532257795409226 10 70 -7 0 1 21 16 63
1532257795431158 -15 -34 -22 5 -6 -30 -11 0
1532257795445121 11 -28 17 -21 -5 6 7 0
1532257795504960 0 -24 10 -2 -2 1 0 -7

1532257795527899 0 4 -29 13 5 7 0 -6
1532257795550838 -18 5 9 -3 0 -1 8 11
1532257795564801 2 -5 -17 -3 -1 0 -4 -11
1532257795587739 18 -14 -6 -3 0 0 13 -12
1532257795610678 0 -13 -29 -4 -1 12 -6 -8
1532257795624641 -1 -4 -7 2 0 -5 -5 -9
1532257795672530 2 -14 -21 -2 -2 -2 -5 1
1532257795684481 -9 28 21 -2 -3 -5 -5 -4
1532257795707419 2 -24 -4 0 3 -13 1 0
1532257795731355 4 3 7 0 0 -5 1 24
1532257795753297 0 -6 -8 0 0 5 1 5
1532257795776235 -6 2 -10 -2 -2 -7 -5 -12
1532257795791195 1 -16 -14 -1 -1 -5 -2 -3
1532257795813137 1 4 3 0 -2 -5 -3 -7
1532257795851036 7 -1 -3 -2 -6 2 -2 4
1532257795872976 -6 -1 -2 -1 1 6 -1 -4
1532257795886939 -7 -4 -3 0 0 4 1 -7
1532257795910876 1 0 4 2 -1 2 0 -3
1532257795932816 -3 -17 -7 0 -1 -13 -1 -7
1532257795947776 -8 3 -3 0 -1 -10 -6 -8
1532257795993470 1 -4 -3 -2 -1 9 2 -1
1532257796015412 2 -9 -6 -1 1 5 -2 19
1532257796030372 3 10 3 0 -4 5 -1 6
1532257796053311 -2 -1 -2 0 1 -3 -1 -7
1532257796067273 -3 -2 -2 0 -3 -5 -3 -9
1532257796091209 0 -5 0 0 0 8 3 -7
1532257796113150 1 -1 -5 -1 -1 6 0 -3
1532257796134094 -1 1 0 -1 0 5 3 -5
1532257796180969 1 0 1 -3 1 -7 -1 -3
1532257796195945 1 -3 -3 -2 -2 -11 -3 -8
1532257796240809 -4 7 1 2 2 -2 1 6
1532257796246793 -2 4 1 1 0 8 -2 5
1532257796270729 -1 0 1 -1 -1 -5 -6 -2
1532257796293668 1 1 3 1 0 -1 -2 1
1532257796333574 -20 7 0 0 -1 9 3 17
1532257796353508 -3 2 1 -1 0 -3 -1 5
1532257796367470 3 -2 -2 0 1 0 0 -1
1532257796413348 0 -1 -1 0 2 7 8 23
1532257796436286 0 -1 -2 -1 0 19 2 -13
1532257796473188 -1 -2 -1 0 0 1 1 -2
1532257796487150 -3 8 2 0 -1 -11 -1 -5
1532257796533028 0 -3 -1 2 -2 -7 2 -6
1532257796546990 0 -4 -1 0 2 0 -6 -39
1532257796570926 -15 15 3 0 0 3 1 12
1532257796592880 8 -7 -2 -2 -6 -14 3 16
1532257796631361 2 -1 23 -4 -2 29 -3 -6
1532257796653304 -1 -6 -100 -9 0 -10 -1 -2
1532257796667267 4 -6 21 4 1 -2 1 -3
1532257796691203 2 -9 10 0 3 -8 3 5
1532257796727107 -10 -13 -3 -1 -3 -36 -23 42
1532257796736083 -11 -12 -8 -10 -6 52 2 -49
1532257796767000 3 -12 1 1 -4 -44 -8 -15
1532257796794926 1 30 34 7 3 -18 -2 2
1532257796803915 -8 0 65 7 4 15 5 -1
1532257796842797 -5 8 111 -10 -3 5 -9 -12
1532257796870723 -6 4 -14 1 -3 6 -5 -12
1532257796893662 -3 -2 -34 -8 -1 -7 -2 -4
1532257796915603 -2 -18 6 -2 -5 -6 -4 -3
1532257796929565 7 34 11 3 22 9 5 4
1532257796953502 -1 -22 -8 -15 -18 -3 -4 -2
1532257796975443 -2 5 -16 5 8 3 -3 -2
1532257796989410 -11 -48 -60 -31 -25 -7 -3 -4
1532257797006361 -2 17 -28 43 16 1 -3 0
1532257797015336 0 -6 -24 -18 -5 2 0 -1
1532257797049251 0 1 -27 9 16 6 2 0
1532257797096120 1 1 4 2 7 -3 -1 -3
1532257797110083 4 31 24 4 -13 -6 -2 2
1532257797155960 5 9 -7 3 -7 -1 0 2
1532257797178899 -10 5 -64 -22 -14 -4 -4 -2
1532257797215800 -1 11 10 -2 -8 17 -1 0
1532257797229763 0 -12 -11 -15 -8 -9 1 0
1532257797275642 5 10 25 11 14 1 1 1
1532257797373378 -3 24 41 -2 -7 -8 -1 -1
1532257797396318 -1 -4 20 -14 -4 13 4 -1
1532257797478099 4 1 17 -6 -1 -3 1 0
1532257797493059 8 23 -76 0 -1 1 1 3
1532257797515997 -6 -15 25 11 -6 -8 -3 -3
1532257797529960 2 -3 57 3 7 -12 -2 1
1532257797598780 -3 -1 -30 -7 -7 -5 -3 -3
1532257797612739 -1 -52 -42 -5 19 23 5 6
1532257797635689 -3 -30 15 3 -8 11 -3 -3
1532257797718470 1 -63 30 23 24 22 10 -1
1532257797741395 3 45 29 -2 -1 -9 0 4
1532257797778296 -4 4 5 0 -3 -24 -8 -15
1532257797838136 -9 49 4 -8 -1 -9 -3 -9
1532257797859080 -2 -35 -6 -5 -5 -2 -4 -3
1532257797935875 -2 16 -6 7 -2 -10 5 6
1532257797995714 -14 36 4 -5 -3 17 6 8
1532257798018655 1 2 55 25 3 -15 0 -3
1532257798055555 1 10 -12 -11 -7 18 -2 -5
1532257798092457 -4 -4 10 -3 0 15 2 0
1532257798101432 -18 39 -32 -5 -7 -40 -5 -4
1532257798146312 16 12 13 5 -3 -39 -5 1
1532257798152296 -32 -12 -10 4 6 24 -5 -8
1532257798176232 3 84 58 19 3 74 1 1
1532257798221112 -12 -42 -5 -6 -4 -9 -8 -6
1532257798265993 37 86 -15 -1 1 -39 -4 13
1532257798318851 -10 -29 14 0 1 5 5 1
1532257798355752 -14 -58 -94 0 0 9 2 -1
1532257798400632 -11 -74 23 -11 -6 -3 -6 -8
1532257798415592 14 -46 -10 -2 -2 3 -2 3
1532257798475432 0 47 27 13 9 10 8 5
1532257798492387 -38 14 -21 -13 -1 7 -2 -13
1532257798581153 -20 -11 -27 -10 -8 13 -4 -10
1532257798702824 7 13 12 4 5 -6 1 2
1532257798738728 -1 11 5 1 0 -6 0 5
1532257798783608 -1 23 8 1 1 -3 0 -4
1532257798812530 1 -64 -2 -17 -6 -2 -5 -9
1532257798882343 0 -4 8 -1 -2 14 21 -7
1532257799046904 1 9 17 -1 -1 -9 11 4
1532257799068855 -1 -35 31 -3 -3 31 58 -11
1532257799120706 -2 10 9 -3 -3 -10 -42 9
1532257799212461 -4 12 2 3 8 -20 -78 -9
1532257799263325 13 -2 8 7 -4 23 -41 -11
1532257799308205 -14 -35 -9 5 4 -28 -6 2
1532257799411928 -2 -23 -17 -19 -8 -30 10 9
1532257799457805 -8 8 5 -17 -6 5 -24 0
1532257799494706 -5 -9 -38 -6 -11 -71 -48 -2
1532257799548561 -15 -11 5 -9 0 -10 -18 -4
1532257799614386 25 10 2 -16 -11 84 9 -3
1532257799637325 -14 21 53 -11 3 -60 10 2
1532257799698162 -15 43 6 -29 9 96 7 0
1532257799743042 -11 -3 -12 -5 -12 -35 -45 -25
1532257799810861 5 -10 2 -1 -4 -16 16 7
1532257799863719 5 -16 -18 2 -4 -10 28 3
1532257800021297 -15 -56 -3 -9 1 13 -1 -5
1532257800133997 -11 -77 -9 -4 -4 -6 -6 -13
1532257800229741 -41 58 15 -9 -7 -12 28 -11
1532257800245698 21 27 15 5 2 16 63 37
1532257800296562 34 -13 0 6 1 0 41 -2
1532257800320498 -12 -19 -13 -5 -7 -7 7 -11
1532257800365378 -47 37 17 0 2 -2 42 -19
1532257800450151 0 -49 -13 0 1 6 4 -12
1532257800465111 31 18 5 -4 -2 -3 42 5
1532257800500018 17 1 -16 -2 1 1 4 3
1532257800544898 -6 4 -16 -19 -7 -7 -33 -6
1532257800582797 -7 16 27 7 3 3 19 7
1532257800604738 9 14 8 4 3 3 -1 3
1532257800635655 -42 44 -10 1 -1 -26 9 -19
1532257800642636 -34 -22 -5 2 0 -2 -15 17
1532257800704472 -4 8 -23 -1 -1 1 11 20
1532257800718434 54 21 -1 -3 0 14 5 30
1532257800740375 -25 23 -3 -1 -3 -28 -6 18
1532257800786252 -5 20 -1 -2 -2 -2 5 -5
1532257800807196 68 -3 -1 0 1 0 20 25
1532257800831132 39 25 -7 -8 -2 1 -17 -9
1532257800882994 10 3 -68 9 -1 1 0 -6
1532257800904935 20 -1 36 -2 5 4 2 8
1532257800919895 -4 -17 41 4 0 3 -3 -8
1532257800964775 -1 -22 6 8 4 0 -3 19
1532257800981730 -16 -13 25 8 4 1 -15 -16
1532257801011650 18 -11 -12 -1 -2 0 27 33
1532257801025613 -38 22 -16 4 1 2 3 -9
1532257801040583 10 -11 -11 -4 -3 -3 -7 -3
1532257801085464 -14 -22 -8 -7 -6 -3 -12 -77
1532257801122353 -3 -17 4 5 5 8 67 0
1532257801146290 14 52 4 0 4 11 -66 -38
1532257801159255 21 46 -2 -3 -2 -7 -10 -5
1532257801191170 10 28 1 16 2 1 21 38
1532257801220092 21 -12 18 2 -6 -11 -50 0
1532257801243031 12 -15 -1 4 2 3 17 -4
1532257801264972 -5 -10 63 -3 -3 -4 1 -9
1532257801302872 3 -15 -1 -8 -2 0 9 1
1532257801339772 -9 -21 -40 -6 -2 0 13 13
1532257801362710 11 18 -32 -8 -7 -4 14 6
1532257801409586 -16 17 2 -1 1 5 -2 4
1532257801445490 -1 -47 -2 -2 -9 5 47 19
1532257801467431 28 48 -1 -2 -4 21 -105 -10
1532257801513308 14 -21 3 2 -5 15 -8 5
1532257801544229 -82 -44 -5 0 -1 -34 29 -35
1532257801565170 -9 5 -4 0 -1 4 60 5
1532257801625010 3 -26 13 3 3 0 -24 3
1532257801662908 -26 -21 -1 -3 -3 1 -11 -9
1532257801707788 -17 14 -2 2 0 -2 -18 -1
1532257801722748 -1 11 4 0 5 -1 -17 -3
1532257801744689 -2 3 -1 -13 -2 1 -42 0
1532257801768625 5 10 -19 0 -8 0 -1 1
1532257801790566 2 0 4 -8 -12 -3 -3 -1
1532257801813505 -1 6 -1 -1 -3 0 -5 1
1532257801842428 0 -11 9 1 3 -4 -3 -2
1532257801873345 -4 2 -4 4 -3 2 -1 0
1532257801888305 0 29 2 4 12 2 -5 -1
1532257801902268 -4 -9 -7 -5 -13 -1 1 1
1532257801925207 3 -3 -6 0 0 -2 -2 0
1532257801948145 -4 -11 -2 2 3 4 1 -1
1532257801985047 -2 -6 -10 -2 -1 -2 -1 -1
1532257802007985 -1 16 3 -1 -5 -2 -2 0
1532257802022945 2 -2 -31 -8 0 -1 0 -1
1532257802104727 12 -6 -13 1 -1 -2 0 4
1532257802129660 5 -2 -22 0 1 1 0 -5
1532257802150604 -2 24 -45 0 5 3 2 1
1532257802165563 -7 -6 17 -6 -4 -1 0 1
1532257802188502 -30 0 10 1 0 -2 -3 -1
1532257802210444 -15 16 1 2 0 1 1 -5
1532257802233382 11 7 -5 -5 0 0 1 0
1532257802248343 3 2 -11 -5 -5 -3 -2 -1
1532257802271281 2 -15 10 -3 -2 1 0 2
1532257802324139 -1 -4 -7 1 0 0 0 -4
1532257802345084 7 -15 -54 -2 -2 -6 0 2
1532257802368023 -8 5 13 -1 -1 -1 -3 -7
1532257802389964 -13 -41 -2 -1 1 -2 -16 0
1532257802404924 -35 -89 2 -4 -4 -11 28 -47
1532257802441825 -11 58 -48 -4 -11 41 6 -21
1532257802464764 17 3 -90 -9 9 -21 4 14
1532257802488700 5 12 111 19 11 8 -1 16
1532257802510641 16 44 -46 -22 -13 3 1 7

1532257802524603 -3 16 43 -4 -2 4 -1 -8
1532257802547543 0 1 51 15 4 -5 3 -1
1532257802570481 4 35 69 5 1 10 1 3
1532257802600401 -2 -18 -38 -2 0 -5 -1 2
1532257802608380 6 20 35 3 2 -1 3 20
1532257802631319 2 -28 4 -6 -4 -5 -12 -8
1532257802653260 -8 -1 -5 8 6 -2 2 -5
1532257802668224 1 -5 -35 -1 1 3 5 1
1532257802713100 -12 -1 -23 4 3 3 -4 -53
1532257802750998 -1 0 -4 -4 -1 -6 -1 6
1532257802764960 -2 -3 1 1 -2 -9 0 6
1532257802773937 -2 -20 -23 -5 1 5 4 4
1532257802810838 -5 4 -4 1 -2 -7 0 -1
1532257802824801 1 -12 -7 -1 1 -3 3 0
1532257802848737 0 -6 -6 -3 -4 14 -3 -1
1532257802870678 -1 -4 1 0 -2 0 2 2
1532257802900598 -6 -2 -1 0 0 -6 -4 -8
1532257802930518 -3 0 5 -1 0 7 -7 -6
1532257802945479 -1 2 0 -1 -3 -4 3 2
1532257802952459 0 0 1 0 1 12 -1 -3
1532257802970412 2 0 -27 -2 0 -13 4 4
1532257802992365 -1 2 14 6 0 -2 -1 0
1532257803013317 -3 -3 3 -2 0 -5 -2 -4
1532257803051203 -6 0 -9 1 2 -4 -1 -3
1532257803064168 2 -1 -9 -1 0 1 -2 0
1532257803088104 3 4 -1 -2 1 4 2 0
1532257803111042 -2 7 7 0 0 -3 -1 -2
1532257803133175 -3 1 -4 -1 -3 -2 -2 7
1532257803171073 2 3 3 1 0 -7 -5 7
1532257803184571 1 1 8 -1 0 5 1 1
1532257803193547 1 1 18 1 1 0 -4 -1
1532257803246405 0 2 -42 -2 0 5 0 -5
1532257803268346 -6 -5 3 6 0 -10 -2 -11
1532257803313227 -13 4 -5 1 0 -6 -3 -7
1532257803328909 2 -2 -30 9 4 5 2 9
1532257803372793 -2 35 1 0 0 23 -4 -14
1532257803379775 7 -3 2 -5 -3 -23 7 20
1532257803412687 4 14 -4 -3 -1 76 16 12
1532257803419669 -10 -52 -9 -4 1 58 -1 1
1532257803441615 -5 -29 3 -2 2 -13 -7 -5
1532257803462554 8 14 -25 0 2 -1 -2 2
1532257803501449 -4 -9 -20 4 -1 -17 -4 -11
1532257803507434 -2 3 11 4 1 -11 -2 0
1532257803522401 2 -7 -8 4 -2 6 0 0
1532257803537354 0 5 38 -1 -1 -1 -4 -10
1532257803559295 3 9 36 3 -2 -1 0 -2
1532257803582234 -3 -6 5 5 2 1 -1 0
1532257803597194 2 16 14 5 4 0 1 -1
1532257803628111 -4 -17 -48 -15 -11 -5 -4 -2
1532257803650053 -4 -40 26 -13 -6 -4 -1 -3
1532257803679973 0 -14 -9 5 18 2 0 0
1532257803718883 0 -3 8 1 -3 -4 -3 0
1532257803748789 4 11 -26 10 0 0 2 -2
1532257803761754 0 16 11 9 8 -1 0 -2
1532257803793668 -1 11 20 3 -5 1 0 0
1532257803800650 -3 -6 -16 -21 -12 -5 -3 -2
1532257803844533 3 16 -11 7 -11 -4 -1 -1
1532257803882431 -4 1 -14 9 11 6 0 -2
1532257803913357 1 8 18 11 9 2 0 -1
1532257803942272 4 61 86 12 15 2 0 1
1532257803988149 1 -1 -39 2 10 -2 0 -1
1532257804033028 -4 -31 -10 -10 -1 4 0 -2
1532257804070927 -6 7 23 -2 -11 -17 -5 -2
1532257804130777 0 2 11 17 9 -2 0 -2
1532257804190607 -3 -35 -41 -1 -9 -8 -4 -1
1532257804228506 17 16 -5 -7 9 13 4 3
1532257804273385 -6 -9 -9 3 2 -6 -4 -4
1532257804310287 1 7 26 2 1 -6 -1 -1
1532257804333240 1 -4 31 -7 -12 -11 -1 1
1532257804356164 2 5 20 -1 4 -6 -1 0
1532257804380101 -5 1 -27 -10 -2 1 3 -1
1532257804395060 -2 1 102 0 0 1 -1 0
1532257804418017 -3 20 -28 -3 -1 -1 0 0
1532257804436948 -3 0 8 1 6 16 1 -2
1532257804454900 6 -20 -12 0 -5 -15 1 2
1532257804477839 5 -6 -14 -2 -4 -4 0 -1
1532257804496788 -7 32 55 2 -2 0 2 3
1532257804537679 4 18 15 -12 2 13 -1 1
1532257804541668 7 -24 -24 -4 2 -8 3 3
1532257804588543 -14 -26 -52 -2 -3 -6 -2 -5
1532257804596521 5 22 28 11 4 5 5 5
1532257804610483 -7 -31 -68 0 -4 -5 -7 -9
1532257804656361 -1 16 34 -5 -4 -30 0 8
1532257804669333 2 3 -75 -3 -1 16 -1 -15
1532257804678314 -5 16 18 -3 -3 9 -4 -4
1532257804716201 4 -16 -25 -10 -11 28 -1 -4
1532257804729167 -12 -65 -43 -15 2 15 4 -4
1532257804753103 -2 30 50 4 1 2 -3 -5
1532257804776042 2 -19 12 0 -2 -5 -1 -3
1532257804822916 6 -1 -33 0 2 -4 1 0
1532257804835882 -10 -28 -3 -3 -1 -5 -4 -3
1532257804858820 7 45 91 2 8 -8 3 3
1532257804949577 1 -11 -116 -2 0 6 0 -4
1532257804978499 3 -18 -46 -12 -1 10 5 7
1532257804999444 -6 35 4 -2 0 1 1 -2
1532257805017396 5 19 8 8 0 3 -1 2
1532257805098179 8 27 76 11 2 -3 -1 0
1532257805161036 9 -85 -9 4 -2 -1 -1 5
1532257805225862 -10 -71 -5 0 2 4 3 3
1532257805239825 4 3 25 4 1 5 1 -2
1532257805408374 0 -20 -62 -3 -2 -4 -2 -2
1532257805460235 -2 -9 3 0 1 6 -12 -13
1532257805490156 3 -17 -2 -2 -1 -11 12 -17
1532257805525062 -7 28 44 1 -3 -10 -83 -21
1532257805570941 2 -12 14 1 -1 14 -45 -9
1532257805594876 -15 -33 -3 -8 -22 -65 -60 -23
1532257805691617 3 10 0 -2 -5 -14 51 6
1532257805765419 -2 -9 5 -6 -16 29 -10 -5
1532257805781390 2 -25 22 12 7 -1 55 1
1532257805878118 -2 -5 2 2 -2 -14 -46 -4
1532257805961894 -9 -18 -45 -9 -4 -15 18 8
1532257806005777 8 19 38 19 9 -10 82 -1
1532257806058636 -4 10 25 6 13 30 33 5
1532257806194291 -5 11 14 7 8 34 -18 -4
1532257806223214 4 -20 -9 -7 -4 63 31 10
1532257806561310 11 113 15 2 -2 0 -3 -3
1532257806621149 -1 9 -3 3 4 88 51 2
1532257806725870 -41 -30 20 -5 -7 -23 -16 -3
1532257806830589 -17 -17 2 -7 -4 -4 6 -10
1532257806883448 30 22 5 -7 -1 2 5 9
1532257806921347 28 -1 -9 -4 2 1 -2 13
1532257806958248 14 -12 -6 1 2 1 0 6
1532257807034046 1 0 -4 -2 0 2 0 1
1532257807078925 22 30 10 -3 -2 -5 -4 -5
1532257807144749 29 29 -3 -3 -3 -6 -6 -5
1532257807257448 10 -5 1 -17 -6 3 2 3
1532257807340269 1 13 63 15 4 3 3 5
1532257807400109 38 -14 -19 -1 -2 -4 -2 6
1532257807423047 -2 -17 -7 -1 0 0 0 4
1532257807444988 18 3 -14 0 -1 1 -2 -2
1532257807459949 -2 -20 6 -2 -2 11 0 8
1532257807482887 7 6 -7 3 0 -4 -4 -7
1532257807519788 -7 7 -2 -1 0 -1 -3 -17
1532257807542727 47 66 -2 -2 -5 -4 -10 71
1532257807556690 10 -29 -3 0 -1 -14 -10 17
1532257807602567 5 -17 -2 0 -2 -9 -11 -9
1532257807617527 -43 -22 3 -5 -2 13 10 -53
1532257807640465 -14 -7 6 -12 -7 -10 -4 8
1532257807662408 12 50 13 33 4 -8 -9 -6
1532257807677367 23 -58 -6 -29 -11 -6 -8 -10
1532257807722247 44 -17 3 14 3 0 1 -5
1532257807737207 -23 -7 -36 -5 -6 -3 -2 3
1532257807783084 3 6 24 -6 3 17 2 8
1532257807806023 -10 -12 -39 0 0 -4 -2 -4
1532257807827965 -8 46 -56 0 -1 -4 -2 -4
1532257807856887 -30 28 42 0 4 0 1 9
1532257807902765 26 -60 -13 -6 -4 -3 -5 -2
1532257807913735 23 8 54 6 6 3 -7 29
1532257807934679 2 10 16 1 -1 -3 7 -36
1532257807976567 -11 -14 14 0 -3 -3 32 -41
1532257808000503 7 17 17 7 5 -7 -2 -41
1532257808022445 -7 -7 1 -2 -4 15 13 -10
1532257808037404 55 70 12 5 6 0 -15 2
1532257808060343 -22 -77 -4 -4 -5 5 -2 6
1532257808097244 -27 -12 6 -1 -5 -6 -3 14
1532257808142124 6 26 17 0 -2 -6 -6 -3
1532257808166060 -12 12 -17 -5 -3 -2 -4 3
1532257808180023 -4 -9 -12 -12 -2 -1 1 0
1532257808202962 4 28 1 1 0 0 -1 3
1532257808226898 6 13 -17 2 3 1 -1 4
1532257808239863 4 0 -5 -3 -12 -1 1 -2
1532257808299703 -8 -11 -6 3 1 0 -2 1
1532257808322642 0 -34 2 13 5 0 1 2
1532257808360540 -2 6 -20 3 3 -1 0 0
1532257808382482 -3 -17 8 -6 -4 0 -1 -1
1532257808405420 1 5 7 0 -1 0 -2 -4
1532257808420381 3 -6 -13 6 9 1 0 1
1532257808442328 3 -4 -12 5 1 1 2 2
1532257808480220 7 14 47 -2 -1 1 -1 -1
1532257808512152 1 16 -7 1 1 0 -2 1
1532257808562998 2 -6 14 -1 2 0 4 4
1532257808585948 3 -22 -10 -3 0 -1 -2 -2
1532257808599900 -24 -14 -12 1 1 2 -1 -1
1532257808622839 0 13 -7 1 -2 0 0 -1
1532257808645778 3 10 -55 1 0 0 0 -2
1532257808668716 3 0 37 2 1 -1 -2 2
1532257808735537 3 1 2 1 1 -1 -1 0
1532257808826294 1 54 -21 -2 0 -1 0 -6
1532257808847239 15 24 22 -3 1 4 9 -11
1532257808862199 15 -41 -6 3 4 -27 17 126
1532257808886142 7 -13 28 7 -5 7 19 5
1532257808899100 -39 -1 -18 -14 -12 -10 2 19
1532257808923036 5 -6 78 -12 -1 8 -11 -20
1532257808952957 6 -10 -30 9 11 14 -3 -17
1532257808975895 4 -24 116 -2 -9 4 -13 -31
1532257808982876 -3 -6 -31 6 -1 -11 -11 -15

1532257809005815 -10 -2 -33 -1 3 4 -5 -10
1532257809019777 -1 0 -5 12 2 1 -3 -6
1532257809043713 -1 7 -7 4 4 -6 -3 -7
1532257809065655 -6 -14 -20 -1 2 16 -4 -36
1532257809125495 3 7 0 2 -1 -13 -4 -7
1532257809148584 -4 2 1 2 3 6 -1 -4
1532257809162547 2 14 11 0 0 83 10 10
1532257809184488 2 -4 -16 -5 -4 -24 -2 2
1532257809208425 -2 3 -7 -1 0 -8 3 6
1532257809246323 -2 -11 -7 -1 -1 -20 -7 -37
1532257809276243 0 -3 6 1 1 -24 -3 11
1532257809314142 1 -8 -7 -2 -2 4 -1 -2
1532257809328104 -3 -7 0 -1 0 7 -1 -1
1532257809342067 -3 -5 -1 -2 -2 -2 -2 -1
1532257809366003 -1 -1 0 1 0 4 -5 -16
1532257809387944 2 1 0 -1 -3 20 2 3
1532257809402904 4 -6 -3 -2 1 -7 0 10
1532257809409886 8 -3 -1 -1 1 2 -1 5
1532257809427837 -5 -3 -1 0 1 -7 -8 -8
1532257809462744 0 3 1 -1 -2 -4 1 16
1532257809485695 1 1 2 0 -2 1 1 12
1532257809507624 6 -5 -1 -1 -2 -13 -2 3
1532257809515603 0 -2 -1 -2 -2 6 0 2
1532257809529565 -4 -2 -5 -2 -1 3 3 5
1532257809547566 1 -1 -2 -2 0 1 -3 1
1532257809570516 1 0 -2 0 -1 -17 0 -4
1532257809597433 0 0 -1 1 0 -1 -2 4
1532257809607407 0 0 0 0 0 2 2 3
1532257809630354 2 0 2 0 1 12 -1 -1
1532257809652292 -3 1 -1 -1 -2 2 1 -2
1532257809688190 4 3 0 1 0 2 0 10
1532257809702153 -5 1 1 -1 0 -2 1 -1
1532257809711129 0 -3 0 -1 -1 -11 0 1
1532257809748030 -2 -3 2 -1 -2 -1 -1 7
1532257809761993 1 2 0 -2 -1 -1 0 -3
1532257809770969 0 -1 1 0 -1 -9 -3 0
1532257809793908 -6 -1 -1 0 -1 8 1 -7
1532257809817844 1 -2 1 0 -2 -1 -2 -2
1532257809838791 2 8 0 -1 3 10 -2 14
1532257809868708 2 -3 -2 -4 -3 -2 -4 -2
1532257809890649 -3 3 -1 1 -1 3 0 -5
1532257809905609 3 -2 -1 -1 0 9 1 -2
1532257809928548 1 1 1 -1 1 7 1 19
1532257809942521 -1 -1 0 -1 -2 10 -2 -8
1532257809965449 -3 -2 0 1 -2 -12 -2 -6
1532257809988387 -12 7 0 2 -2 -9 -1 0
1532257810002362 1 -3 -3 -3 -2 6 -3 -9
1532257810026286 0 -3 -3 -2 0 -17 -5 -12
1532257810048228 -1 1 0 0 1 3 2 -3
1532257810078147 -2 1 0 2 3 -9 -1 -8
1532257810087124 -4 1 -1 0 -1 -6 -7 -3
1532257810122030 -3 0 -1 -1 -2 -6 -1 -9
1532257810145012 2 2 0 0 0 5 0 -2
1532257810176926 -5 0 1 -2 2 5 -7 -17
1532257810190890 -8 4 2 1 0 -3 -2 -8
1532257810228787 0 0 -1 -2 -2 -8 -3 -8
1532257810250729 -3 4 0 0 -1 -2 1 2
1532257810265688 -1 0 -1 0 -2 -6 -3 1
1532257810271673 1 0 -1 0 -1 5 -2 -3
1532257810289625 -2 -3 -1 -3 2 15 3 -5
1532257810312588 0 5 -2 -1 -1 -14 -8 -5
1532257810348516 3 -2 -2 1 2 11 5 9
1532257810370458 -8 -3 -1 -3 1 4 -5 -42
1532257810385417 9 -2 -2 -1 -1 18 2 13
1532257810392399 -2 -4 -1 1 -2 -5 -1 -7
1532257810438277 -2 -3 -1 -1 0 12 2 -1
1532257810445258 1 0 1 1 0 -6 -2 3
1532257810468233 -7 5 0 0 -1 -4 4 3
1532257810491171 2 0 0 -2 -2 -3 2 6
1532257810512116 -3 -1 -2 -1 -2 31 3 -29
1532257810530067 3 -3 -1 0 -2 -2 -4 7
1532257810552523 1 6 0 -4 -3 -6 -2 2
1532257810573465 -11 3 1 2 -1 -13 -3 2
1532257810610367 -8 -5 -4 -1 -1 3 -1 -36
1532257810624329 0 -2 0 1 1 -3 -1 9
1532257810648266 7 -3 -3 -1 -2 -2 0 12
1532257810684170 -5 0 1 -2 -1 -4 -2 2
1532257810693146 -8 2 1 1 -1 -1 4 6
1532257810731044 -3 3 0 0 1 6 2 6
1532257810745007 -2 4 1 1 -1 -2 3 2
1532257810753983 3 -4 -2 -1 0 -12 0 -6
1532257810790884 5 -10 -3 2 0 3 -2 9
1532257810804846 2 -2 1 -3 -1 -3 -2 10
1532257810828783 -2 8 1 -3 -5 -4 0 4
1532257810850724 -1 -2 -2 -1 -1 -7 2 -9
1532257810879646 -8 10 7 -2 -1 -11 4 13
1532257810897599 -4 -5 -7 1 -3 -13 -10 -13
1532257810925523 1 -8 -2 1 2 -15 2 -28
1532257810948462 1 -13 9 0 -3 -13 4 -41
1532257810970404 1 34 8 0 6 20 -16 -14
1532257810984367 9 -7 0 3 -3 -15 3 -3
1532257810993347 -6 4 1 -2 3 -32 -3 16
1532257811017279 4 -19 -20 4 2 -5 2 10
1532257811038231 9 -2 43 -16 -7 -16 -2 8
1532257811055183 7 0 26 13 3 -8 -1 -1
1532257811091087 -4 10 -20 6 3 2 2 5
1532257811113173 1 -6 42 -3 -3 0 1 10
1532257811134117 2 15 -61 -4 -3 -3 -2 2
1532257811188971 -1 -4 -8 -5 -3 0 -1 -1
1532257811210912 -5 -12 0 -4 -3 3 -1 -4
1532257811233865 -2 14 14 -3 -7 -3 -2 -3
1532257811246816 1 -3 13 -11 10 1 1 2
1532257811270752 1 -8 17 11 -4 2 1 -1
1532257811293690 -2 -3 -7 -8 -17 -10 -2 -2
1532257811306655 9 18 10 9 -3 -6 1 2
1532257811315632 0 -6 -5 -9 11 0 1 1
1532257811353530 5 4 -34 9 2 2 0 2
1532257811367502 -3 -15 3 -16 25 9 3 0
1532257811451269 2 47 9 -7 -38 -14 -7 -8
1532257811518091 6 29 30 20 40 35 5 0
1532257811547013 -12 -32 -99 -24 4 -3 -1 -2
1532257811570949 -1 -23 7 -3 1 -23 -3 1
1532257811606853 -5 25 -32 8 -28 3 -2 -3
1532257811653728 -1 67 38 2 10 1 2 1
1532257811690628 0 -22 -12 -7 13 -5 1 2
1532257811696613 5 26 33 -24 -1 -9 -2 1
1532257811727530 4 11 52 16 -12 7 -1 4
1532257811736507 2 -14 -38 5 18 -3 -1 0
1532257811757451 -14 1 47 29 0 13 -2 -5
1532257811796346 1 9 -74 16 -2 6 2 3
1532257811811322 -3 -38 -10 22 17 15 1 -1
1532257811833247 -7 -3 9 -19 -7 -3 -4 -3
1532257811870149 7 25 -17 -11 -29 -16 -2 -1
1532257811893087 4 -9 1 15 17 7 4 2
1532257811916027 0 15 12 -21 5 1 -1 -2
1532257811929989 1 5 -9 -10 1 13 9 6
1532257811952932 6 39 7 10 8 -9 -3 -4
1532257811975866 -2 -3 19 0 -3 -1 -1 0
1532257811998804 17 37 4 1 7 -20 2 8
1532257812014764 1 4 -2 -7 -1 23 5 4
1532257812044682 -13 -46 7 0 1 5 -1 -4
1532257812074602 -1 14 31 5 9 -44 -3 -1
1532257812109509 -2 -18 -7 14 4 19 -6 -6
1532257812118485 6 -8 16 13 0 -1 0 -2
1532257812135451 4 37 15 -5 -5 21 1 0
1532257812157380 -24 10 -42 2 -13 46 3 -6
1532257812180320 25 20 44 5 6 9 4 3
1532257812195280 -8 -20 -31 -13 -7 -8 -5 -3
1532257812246156 -7 40 -24 -13 -6 -15 0 -3
1532257812276064 1 11 -6 -6 -2 15 0 -1
1532257812319947 -2 -46 -21 -3 3 44 7 2
1532257812360837 10 14 26 6 7 47 -2 1
1532257812373802 -20 10 34 7 7 4 2 1
1532257812402725 -9 -82 -80 -36 -22 24 -1 -5
1532257812433642 0 30 35 25 32 4 2 -6
1532257812515424 -18 18 -15 -12 -6 4 -1 -6
1532257812567285 19 44 -37 -3 -2 0 5 11
1532257812615157 2 38 64 -36 -11 -1 -1 1
1532257812755781 -6 -24 3 -1 -3 -5 1 -1
1532257812927322 -3 -5 3 4 3 6 27 -23
1532257812958239 -15 -12 -3 0 4 17 62 2
1532257812981178 4 5 -11 -8 -7 9 2 14
1532257812996138 -5 -15 -14 1 -1 -4 -36 -5
1532257813018079 6 -3 -39 2 2 13 101 -1
1532257813077919 1 13 -7 -6 7 42 53 13
1532257813153717 -14 -25 3 -12 -15 -7 89 4
1532257813214554 -4 10 -2 -2 10 63 62 10
1532257813235505 7 10 -27 1 3 -5 12 6
1532257813282373 0 -26 3 5 -9 -43 -51 -4
1532257813318277 13 14 -32 15 8 43 127 20
1532257813439951 -4 22 34 3 -1 1 -11 -1
1532257813497797 0 -3 -6 -4 2 11 -65 -2
1532257813504778 -9 -16 14 -4 -7 -32 25 1
1532257813595535 21 -27 22 -17 -16 102 48 -11
1532257813618474 24 36 5 -20 -9 -77 44 22
1532257813662356 0 -10 -13 -30 -14 82 1 -6
1532257813701252 -39 12 12 -3 4 -9 31 4
1532257813775054 -5 -1 -3 3 7 50 -35 -3
1532257813842873 6 -67 2 2 -5 -23 4 2
1532257813963551 -4 4 -41 -2 4 1 1 5
1532257814120132 101 10 15 4 7 13 21 16
1532257814179972 11 5 19 0 0 -1 -7 14
1532257814239813 -46 -1 -39 -1 -7 -5 -8 -2
1532257814383429 -28 -2 -10 -3 0 0 9 -3
1532257814457231 -26 29 -11 -1 -3 3 -8 -17
1532257814480170 -14 -11 -1 -5 -8 7 -8 -18
1532257814585886 22 10 2 49 24 8 13 37
1532257814623785 -12 3 96 -15 -10 -8 -17 -23
1532257814630766 25 -13 2 -11 0 0 -8 26
1532257814683625 -15 8 -30 -8 -3 0 1 3
1532257814699582 -51 11 -34 11 1 -3 -3 -18
1532257814720527 -11 -7 9 5 2 1 -7 3
1532257814743465 8 -13 -61 -7 -4 -4 0 -1
1532257814780367 -23 12 10 -1 4 7 -18 -2
1532257814803306 16 -1 -8 1 0 -1 -6 -43
1532257814817268 16 29 11 -1 -2 -3 -42 49
1532257814863145 -44 -40 -5 -3 0 0 -24 -15
1532257814900046 -33 1 -10 -2 -2 -1 17 -4
1532257814937945 -33 17 3 -24 -14 -7 -43 -19
1532257814983823 -7 -12 -2 -33 -1 -1 7 -12
1532257814997785 -23 -17 -35 -12 -6 -4 16 12
1532257815057625 -5 15 -121 -9 -2 -3 3 6
1532257815080564 25 -16 -37 -6 -1 -2 1 -3
1532257815260083 6 -19 12 6 6 1 -12 62
1532257815319924 44 -39 -5 -4 -4 -10 2 11
1532257815389737 -79 -53 -5 -3 -3 -13 -53 -21
1532257815485482 19 -6 9 -10 -1 -1 -48 2
1532257815523380 -8 -12 13 6 4 0 15 -1
1532257815606159 0 11 -3 11 4 1 2 2
1532257815628099 0 -13 -2 -19 -7 -4 1 -1
1532257815650041 -2 18 10 8 3 0 -1 0
1532257815666995 -2 40 62 14 -3 -4 -3 -5
1532257815679961 0 -11 -3 -4 0 0 9 7
1532257815702900 -1 -15 -13 0 0 0 0 -1
1532257815716862 4 9 -15 1 -2 -1 -2 -2
1532257815739800 -8 -27 -20 -9 -4 -2 -1 -4
1532257815785679 -3 5 -7 -2 0 -1 -2 -2
1532257815800638 -4 -12 -12 -2 -1 -2 -1 1
1532257815823577 -7 10 13 9 2 1 -1 1
1532257815845518 -3 21 1 -10 -4 -2 -3 -2
1532257815884415 -9 5 16 -5 1 0 5 4
1532257815906356 9 9 -21 9 2 0 2 2
1532257815919321 -12 -6 -3 -5 -3 0 -3 -2
1532257815936275 0 48 21 -2 -3 -2 -1 0
1532257815997112 1 11 3 -14 -3 -1 -2 -3
1532257816005092 12 17 10 -3 4 4 2 3
1532257816026035 -10 -8 6 -5 -1 0 -2 -3
1532257816039998 -14 -48 -20 -2 -2 -2 0 1
1532257816085876 1 5 -14 -1 1 -1 0 0
1532257816099839 11 47 4 -3 -2 1 1 0
1532257816145716 -11 18 1 -1 -1 -3 -2 -43
1532257816159678 -11 -47 -7 3 4 16 4 11
1532257816189598 4 -47 27 0 -2 -16 -12 2
1532257816252431 10 4 39 18 5 9 2 15

1532257816280357 -4 -10 -90 -5 -4 2 1 4
1532257816288335 -5 38 0 10 2 1 -1 0
1532257816326233 -3 -13 -68 -8 -1 -2 0 1
1532257816363134 -16 -32 -11 -6 0 -11 -4 -8
1532257816386073 -7 -5 1 -4 0 -3 1 5
1532257816400039 3 4 -11 -5 -4 -4 -5 7
1532257816445930 -1 0 -1 0 -1 -2 -2 7
1532257816459892 6 -4 -13 -4 -2 0 4 10
1532257816489813 -1 1 2 0 0 2 -3 7
1532257816514749 -5 -3 -2 2 1 0 3 -13
1532257816543669 -2 0 1 1 1 2 -2 -10
1532257816549653 3 -1 2 2 2 -9 3 -3
1532257816574586 2 17 3 0 -1 0 -4 -2
1532257816602512 -1 -18 -4 -3 -2 -2 1 14
1532257816625450 0 -7 0 1 -1 3 -3 0
1532257816639413 -1 -5 0 -2 -4 1 4 13
1532257816648400 -3 -3 -4 1 -1 6 0 -6
1532257816669338 -1 4 -2 -3 -1 1 0 6
1532257816707231 5 1 1 -2 -1 -15 -2 5
1532257816716207 -7 -6 2 0 1 -4 -1 -4
1532257816737151 5 -11 -4 0 0 1 3 7
1532257816768069 2 6 2 2 1 6 3 1
1532257816783029 -5 -5 -3 -4 -1 4 -2 -7
1532257816828906 1 -3 -1 1 -4 -2 2 8
1532257816843866 0 7 0 -3 -2 5 2 16
1532257816888751 -5 -13 0 0 3 -1 1 -3
1532257816902708 -5 -8 -3 -1 1 -13 -4 2
1532257816925679 5 13 1 0 -2 -5 1 5
1532257816948617 -2 -6 2 1 1 5 -2 -1
1532257816969564 3 2 2 0 0 -2 -2 5
1532257816987590 0 6 0 0 -3 14 1 8
1532257817010528 8 -5 1 -2 -1 -5 1 10
1532257817029477 -1 0 2 2 1 -3 -4 -9
1532257817047430 5 1 -5 -2 -2 5 -1 10
1532257817070368 -8 13 2 -2 -1 -7 6 11
1532257817090574 -11 -1 4 1 2 -4 -1 -26
1532257817128472 0 -6 -20 0 0 -11 -4 -3
1532257817142435 4 -10 22 2 0 6 1 6
1532257817165373 -4 3 -33 -4 -1 0 -3 -14
1532257817188312 4 -4 9 -2 -1 7 -5 -6
1532257817202274 -4 -15 -13 -3 -2 -10 0 -11
1532257817226211 0 8 5 -3 -1 0 1 -3
1532257817248152 4 -5 -21 -3 -2 -1 0 6
1532257817262115 -10 1 10 0 -3 -1 -7 -17
1532257817271091 3 0 6 -2 0 0 0 3
1532257817307992 4 1 27 2 0 22 1 -2
1532257817329933 3 -4 -6 0 0 -8 3 1
1532257817338910 0 4 -8 4 -4 -4 -3 -3
1532257817368829 0 -3 -4 1 0 -1 -1 5
1532257817381795 0 2 5 2 1 6 -3 8
1532257817405731 2 -11 -8 -1 -2 -10 -1 -1
1532257817428669 1 -4 -2 0 -2 -1 -1 -26
1532257817451610 7 6 -3 0 0 4 2 0
1532257817488509 3 -2 -59 -5 -1 0 0 6
1532257817502472 -3 20 9 1 -3 -7 -1 0
1532257817511448 9 2 95 -2 -5 -4 0 6
1532257817548388 2 -6 1 0 2 1 -1 3
1532257817562350 2 2 -4 -2 -2 0 1 19
1532257817571326 1 -49 -23 0 9 -47 6 20
1532257817593267 -3 1 -27 -2 7 16 3 -29
1532257817610227 0 106 -19 -7 -8 -22 5 -20
1532257817631166 2 -2 -4 1 0 7 3 8
1532257817652122 -1 -32 -35 -3 -3 18 -15 5
1532257817676046 -6 -2 -8 9 0 10 -3 2
1532257817698986 8 0 -17 5 -2 -3 -1 3
1532257817711950 -1 -3 14 7 2 6 2 5
1532257817750848 -3 14 45 5 0 2 -2 -5
1532257817764809 -2 -19 -71 4 -1 6 -3 -4
1532257817788745 1 6 -35 7 8 1 0 -2
1532257817810686 -3 -12 10 -11 -20 -3 -7 -6
1532257817848584 -1 0 -5 4 -1 -1 -1 0
1532257817870526 3 16 6 -8 -3 1 1 -2
1532257817877508 -4 -1 23 -9 -40 -6 -2 -4
1532257817914409 -2 -8 -3 3 22 5 1 -1
1532257817944329 -1 -8 -40 -6 -7 -4 -1 0
1532257817953306 1 -11 5 -16 -32 -3 0 -2
1532257817991204 -6 -8 -9 -11 -18 -9 -4 -3
1532257818004168 -6 -6 1 -36 -32 -10 -2 -2
1532257818013145 5 5 34 4 54 10 1 4
1532257818051043 7 -10 7 7 -6 2 2 2
1532257818065006 2 11 23 14 12 11 4 0
1532257818118862 -1 19 45 15 38 13 1 -1
1532257818170724 -6 -13 -15 10 0 12 -2 -4
1532257818230564 0 3 -31 -25 -20 -8 -2 -3
1532257818253502 12 39 52 -6 -13 -7 -3 0
1532257818291401 -2 -12 35 -6 -3 4 1 0
1532257818327305 0 -45 3 13 8 -7 -2 -1
1532257818388143 2 -2 -51 -4 -6 -13 -2 0
1532257818492861 4 26 7 6 19 -1 0 -1
1532257818566665 -5 -19 0 0 -7 -12 -6 -2
1532257818613539 -4 7 7 12 2 0 -1 0
1532257818643460 -7 4 2 -2 1 4 -3 -5
1532257818667395 -1 -2 -1 0 0 0 7 3
1532257818675374 -7 -20 -3 1 -8 -3 -1 1
1532257818718275 -8 39 -22 0 -3 3 -5 -7
1532257818733219 17 32 0 1 3 28 4 0
1532257818747182 -7 61 -12 -1 1 15 -7 1
1532257818792062 0 5 1 10 5 -10 8 1
1532257818801046 1 -32 -43 0 -7 4 -2 -2
1532257818830958 -2 -22 -8 -5 -1 -16 -2 0
1532257818852899 1 -11 -27 0 10 41 1 -4
1532257818866861 -3 2 -1 -11 -9 -48 -14 -4
1532257818913737 -2 -36 53 -18 -11 15 9 -1
1532257818934681 3 14 -4 3 -2 11 0 -1
1532257818958617 0 33 58 -18 -2 -2 -1 2
1532257818995518 -7 -22 -73 -7 -3 55 40 1
1532257819025438 13 -49 -29 4 3 -28 -21 -5
1532257819063337 -1 2 21 28 5 -11 -6 3
1532257819093257 -2 -31 -11 -4 -2 -16 -11 -12
1532257819116195 8 33 33 8 1 -1 1 3
1532257819161075 -3 -12 -3 -7 -1 -2 -2 -1
1532257819183017 -4 -36 -23 3 1 -14 4 6
1532257819221913 2 0 3 -1 -5 -2 1 1
1532257819250836 -2 17 0 0 1 3 -3 -4
1532257819288734 4 -10 -10 -3 -1 3 3 14
1532257819325635 -2 11 -2 0 -1 -2 -2 -4
1532257819347577 -1 -15 -2 -1 0 -1 8 0
1532257819393454 -3 5 -3 -1 -3 -1 0 11
1532257819407416 -7 -10 -7 -1 0 4 2 -27
1532257819438334 -1 -16 -4 -3 -1 -4 -15 10
1532257819467257 6 -10 -6 -4 0 3 19 6
1532257819490195 2 20 5 1 0 -12 -12 1
1532257819521112 0 -15 -9 -3 1 4 -3 23
1532257819574969 -15 -5 -11 -6 -3 3 -25 -9
1532257819618851 -9 22 12 -6 -6 17 19 -28
1532257819640792 12 -1 7 -9 10 92 44 67
1532257819669715 -3 -21 28 -10 -14 -36 40 -24
1532257819738531 -22 2 -6 4 7 -40 -47 -17
1532257819752500 9 13 -17 -7 3 43 91 7
1532257819767454 13 -10 -11 2 15 22 52 34
1532257819821310 6 -8 5 3 3 4 26 2
1532257819875166 -5 5 -6 -8 -1 -1 -9 0
1532257819935019 -1 -2 0 -7 -7 10 -7 1
1532257819955950 0 -2 11 5 8 -6 -24 -5
1532257819993848 4 7 6 -11 -6 -3 7 0
1532257820015790 -6 -6 2 16 17 81 45 2
1532257820053688 4 -30 -6 -7 -8 46 -14 -4
1532257820113529 -3 5 18 1 -5 -28 -50 -5
1532257820135470 10 5 -12 -13 -1 11 11 0
1532257820173376 -12 -25 -11 16 3 -10 -13 -15
1532257820196307 2 -24 9 -7 -8 19 32 7
1532257820278088 -2 12 2 4 -1 -7 2 3
1532257820315987 5 22 5 4 0 -8 -4 -1
1532257820449630 -12 -30 1 1 0 -5 -17 -17
1532257820578286 20 17 17 -1 -1 -15 1 0
1532257820602223 -5 14 -8 -2 0 6 5 9
1532257820668046 -14 -2 13 2 3 -4 -9 -35
1532257820689987 13 16 9 1 3 5 -5 5
1532257820704947 -8 -6 4 12 11 1 -3 -13
1532257820734866 58 6 6 7 -4 -7 2 1
1532257820757806 31 5 4 -18 -6 -3 3 -2
1532257820794706 -24 7 15 1 2 1 13 -1
1532257820817646 -1 18 8 -1 -3 0 5 -4
1532257820855544 -6 13 9 1 0 -1 1 -2
1532257820877485 -30 -7 9 6 -3 -5 -2 -8
1532257820953283 22 1 -63 -22 -6 -1 1 8
1532257820990184 -24 -4 -26 -7 -3 -2 2 0
1532257821001155 -10 3 29 -5 -2 -3 2 -2
1532257821035064 1 6 2 3 3 2 0 -7
1532257821071965 -1 22 26 4 -1 -4 -2 16
1532257821117842 18 3 -1 2 2 5 13 8
1532257821131805 33 -31 -6 1 -5 -6 -6 -23
1532257821154744 -7 -13 -4 4 1 8 16 1
1532257821177682 -13 15 -3 -4 -3 -4 12 -14
1532257821237522 17 -10 -4 -3 -4 -4 7 -13
1532257821246499 -21 5 2 -4 -3 17 18 -34
1532257821275422 35 17 23 -34 -9 -5 -12 14
1532257821297363 -25 -11 -23 1 3 -8 -6 -11
1532257821358200 -12 -20 -61 3 2 1 -10 -1
1532257821395102 18 12 56 3 -4 -2 -3 3
1532257821418040 4 20 -1 0 -2 0 -13 -3
1532257821454941 12 3 28 3 4 11 3 11
1532257821477880 6 17 -8 -4 -2 -4 1 3
1532257821508804 -20 7 59 7 2 3 10 -15
1532257821568638 31 4 -11 -1 -4 -3 11 12
1532257821597559 -5 7 -9 0 -1 2 -19 30
1532257821657400 59 49 2 2 0 -25 38 13
1532257821681336 1 28 1 -4 -2 23 20 19
1532257821741176 -33 37 -1 -6 1 4 -23 10
1532257821837916 -48 65 31 14 5 6 8 7
1532257821860856 21 0 18 -1 1 1 -6 0
1532257821897756 11 -7 17 7 5 -9 -5 3
1532257821935656 -9 33 -40 0 1 4 -13 5
1532257821980536 0 4 15 4 -1 -2 5 -5
1532257821995496 6 -12 11 -4 -9 4 -4 -2
1532257822025421 0 33 -20 -1 2 4 -14 -3
1532257822041373 12 28 -7 0 0 15 -29 4
1532257822054339 15 33 50 5 3 -45 33 -27
1532257822086254 2 -25 -16 -1 4 13 -14 -30
1532257822101213 1 -37 -9 -1 -4 5 31 53
1532257822114178 -18 11 -11 -8 -10 9 -3 9
1532257822138114 -41 -44 -21 -6 2 -8 -87 -15
1532257822161053 0 -34 -3 -12 -2 11 1 -9
1532257822197954 24 39 -5 -3 -5 -5 21 9
1532257822243832 -5 1 -12 1 -2 -3 6 -1
1532257822256796 -5 -6 -5 3 4 5 7 -9
1532257822294696 -1 1 31 34 6 1 1 -5
1532257822317634 0 -2 -11 -9 -5 -1 2 1
1532257822363511 0 6 26 -5 -4 -1 1 1
1532257822385460 -2 1 36 1 0 0 -1 -1
1532257822423352 0 -1 -23 -13 -9 -1 0 1
1532257822437314 1 30 12 -4 -3 -3 -1 -3
1532257822483192 -4 -10 -6 -5 -1 1 0 0
1532257822498151 -4 -19 -16 -5 -1 0 -1 -1
1532257822521090 -2 -3 -3 13 -3 -1 -1 0
1532257822543032 -1 -5 -24 5 2 1 0 1
1532257822557992 1 -3 26 -7 -2 -1 0 0
1532257822588909 -4 -8 -5 -3 3 8 2 -1
1532257822610850 -3 -28 -26 0 -1 0 -2 -3
1532257822641768 -10 -39 -57 0 -2 1 -1 0
1532257822647751 2 9 -20 -2 -1 1 1 -1
1532257822676674 -2 -22 7 -4 -2 8 0 -2
1532257822723549 5 -4 0 11 4 4 1 3
1532257822737512 9 14 -4 -11 -2 -3 0 -4
1532257822767431 -3 -50 18 -1 -2 -3 -2 -2
1532257822791368 1 -17 -6 -11 -4 -3 0 3
1532257822821287 3 30 -14 -6 -2 2 0 0
1532257822844226 4 -1 92 8 0 -3 3 -2
1532257822858189 6 -2 43 13 4 -3 -5 -4
1532257822881128 14 -34 14 3 1 -18 22 79
1532257822903069 -11 -70 2 6 5 -4 20 13
1532257822917032 3 36 13 -2 6 32 3 14
1532257822947948 -5 12 27 -4 -2 -9 -8 -39
1532257822976872 -13 4 -3 -19 -12 -2 -11 -7
1532257823000808 -14 -64 75 10 2 0 -7 -10

1532257823023746 -1 -7 75 -4 -4 -3 -4 -11
1532257823036711 0 38 8 18 5 4 -1 -9
1532257823068656 1 25 -80 0 -3 -7 -5 3
1532257823097549 2 7 -29 -3 1 8 7 -55
1532257823134715 2 -14 6 -8 7 -22 10 -6
1532257823152668 -5 -3 -28 1 -4 -3 -3 -18
1532257823174609 0 -10 -13 -1 1 16 -7 8
1532257823187575 -2 -15 -13 0 1 11 -2 -1
1532257823205526 0 -7 -11 -3 -1 8 -3 -1
1532257823226470 2 -27 -5 -1 -1 -1 5 2
1532257823246592 11 33 -21 2 0 -9 7 6
1532257823265541 -8 -5 -2 -4 -2 8 3 -45
1532257823286491 -2 -7 7 2 0 0 -7 12
1532257823307429 -1 -4 -3 -1 -1 -2 -1 10
1532257823325381 0 1 -3 1 1 -2 0 5
1532257823347327 2 -2 7 -3 -3 -1 2 5
1532257823367269 1 2 22 -1 -3 -1 -3 6
1532257823385221 -2 -2 2 -1 -1 2 -3 6
1532257823423131 -9 2 -2 1 1 -3 -2 -38
1532257823444064 1 -5 -8 -1 0 1 2 12
1532257823466005 1 -1 1 -1 2 -12 -1 -1
1532257823487946 -5 -1 2 -4 -3 -5 -1 11
1532257823510884 0 2 -1 -1 0 4 1 -21
1532257823525850 1 4 3 3 -1 0 -1 8
1532257823539808 -1 -3 -5 -3 -4 -2 3 8
1532257823546789 2 0 -6 0 -1 -13 -1 0
1532257823564753 1 -3 -1 0 1 2 -2 -2
1532257823587680 0 -1 -1 -2 -2 1 -1 -3
1532257823606715 2 1 -3 -2 -2 18 -2 0
1532257823624667 -3 -1 -1 1 2 8 0 1
1532257823647606 -12 4 28 3 1 -2 -4 -10
1532257823673537 2 -8 22 5 3 -2 -2 21
1532257823699467 13 -8 4 3 2 9 -3 -7
1532257823720411 -6 8 3 3 -3 -11 0 -2
1532257823742559 10 10 -19 -6 -7 13 -5 -3
1532257823772479 2 10 14 0 1 -5 5 -27
1532257823794420 -5 9 14 -2 -9 -21 -48 -13
1532257823817359 -9 -31 11 -3 -8 19 17 9
1532257823832319 -10 52 9 4 8 5 8 32
1532257823854260 4 -25 -1 0 -1 -3 0 -19
1532257823878196 4 5 -22 -4 1 -2 4 7
1532257823901134 1 -7 97 -5 -4 -9 0 -18
1532257823923820 1 8 90 2 1 2 -3 -20
1532257823951747 -3 2 58 6 -1 -2 -2 -11
1532257823990641 -1 5 12 -2 -1 2 -1 0
1532257824004604 -1 -2 -55 -1 0 0 0 0
1532257824014577 0 6 19 -5 -3 -7 1 -2
1532257824028540 2 3 10 3 2 1 -1 11
1532257824058460 0 0 -12 0 -1 2 -1 -2
1532257824066438 1 0 -1 -4 -3 -4 -2 2
1532257824094364 2 -1 -10 -5 -5 -3 -2 -3
1532257824117303 1 18 -22 6 7 0 0 3
1532257824132262 -4 17 47 -4 -19 -4 -4 -2
1532257824154204 0 -25 -24 -1 -2 0 0 1
1532257824177143 0 -13 -20 -14 -10 -2 0 2
1532257824215056 -5 -51 -17 8 14 2 -2 -2
1532257824236982 2 25 -13 -11 -7 2 1 0
1532257824274881 3 5 36 5 13 3 1 0
1532257824296823 0 9 11 10 24 -1 -1 -1
1532257824305798 5 -15 15 -2 -2 0 1 0
1532257824334721 -5 -14 7 -4 -16 -7 1 -2
1532257824356663 -2 -2 4 3 7 3 2 0
1532257824371623 4 14 -29 1 -5 -4 -2 -1
1532257824394561 -1 26 31 1 -17 -3 -5 -5
1532257824417500 -5 -30 -31 0 8 -8 -1 -1
1532257824477340 -3 -21 29 -6 0 -5 2 -1
1532257824514241 3 7 10 -2 -11 -12 -5 1
1532257824537180 0 20 -62 0 2 26 3 1
1532257824605996 5 15 38 -6 14 -2 -2 -1
1532257824650875 2 21 18 9 -9 -7 -2 1
1532257824701755 -1 -21 -29 0 -7 2 0 0
1532257824808455 -2 -23 -7 -3 7 7 1 1
1532257824831393 4 -6 -13 -4 9 4 -1 0
1532257824868294 1 -22 -13 -6 6 -2 -1 -1
1532257824913174 -6 6 10 -1 1 -2 -2 -4
1532257824928134 0 6 2 -1 -1 1 -1 -2
1532257824942098 1 -16 -22 -7 -6 -1 -2 1
1532257824987975 -3 -6 -1 5 8 -5 -4 -4
1532257824995953 2 12 3 1 2 10 3 5
1532257825012908 -11 -13 32 -2 2 6 1 -9
1532257825031856 6 -8 -21 1 1 6 2 1
1532257825061777 9 15 5 2 -5 3 0 -2
1532257825108651 -4 -17 19 -4 -4 1 -2 -2
1532257825121616 -5 6 15 -1 -4 0 6 1
1532257825145554 4 0 36 8 11 -19 -6 -4
1532257825168492 4 6 -34 -8 -5 1 -2 -1
1532257825190433 -4 -32 -75 -4 -6 28 -2 -2
1532257825228331 2 32 75 1 -2 -10 -3 -6
1532257825251270 5 -13 20 5 5 -38 -2 1
1532257825287174 -16 20 35 -14 -9 -34 -2 -5
1532257825325073 4 -24 -102 4 -3 -7 1 -1
1532257825363969 -7 -94 -22 -7 5 9 3 6
1532257825385919 2 74 106 13 10 17 1 3
1532257825444756 -9 -44 -36 -8 -4 0 0 3
1532257825475670 -1 15 43 12 4 6 0 0
1532257825505590 -3 -7 -36 -8 0 5 -1 3
1532257825596348 -4 -8 15 -4 -2 -2 -2 0
1532257825612305 -1 33 22 5 -1 -1 -3 -5
1532257825694086 11 20 3 5 0 -1 -1 2
1532257825725003 2 -7 -1 5 3 -2 0 -1
1532257825790828 1 -8 -3 -3 -2 -2 16 12
1532257825828726 -8 -21 -11 0 1 2 11 -3
1532257825850667 11 13 4 0 0 -4 -21 20
1532257825873606 7 7 -5 -5 -7 -21 -62 5
1532257825942427 -5 -19 1 -1 0 2 87 11
1532257825949403 -29 2 10 -1 -3 -1 -4 5
1532257825989297 -10 21 3 3 2 -2 -25 9
1532257826038166 -7 25 96 0 -5 -23 67 -7
1532257826044150 10 12 1 20 12 11 34 6
1532257826113963 -5 -11 -7 -14 -5 -17 10 8
1532257826150864 -4 5 11 -14 -11 -22 0 -10
1532257826180785 -8 -19 -17 -9 -5 11 26 -3
1532257826242620 -3 -18 -15 -10 -2 -2 39 2
1532257826271542 0 -3 -7 -3 -11 -29 21 -3
1532257826316422 -1 6 -4 -5 -1 3 74 24
1532257826406182 -2 -1 3 2 1 10 25 -2
1532257826428123 -5 -5 14 -1 -1 -11 -35 -6
1532257826451062 -6 -22 35 -20 -5 8 -21 -6
1532257826480981 2 30 -5 14 7 -23 -21 -1
1532257826555782 6 -11 -2 -5 -2 40 -96 -1
1532257826653521 6 3 3 -6 4 -34 10 4
1532257826727323 0 -4 -4 -5 -3 -7 -14 -10
1532257826938758 3 36 52 3 -4 -32 -8 -1
1532257826966683 -4 0 -7 -1 -1 3 1 -6
1532257827081376 10 8 -4 1 3 4 0 8
1532257827102321 116 11 -3 -3 4 7 4 42
1532257827133237 31 7 15 -9 -4 -11 -6 9
1532257827170139 6 10 3 5 2 -2 -5 11
1532257827216016 -5 -4 14 -5 -6 -8 -9 -3
1532257827229979 -48 -15 -10 7 -3 -5 -1 -21
1532257827252918 4 8 5 -7 -3 -1 0 7
1532257827283834 20 14 -3 -5 -2 -3 1 7
1532257827320752 -16 6 -22 -5 -1 -3 -1 -8
1532257827335708 8 11 -7 10 14 4 2 -2
1532257827374592 -5 8 12 2 -2 -3 -3 1
1532257827403515 25 -15 -13 -5 -2 -3 3 6
1532257827432437 -14 18 2 2 0 0 -1 -9
1532257827455377 -9 -15 2 -1 1 0 -3 -1
1532257827515217 -16 16 3 1 0 9 4 -12
1532257827555110 -25 -32 -8 0 12 24 24 12
1532257827597995 14 -5 -5 -2 -4 -2 -18 17
1532257827643872 -6 3 -5 9 -1 -5 2 12
1532257827672795 -1 45 -9 -4 -1 0 -4 -10
1532257827694736 -4 -5 22 -18 -8 -1 4 -4
1532257827755573 15 16 -43 8 8 -1 3 -4
1532257827777514 -2 -44 53 2 -6 -2 4 -5
1532257827815413 -7 13 -4 6 -1 0 1 2
1532257827875253 22 -8 -11 3 -2 6 12 51
1532257827914149 -4 -11 13 4 1 2 5 -14
1532257827935099 -8 17 2 -1 1 -2 -15 -100
1532257827994933 2 -5 -3 -1 -5 19 -31 30
1532257828019867 -44 13 4 -2 -3 -29 11 75
1532257828054773 -38 11 15 -5 1 -2 19 0
1532257828092672 26 29 17 10 5 -4 3 -9
1532257828115611 10 25 -97 -22 -7 0 4 -6
1532257828152511 -9 -3 79 10 3 -2 -5 -2
1532257828198389 -37 26 34 -1 2 1 5 -6
1532257828295131 2 -16 16 3 3 -2 -3 -2
1532257828354970 -2 2 -11 -2 -2 1 -4 -11
1532257828400848 23 4 8 11 19 29 51 -8
1532257828414811 76 -87 -1 8 1 0 -94 -27
1532257828452709 -16 17 1 2 2 1 51 -6
1532257828475648 -40 23 5 -10 -7 -16 1 5
1532257828535489 22 27 4 0 -3 -1 4 -5
1532257828618266 5 7 -12 -3 -3 -2 3 6
1532257828655168 8 17 6 1 -1 -3 0 2
1532257828692069 -2 29 33 3 -4 -4 -4 -4
1532257828715008 3 11 -6 -1 2 0 2 3
1532257828759887 4 52 13 -8 1 0 -1 0
1532257828811750 -2 -15 -2 5 -1 -12 -13 1
1532257828858624 9 29 4 -10 -4 -5 1 0
1532257828918463 -10 2 5 2 -1 2 7 3
1532257828978304 -37 -22 -20 -4 -1 2 7 4
1532257829055098 6 -14 -16 5 0 0 -1 0
1532257829257556 -3 -23 2 -5 -2 2 -2 -4
1532257829293461 10 15 18 -3 -1 -2 -5 2
1532257829315402 6 7 8 -1 -3 -23 -11 43
1532257829361279 -10 57 17 -6 -5 -42 -51 -2
1532257829398181 -1 -14 90 2 -3 7 6 2
1532257829421120 -7 -16 24 58 23 13 14 -24
1532257829458021 -3 9 31 -11 -5 2 6 -2

1532257829494926 3 1 -45 -12 -3 0 3 -7
1532257829565739 -7 0 -25 -8 -1 2 6 -6
1532257829623584 10 -23 -13 -5 -3 -1 -4 -8
1532257829660485 1 2 0 -1 -1 0 3 7
1532257829674488 0 -44 -17 -6 -6 -1 0 1
1532257829698424 3 -5 -4 1 0 0 -1 -5
1532257829721362 1 6 5 -3 -1 -1 3 3
1532257829758279 -5 10 4 1 -1 0 -3 1
1532257829781202 3 8 3 -2 -1 -2 1 -1
1532257829803144 -2 15 5 0 -1 -1 0 -2
1532257829871959 3 -6 -2 1 1 1 1 -2
1532257829879938 2 1 -1 -3 -1 -2 -1 1
1532257829914845 -14 5 10 1 1 0 1 2
1532257829938787 -7 16 6 0 0 -2 -5 -6
1532257829960736 8 -15 1 0 -3 -2 -2 0
1532257829983674 -1 2 9 1 -1 -2 -1 2
1532257829998634 -7 -4 2 1 3 2 1 0
1532257830020576 4 -9 -2 0 0 -2 -1 0
1532257830043515 -1 -13 -10 0 -1 1 -1 -4
1532257830058474 3 -7 6 -3 -1 -1 0 -1
1532257830080416 8 -8 1 1 0 0 -2 -3
1532257830103354 1 9 1 -2 0 -1 -1 -1
1532257830117317 -3 -1 0 0 1 -1 0 1
1532257830163195 -21 15 2 1 1 4 -2 -3
1532257830178155 2 -1 -3 -1 -2 -1 -1 -2
1532257830201130 2 4 -1 -3 -4 -3 0 0
1532257830223084 1 -13 6 1 0 0 0 -1
1532257830245014 1 7 12 0 -2 0 -3 -8
1532257830262965 -3 -9 -16 -1 -2 -7 0 -4
1532257830292886 -1 10 49 1 1 2 1 1
1532257830320811 -9 13 -3 -1 -1 16 1 -29
1532257830343749 1 0 0 0 0 -3 1 5
1532257830356715 -5 10 9 -3 -3 -5 -3 -5
1532257830425531 2 5 -7 0 0 0 3 0
1532257830434507 -1 -7 0 -2 -4 -1 1 1
1532257830477392 0 0 2 1 1 -1 4 9
1532257830501329 1 -16 1 -1 -1 -2 -4 0
1532257830523269 10 4 4 0 0 -2 1 6
1532257830537232 -1 -11 2 -1 0 0 2 3
1532257830561168 -1 3 -27 2 0 0 -1 8
1532257830583109 -6 -5 90 3 0 -2 1 6
1532257830597072 5 19 42 -1 0 1 -1 12
1532257830606049 -3 -12 3 1 2 3 -8 -7
1532257830646939 5 5 5 0 -4 -6 2 4
1532257830658906 0 -11 -16 -3 -4 -4 -2 -3
1532257830711766 4 -9 -10 1 4 20 -2 -3
1532257830718747 16 -27 -6 1 -5 35 29 98
1532257830776592 8 -1 -43 1 1 -12 3 -6
1532257830807510 -1 3 74 15 4 12 4 8
1532257830846557 -6 -19 -56 -6 1 2 1 1
1532257830890440 1 8 -46 3 1 -1 -1 -3
1532257830913378 1 5 41 -6 -4 -3 -1 -2
1532257830928337 -4 1 12 -10 -7 -5 -1 1
1532257830934321 1 -1 5 9 3 6 3 2
1532257830966236 -1 -7 -11 -19 3 1 0 -1
1532257830988178 -2 -11 8 11 -10 -7 -1 -2
1532257831011116 -1 -1 25 -3 -14 -1 0 -3
1532257831026076 0 4 -4 -2 2 0 -1 0
1532257831047020 -3 -12 -13 -18 -27 -10 -3 -1
1532257831085916 1 7 -2 8 10 6 0 0
1532257831108858 1 -3 -3 -13 0 0 1 0
1532257831159723 -2 -9 -33 -5 -2 -1 -3 0
1532257831205596 6 -2 8 -6 -3 -4 -1 1
1532257831265436 -4 -27 8 -11 20 5 1 -2
1532257831279399 -3 22 23 -6 -11 -5 -1 -2
1532257831326274 -1 -34 -8 10 5 0 1 2
1532257831393095 0 -5 2 1 -1 -2 0 -1
1532257831423015 0 15 24 1 -4 2 -1 -2
1532257831565649 -11 -35 -12 -2 1 -4 1 -2
1532257831671351 5 55 6 -11 -9 -29 -6 0
1532257831729196 9 19 17 8 2 -2 1 2
1532257831768092 -3 14 -7 -3 -2 4 -3 -1
1532257831830924 13 4 -3 -2 -3 -18 0 0
1532257831865831 9 26 19 1 0 -28 -4 -9
1532257831888781 7 -24 -30 -17 -5 -3 -3 -4
1532257831909713 -4 -16 -13 -3 2 15 0 -1
1532257831954593 -6 -10 -17 0 2 35 4 -1
1532257831977533 -9 -31 49 1 0 4 -1 -4
1532257832008449 -8 -11 -53 9 1 0 0 -3
1532257832022412 6 -6 -6 -6 7 8 0 4
1532257832063303 -4 8 -31 1 0 -20 0 -2
1532257832069287 2 13 4 -1 1 27 4 1
1532257832114166 -5 -24 1 -2 0 -2 0 0
1532257832187969 9 36 14 11 3 -16 3 1
1532257832225868 -9 -31 -30 -5 1 -5 0 -2
1532257832255788 1 17 11 5 -1 21 1 -2
1532257832278727 -1 -15 10 3 2 0 2 1
1532257832442289 13 23 -16 4 1 0 0 4
1532257832466225 2 3 -13 -1 1 1 2 0
1532257832502144 -1 -1 -17 -2 1 -1 -2 -3
1532257832525068 -2 -4 -10 -5 -3 -2 -2 0
1532257832570946 -4 -2 -2 2 1 2 2 -4
1532257832645745 0 -11 1 2 2 -2 -4 1
1532257832659708 -2 -8 -6 -6 -2 7 54 4
1532257832690625 -3 2 7 -1 -6 -12 -15 5
1532257832713564 9 -20 -8 2 3 7 25 24
1532257832735505 -3 4 0 0 6 34 32 -9
1532257832758443 4 13 -4 1 4 -5 -5 1
1532257832789361 -3 21 13 2 -6 24 5 -6
1532257832870145 -13 -24 14 -7 -3 -19 -47 -10
1532257832888097 16 12 40 2 4 -12 48 1
1532257832917020 -4 -8 0 -10 -4 -15 94 8
1532257832990822 -11 38 -4 -8 -8 15 -71 -16
1532257833049665 5 5 25 6 -2 35 9 7
1532257833073605 6 10 17 1 -4 1 -70 -7
1532257833110502 -7 16 -11 -10 -7 -18 -54 -8
1532257833140422 10 3 26 20 3 -3 -13 1
1532257833150396 -6 -11 -3 3 0 -17 64 7
1532257833222204 -8 -10 -3 0 -4 -2 -38 -9
1532257833237163 8 3 -2 6 0 4 44 0
1532257833253121 5 4 4 -2 0 -12 -9 8
1532257833270080 -6 -19 -16 -14 1 3 -13 -6
1532257833313969 4 3 4 2 2 -34 -24 2
1532257833327921 -1 9 12 0 -7 4 3 3
1532257833410699 -2 -5 -10 4 7 25 23 4
1532257833665019 -5 38 -4 3 1 22 7 -1
1532257833772731 1 43 -4 2 2 -1 0 2
1532257833874460 12 4 -3 1 -1 -5 5 -3
1532257833927318 -30 8 6 -5 0 -6 -7 -16
1532257833973195 82 -5 5 10 1 -4 2 11
1532257834047016 10 11 12 -1 5 4 4 7
1532257834063953 -9 -17 10 -5 -5 -3 4 -2
1532257834099856 -77 5 -19 6 5 1 14 -11
1532257834108833 -10 -29 -8 -17 -4 -6 14 -1
1532257834129777 3 -7 4 -5 1 3 24 6
1532257834152715 32 19 6 -3 -4 -1 11 12
1532257834183633 0 13 -6 -9 -4 -1 11 12
1532257834212555 40 -6 -8 -5 -2 1 7 0
1532257834243473 -9 -4 -2 -1 -2 -2 -2 0
1532257834250454 -25 5 3 -2 -1 -2 -2 -5
1532257834295334 1 -8 1 -2 -2 -1 5 1
1532257834310294 13 1 -1 0 0 -1 4 22
1532257834355173 4 6 0 -1 0 3 -7 -10
1532257834378127 -4 1 -1 0 -1 -3 -10 -18
1532257834415014 3 -2 4 0 -3 -2 7 5
1532257834429974 -4 -29 -11 -4 -2 -3 1 28
1532257834474853 -10 7 10 -4 -1 -1 -18 -11
1532257834520731 -22 -21 -3 26 0 -2 -16 -8
1532257834552645 -34 -8 3 -30 -8 1 23 1
1532257834572593 13 -12 -13 48 15 3 1 -5
1532257834595531 -3 -7 -37 1 3 1 -11 2
1532257834632433 23 -20 3 0 0 -2 -6 5
1532257834655371 -19 -1 0 -1 2 2 0 -1
1532257834692272 -15 3 6 -3 -3 1 -9 0
1532257834730171 -2 -47 -1 -1 1 -4 -3 5
1532257834775051 2 18 4 -1 2 1 -4 -12
1532257834812950 -2 21 1 -1 -2 1 10 -19
1532257834849851 0 -39 -3 -1 0 2 -10 -9
1532257834903706 8 68 -2 -4 -3 7 6 -7
1532257834955569 27 -8 4 3 2 -2 10 -9
1532257835001446 -4 0 -9 14 5 1 -1 -2
1532257835023387 -30 -55 -10 17 2 0 8 -5
1532257835052310 -23 8 -29 -3 -3 0 -2 -12
1532257835075248 -17 -24 -62 12 -5 -4 0 -13
1532257835135090 -13 1 2 -3 0 0 5 -8
1532257835172987 -7 -7 14 1 -4 -6 -7 4
1532257835209888 -28 -5 5 3 5 2 -20 -79
1532257835232827 8 21 -5 -2 -1 1 7 7
1532257835255766 -6 -21 7 -1 -2 0 1 13
1532257835292672 -7 32 4 -2 -1 -1 13 11
1532257835317606 -34 54 2 -2 -2 -7 2 20
1532257835375446 -8 -46 37 -4 -2 -1 14 -28
1532257835412347 -17 -33 56 6 3 -1 -73 -20
1532257835473184 22 9 -7 -3 0 -1 6 12
1532257835509088 -7 -1 -8 -5 -1 0 4 -4
1532257835533024 0 -36 5 4 -3 -1 3 4
1532257835555964 6 15 -5 4 2 0 -4 4
1532257835615803 2 20 -6 3 2 1 1 0
1532257835637744 1 7 16 4 3 2 -1 -1
1532257835796320 -3 -40 -26 -8 -2 2 1 0
1532257835818262 -14 -16 16 4 -3 -3 0 -2
1532257835856160 4 -3 13 1 -1 -3 -2 0
1532257835892064 -2 11 8 2 -2 0 0 0
1532257835916000 -1 -68 -6 0 -1 1 0 -4
1532257835951904 -2 -4 -8 -2 0 -1 -1 0
1532257835974843 -3 4 19 -14 -4 -1 -1 -2
1532257836058619 2 -21 15 -3 0 0 1 1
1532257836072582 -4 -16 -15 -4 -1 -1 -1 0
1532257836095520 -1 5 10 -2 -1 -2 -3 0
1532257836157355 5 15 17 5 0 2 -2 2
1532257836162342 9 20 63 6 4 -2 -1 1
1532257836238138 7 -36 -37 4 8 6 4 -122
1532257836334880 5 15 11 10 4 8 2 16

1532257836410677 -8 14 58 21 6 -4 -1 -13
1532257836484480 7 -2 -9 -5 -3 -1 -5 5
1532257836523376 9 27 6 4 -2 -4 -1 -1
1532257836552298 -7 -10 -8 -2 -2 2 -1 12
1532257836575237 -5 -10 -34 -3 -4 -2 2 8
1532257836598176 7 -5 -7 0 1 0 0 1
1532257836621115 -1 -40 15 0 -1 -3 -4 -1
1532257836635077 -1 26 -1 5 1 1 -2 -7
1532257836643056 3 0 -23 1 -1 1 3 -2
1532257836660011 8 -1 4 1 1 -2 -6 -12
1532257836682949 -7 20 -9 3 -1 1 2 3
1532257836704890 -17 -38 10 1 -2 1 -1 -2
1532257836743787 -1 -1 0 0 1 0 0 0
1532257836748773 -21 -6 -2 -5 -2 -2 0 -4
1532257836769717 10 92 1 -1 -1 -6 -5 2
1532257836779691 14 2 -4 -3 -1 6 5 3
1532257836809611 -2 -25 -7 2 0 2 4 9
1532257836823574 -10 -9 8 -3 0 0 0 -8
1532257836860475 5 17 -4 1 -1 -2 -3 4
1532257836875435 -6 -1 11 5 3 0 -6 -7
1532257836921312 -1 3 -4 -1 -2 0 -2 4
1532257836935274 0 -8 -10 -4 -2 0 1 7
1532257836981152 -1 -3 -2 -1 0 1 1 -4
1532257837007082 -3 0 -3 -1 0 -3 -2 -5
1532257837018054 -2 -8 -3 -1 -1 1 -6 -12
1532257837033013 1 9 -1 0 -4 0 0 2
1532257837046976 0 1 -5 0 -2 2 -3 5
1532257837084874 -4 -2 -3 -2 -2 3 4 0
1532257837095845 -2 2 -11 0 0 0 -2 -5
1532257837129755 -2 13 -53 -3 0 -2 3 1
1532257837152693 3 16 114 7 4 1 0 0
1532257837166655 0 -3 -5 1 -1 -6 -2 -2
1532257837189595 2 -14 -13 -3 -1 -1 -4 4
1532257837212533 0 -10 -85 -3 -3 -1 2 -4
1532257837235479 -6 -3 30 1 -1 1 -3 -8
1532257837249435 1 -2 29 -2 -1 -1 -1 -4
1532257837272373 -1 -15 9 0 -1 2 1 8
1532257837309291 -3 7 -8 0 0 0 2 5
1532257837332213 1 1 -6 -1 -5 -4 -2 1
1532257837347173 -1 -2 -3 -1 1 1 -6 -8
1532257837385079 -6 2 -20 -2 -2 0 -1 -6
1532257837414992 -2 10 4 1 1 2 1 -10
1532257837451893 -3 1 -3 1 1 0 -1 -2
1532257837475829 -1 0 11 -2 -2 -1 0 -3
1532257837511733 -1 0 55 7 5 2 1 3
1532257837543654 -8 1 -5 1 4 3 1 -8
1532257837587536 -2 10 3 0 -4 -22 -5 -5
1532257837609478 8 35 10 5 6 5 5 22
1532257837618454 -25 35 -2 2 4 -31 1 -42
1532257837647377 -7 -11 -1 -1 1 2 0 -9
1532257837669318 -5 -34 32 -13 -5 12 0 12
1532257837701243 -2 15 127 -11 1 5 3 13
1532257837729158 -11 -15 -99 -9 -7 -7 -3 -9
1532257837761073 -8 5 -43 5 -3 6 2 -1
1532257837782016 1 36 93 20 11 2 1 2
1532257837820921 5 -12 -38 9 5 3 3 6
1532257837843851 3 -23 -77 -17 13 2 0 1
1532257837864795 -1 -7 19 -8 -27 -9 -2 -2
1532257837903691 0 -2 32 -14 -8 -2 -2 -4
1532257837916657 -4 14 36 6 -24 -12 -4 -3
1532257837963531 -7 -12 -11 -10 9 -3 1 -2
1532257837977507 2 -6 -3 -21 -78 -8 -1 0
1532257838046310 4 -17 25 -23 -21 -4 1 0
1532257838062267 1 3 -8 -34 4 -2 -2 -1
1532257838143051 0 8 25 24 1 1 0 1
1532257838203894 5 -9 41 8 -3 -3 -3 1
1532257838276701 10 -3 8 3 -10 -7 2 4
1532257838323568 -6 28 28 3 29 2 7 1
1532257838466187 -6 -6 6 -4 -3 -2 -2 -3
1532257838503088 -6 -25 -9 -11 -10 -17 -1 -1
1532257838539990 -3 -10 -13 -2 -9 -5 -2 -3
1532257838562928 -1 0 10 -5 -1 8 1 0
1532257838599830 -13 -23 -30 -15 -22 17 -1 -3
1532257838623766 -3 7 20 3 0 -23 -3 -3
1532257838668657 -1 -13 42 9 5 7 2 -1
1532257838697568 1 9 27 11 -3 -5 -3 -1
1532257838737462 3 11 0 13 13 -4 -1 1
1532257838759403 -2 -19 1 -6 -6 -7 1 -2
1532257838779350 1 16 -18 0 5 1 1 -1
1532257838810267 8 14 36 1 -4 -2 2 4
1532257838839190 4 -13 5 0 -6 -7 -1 2
1532257838886065 2 -48 6 9 19 -14 2 0
1532257838915984 -12 -14 -23 -6 -6 3 -5 -5
1532257838945904 12 48 49 17 12 -4 0 0
1532257838983803 5 -1 44 16 8 -7 -1 0
1532257839005745 1 18 19 3 -2 1 -2 -1
1532257839044640 -9 -20 -40 -9 -4 6 0 0
1532257839096502 -3 8 -6 13 7 2 2 -1
1532257839126422 -2 -18 -34 -7 -4 -2 0 -2
1532257839307936 -6 -19 -8 -7 -5 -3 0 -1
1532257839328889 -5 -36 4 -3 0 -1 -2 -2
1532257839373759 2 0 16 4 -2 -3 -2 1
1532257839425621 -3 7 4 2 1 0 0 -6
1532257839462522 0 -25 -11 -2 1 6 21 11
1532257839516379 -14 -11 -7 -4 -3 7 36 8
1532257839540314 16 32 29 7 4 0 11 3
1532257839613120 -7 -4 8 -2 5 3 -4 -6
1532257839651020 10 4 -3 3 -2 -1 -110 -14
1532257839747760 -29 -11 6 2 3 -12 64 -17
1532257839793638 13 24 24 2 -2 -12 11 4
1532257839913317 -1 -14 -13 3 3 -12 -40 -7
1532257840040976 -1 -6 2 16 14 36 -34 3
1532257840130736 7 8 -3 -3 5 18 2 -2
1532257840181600 10 -9 34 37 8 12 -41 -9
1532257840205536 -1 3 -19 -21 0 14 -11 1
1532257840258394 5 33 16 3 -1 1 41 9
1532257840302277 13 -13 7 7 8 41 -12 2
1532257840325216 -1 -19 6 6 9 10 19 3
1532257840395047 3 7 -5 -8 3 11 23 3
1532257840431930 0 20 -1 1 -2 3 -3 0
1532257840468831 4 29 -11 12 1 -5 -3 1
1532257840528671 10 -37 0 -2 -5 -9 -5 1
1532257840550613 -29 -7 -14 -1 3 7 4 -1
1532257840564576 51 46 4 -4 1 -13 -6 17
1532257840649349 6 -63 4 -2 -8 -14 -7 -5
1532257840694228 50 88 7 -4 -3 -11 -6 7
1532257840702207 -15 -53 -3 -6 3 6 -3 -9
1532257840754069 6 26 14 11 2 -3 8 3
1532257840790970 2 -9 -3 -2 1 -1 -3 -10
1532257840850810 25 -6 27 2 1 0 -20 -2
1532257840864773 -54 7 3 -4 -5 -2 -2 -3
1532257840895690 1 -21 -50 -3 0 0 0 -5
1532257840940570 20 3 17 0 3 3 0 8
1532257840978468 -6 -27 7 0 0 -5 -6 -3
1532257840992432 25 -15 -16 -6 -7 2 -22 0
1532257841007392 21 12 -24 -1 -3 1 16 12
1532257841030330 -1 3 17 -1 0 5 4 8
1532257841052272 -22 -16 -6 -1 0 -14 -5 0
1532257841075210 36 5 10 1 1 8 -12 -3
1532257841113108 26 6 -5 0 1 0 9 9
1532257841127071 -14 5 6 1 2 -14 -7 0
1532257841172949 -28 -15 -3 -9 -8 2 60 -16
1532257841186917 8 -2 4 -8 -2 -4 -20 -5
1532257841209874 10 -21 -19 -6 3 2 -6 -7
1532257841232789 17 23 24 -30 -11 -6 1 -2
1532257841255732 -32 22 88 -11 -4 -6 -10 -12
1532257841277669 5 11 -3 -1 -2 -2 16 2
1532257841306591 -17 0 15 6 -2 -2 4 -1
1532257841330528 5 -11 -49 6 -1 10 8 -14
1532257841352469 -1 5 -76 -1 0 -6 -5 -1
1532257841367429 5 -7 10 3 3 0 -4 -3
1532257841390369 -10 3 15 0 1 6 -21 -7
1532257841412309 17 -11 8 2 2 -11 33 32
1532257841427280 -8 -35 5 3 5 4 8 -34
1532257841481125 -21 6 5 1 2 27 -4 -62
1532257841510048 -23 -4 0 5 -1 6 18 22
1532257841532985 -20 -12 4 41 2 8 24 17
1532257841548944 -6 28 -21 2 8 4 -36 10
1532257841569887 12 -5 -16 4 5 -4 13 3
1532257841607786 17 4 47 -34 -8 2 23 13
1532257841629728 -10 9 38 8 2 4 8 3
1532257841667625 -26 27 68 -11 -1 1 -7 5
1532257841690564 31 -23 29 -11 -5 -1 12 5
1532257841712506 47 -22 -27 -6 -2 0 54 22
1532257841758384 8 -3 -24 -5 -2 -2 -5 -4
1532257841772345 25 -28 10 -4 -1 -1 -27 -6
1532257841796282 -4 -2 9 0 2 -2 -25 -6
1532257841818236 -7 -13 -18 -1 0 3 29 -13
1532257841870085 -14 -30 -5 -8 -12 0 127 45
1532257841937903 -11 -29 4 1 5 -4 -29 5
1532257841952863 5 -44 20 8 -2 -7 -128 -18
1532257841974805 -2 -2 6 5 -2 -6 -29 9
1532257841997743 9 79 2 -2 -4 -3 -15 -27
1532257842026666 0 -1 -37 3 6 5 64 16
1532257842113433 -7 -8 -2 -11 -3 -1 22 3
1532257842118421 6 43 9 -10 0 -2 -28 -1
1532257842156383 -7 -5 5 6 2 3 -7 1
1532257842170346 -2 2 10 5 0 -2 -3 0
1532257842192288 4 -13 -4 0 2 2 -1 5
1532257842216224 1 -10 3 -6 -3 0 -1 -1
1532257842231184 -1 4 -4 -2 -2 -2 -3 0
1532257842306996 6 17 4 2 3 0 -1 1
1532257842342885 0 15 -1 8 4 0 -1 2
1532257842352859 1 -7 11 -4 -1 1 1 0
1532257842372805 2 -1 -4 -5 1 1 2 3
1532257842395744 -1 -20 -15 4 -2 0 2 0
1532257842455584 43 31 19 -8 -4 -6 -6 2
1532257842469546 11 -8 -3 6 1 1 0 -1
1532257842516421 -12 33 14 -2 -1 1 0 -4
1532257842570291 -5 -9 -16 -4 -4 -1 -3 -2
1532257842575263 -17 2 -7 0 -1 -2 -3 2
1532257842651075 0 -60 -26 -11 -1 -1 2 -3
1532257842695955 -21 -15 4 0 -4 -2 -4 -3
1532257842740835 -8 21 20 3 1 0 2 -1
1532257842800675 14 -19 9 -4 -1 1 -4 -13
1532257842847548 -1 -6 0 -4 -19 -33 14 57
1532257842914370 -47 -28 24 -11 -2 17 5 5
1532257842936312 5 17 39 -58 -23 -18 -13 -15
1532257842949277 -2 -59 25 -6 -3 2 3 7

1532257842996152 11 -26 -25 -7 -3 -2 1 5
1532257843009118 -1 8 80 8 5 0 -1 -2
1532257843092906 -3 0 5 -2 -2 -2 -2 -4
1532257843108865 -6 0 16 2 1 3 -1 -5
1532257843151751 -9 12 2 4 0 -2 0 -9
1532257843213216 -1 -9 -16 0 2 2 -2 -4
1532257843236163 4 -6 -6 0 -1 12 2 0
1532257843273055 -3 10 -1 1 -2 -1 1 4
1532257843296026 4 -7 -2 -4 -2 -10 -2 2
1532257843332928 -5 -11 -5 0 4 -1 1 0
1532257843355867 0 8 4 -2 -2 2 1 6
1532257843392767 1 -1 -2 -2 -1 0 0 0
1532257843415706 5 5 6 -1 0 4 0 1
1532257843498515 -1 -1 -3 -2 -2 -3 0 0
1532257843572317 0 1 0 0 0 12 3 -1
1532257843599246 -2 -2 -1 -1 -1 -5 -2 -1
1532257843624179 3 -2 -2 -1 -1 -1 -1 0
1532257843647118 1 -2 -4 0 -1 -3 -3 -5
1532257843686014 -2 -2 -1 0 -1 2 1 -1
1532257843745854 -4 -3 -2 0 -2 0 -5 -6
1532257843762808 -1 1 0 -1 -1 0 1 2
1532257843812676 -8 8 2 1 -1 1 1 -4
1532257843872520 -3 0 0 1 1 -3 -1 -2
1532257843887476 2 5 0 -1 -2 -2 0 0
1532257843910414 -5 2 -2 -2 0 -2 0 -3
1532257843924377 1 -6 -2 0 -1 2 1 1
1532257843955294 4 2 -1 0 0 -1 3 10
1532257843986221 1 -1 -2 -2 -2 -4 -2 1
1532257844007155 0 -1 -2 -1 -2 0 -3 -1
1532257844030094 0 1 1 0 0 4 3 5
1532257844045054 0 -2 -1 -1 -2 -3 0 -1
1532257844066995 -3 0 1 1 -1 3 -1 -4
1532257844089934 -3 2 -1 -2 1 1 -2 -1
1532257844104894 -4 6 2 0 -2 -7 -2 -1
1532257844126835 2 -7 -2 -2 1 -3 4 5
1532257844164734 0 -2 -2 -2 -4 -4 -1 -3
1532257844186676 6 -3 0 -1 -3 -3 0 0
1532257844209614 2 0 -1 -1 1 3 0 5
1532257844224573 -1 0 -2 -1 0 2 0 2
1532257844263471 2 -2 -1 -1 2 2 -1 -2
1532257844284414 -4 -1 -2 -1 -1 0 -1 -2
1532257844307353 0 -6 -1 0 -2 2 -1 -2
1532257844338538 1 -6 -1 -2 0 0 -3 -1
1532257844344510 3 -2 -1 -1 -1 -5 -1 1
1532257844367448 -2 3 0 -3 -2 2 -2 -7
1532257844413326 1 -1 3 -1 1 2 0 -2
1532257844427289 0 3 1 -1 1 1 2 2
1532257844458206 0 -3 -2 1 -1 2 0 -2
1532257844473166 7 -6 -1 3 2 2 -4 -2
1532257844495108 1 -1 3 0 -2 1 7 5
1532257844540984 -2 4 21 0 -2 -2 -4 -1
1532257844554948 1 -3 1 -2 -2 -4 -3 -3
1532257844600825 -12 4 32 -1 -4 -11 -3 -10
1532257844614788 12 -3 -9 -3 -1 1 3 13
1532257844621769 1 15 1 -2 -1 16 -1 -1
1532257844639721 4 -9 -7 -1 -1 -1 -1 -2
1532257844662660 -5 0 -7 -2 -1 -5 -2 -5
1532257844698563 4 4 -92 -2 -3 -1 1 3
1532257844720615 -3 1 67 4 1 4 0 -2
1532257844743554 2 -7 58 4 0 1 0 -2
1532257844758514 2 -12 1 -2 -3 0 -2 -36
1532257844780455 4 -2 -15 -2 -1 3 1 11
1532257844794418 -1 -8 -5 0 1 0 2 11
1532257844803393 0 -2 3 -2 -2 6 -1 11
1532257844841293 -1 -1 -4 -3 0 8 1 3
1532257844863233 -6 32 6 1 4 -17 2 10
1532257844878194 -11 13 -6 -6 -12 9 0 66
1532257844914098 -7 22 -1 4 7 -31 -5 -5
1532257844938034 -3 -14 9 -1 0 18 -7 -24
1532257844960973 2 -5 -57 -3 -3 -5 -2 -13
1532257844983911 -1 16 -22 -21 -9 17 -4 -2
1532257845004855 -6 -3 1 -6 -3 1 0 -4
1532257845022807 0 13 19 16 4 3 3 4
1532257845043751 0 4 -13 3 -2 0 -4 1
1532257845064695 -1 -4 -16 -3 -5 8 -3 1
1532257845089628 0 9 -8 0 -2 -1 1 7
1532257845103592 -3 -41 -40 -7 -9 -6 -2 -4
1532257845124535 3 -13 -45 4 10 5 0 0
1532257845142510 1 42 18 -8 -11 -7 -5 -1
1532257845165425 -3 -20 -14 11 6 -3 1 -2
1532257845184375 1 17 -10 24 2 -1 -1 -1
1532257845202328 0 12 -45 -7 9 0 -3 -4
1532257845225269 5 18 67 15 26 6 2 3
1532257845261170 -2 -7 -3 -4 -12 1 0 -2
1532257845299069 -3 -26 4 -19 11 6 1 -1
1532257845342951 2 -18 -47 4 -18 -5 -2 -1
1532257845403788 8 16 68 41 68 24 7 5
1532257845416754 -11 -22 -50 -54 -6 -4 -3 -4
1532257845425729 6 -2 18 10 17 3 1 3
1532257845442684 -7 8 -27 -27 16 0 -1 -3
1532257845476593 -2 -34 -75 10 -16 -5 1 -1
1532257845537431 6 4 -38 6 12 5 2 -1
1532257845606247 8 7 5 17 7 3 -1 2
1532257845740886 4 -4 -20 27 -2 1 0 -4
1532257845808717 4 -12 1 -8 1 11 4 19
1532257845897467 7 16 -4 -2 -4 -6 0 7
1532257845920407 2 -3 -11 -2 5 5 2 0
1532257845957308 -4 7 24 -3 7 13 1 -6
1532257846003185 -9 -65 -23 -8 -4 -7 -2 -18
1532257846017148 7 -18 -26 -3 2 8 4 11
1532257846047069 -18 5 20 0 1 3 -2 -2
1532257846085964 4 66 32 16 0 -12 3 2
1532257846099927 0 33 -54 -11 -9 1 -3 2
1532257846123863 -6 -46 1 -1 -1 -2 -3 -3
1532257846153783 2 3 64 1 -1 24 -4 -1
1532257846166748 -5 0 25 6 -6 2 0 0
1532257846198669 1 -25 1 -3 2 -1 0 -3
1532257846223602 -16 -13 14 -5 -8 -10 -5 -7
1532257846258509 -15 11 65 7 1 -3 3 -4
1532257846265490 5 33 -12 -9 -4 -3 1 -1
1532257846296407 1 -22 -64 -13 -6 2 3 7
1532257846303389 7 -27 -81 -6 -2 -12 2 8
1532257846326328 -3 -23 -21 2 -20 -23 2 16
1532257846339293 4 18 58 5 -18 -7 -2 26
1532257846348269 -11 9 -10 11 11 -2 3 -2
1532257846386168 9 40 33 0 -1 1 -4 -9
1532257846400130 0 -19 -28 -19 -5 -4 0 0
1532257846447004 2 2 8 0 5 3 -3 -9
1532257846489890 7 32 20 -6 1 1 0 -1
1532257846512829 -8 -9 -20 -4 -4 -1 -1 -3
1532257846528785 -2 35 35 8 0 -2 1 -2
1532257846579650 7 36 13 -4 -3 -5 -3 -5
1532257846639490 -4 4 3 -1 0 0 0 -1
1532257846656445 1 -20 -3 -2 -2 3 -2 -3
1532257846731244 1 1 -7 -3 -1 1 -1 25
1532257846776125 0 -13 2 2 3 3 -60 6
1532257846837960 0 -7 -15 -3 0 10 22 6
1532257846865884 0 -14 -11 -1 -2 5 0 -2
1532257846964621 -7 0 -64 -6 -5 3 59 -15
1532257847017479 -7 13 22 5 4 13 19 3
1532257847039421 -2 -6 -25 -3 0 9 53 3
1532257847075325 -14 -37 -20 -22 -6 -11 67 -11
1532257847092279 1 -4 -13 -7 -1 14 124 2
1532257847128183 1 25 -1 7 7 11 -31 -4
1532257847143143 -4 10 -3 -8 -12 -2 -43 -3
1532257847166082 14 -14 0 0 7 20 19 5
1532257847233905 -8 12 47 -7 -2 0 -30 0
1532257847270802 -11 -10 7 -11 -4 -12 49 16
1532257847317679 -6 -37 28 8 8 -8 42 6
1532257847330642 3 21 -9 3 4 -9 60 5
1532257847353581 -8 -26 -55 4 4 -6 -50 -16
1532257847370535 9 -3 1 5 4 31 18 20
1532257847391479 -12 -6 -24 -3 0 -10 -19 3
1532257847451319 -3 -21 -41 19 5 8 33 4
1532257847488220 1 43 9 1 8 61 30 9
1532257847570999 5 9 22 9 5 -54 19 10
1532257847607900 0 -13 0 6 -9 -3 -33 -6
1532257847644802 12 10 0 6 -1 9 11 6
1532257847690679 -2 1 -12 -6 -3 2 -1 -2
1532257847727580 1 -34 -2 -3 0 22 13 2
1532257847810359 -9 -75 -7 -9 -2 10 3 1
1532257847832300 0 7 0 1 0 7 2 1
1532257847850252 -1 -24 7 -9 -3 -4 -2 -1
1532257847908098 16 -65 -41 2 10 30 4 19
1532257847930039 14 -1 -9 2 2 -25 6 10
1532257847945000 -20 29 22 2 8 -36 -7 -9
1532257847967937 -52 -58 -1 -6 -11 0 -9 -16
1532257847989879 40 -9 -40 11 0 6 -1 1
1532257848004839 11 15 27 -1 1 13 15 33
1532257848050716 -25 13 9 2 2 -2 4 -2
1532257848065676 41 2 -10 15 9 8 -3 1
1532257848097591 -32 -14 4 -6 -2 5 -1 8
1532257848125516 35 16 16 0 -2 5 11 7
1532257848170396 -26 18 28 -27 -5 3 -14 -20
1532257848207298 -14 -5 -42 12 -2 -1 -15 -10
1532257848230236 -7 -6 23 -6 -3 -5 -17 -7
1532257848245197 -52 4 -11 2 -3 -3 21 -9
1532257848268135 32 0 -2 -7 -2 -5 -11 4
1532257848290076 -23 -1 -26 -5 -2 -5 8 12
1532257848305036 24 -8 1 -4 -3 4 -3 -2
1532257848336951 42 -25 27 2 2 -1 4 8
1532257848359898 9 23 2 -2 -2 -2 2 27
1532257848379836 13 13 10 -4 -2 5 12 -10
1532257848403772 -40 -4 22 3 -1 -5 -1 -30
1532257848449650 12 -1 -5 1 0 8 5 9
1532257848455633 -1 -7 -2 -3 -3 -8 13 -12
1532257848478572 12 -43 -4 3 -1 12 12 -71
1532257848530434 -16 28 -11 10 5 -3 -41 -8
1532257848567335 -37 -1 3 35 13 0 25 21
1532257848598252 16 -30 -10 -16 -8 -7 -33 2
1532257848613212 -6 0 -6 59 11 -2 -15 5
1532257848650113 15 45 45 -14 -2 -3 0 12
1532257848665077 -34 10 -21 -4 -3 -3 -7 -6
1532257848688012 27 -13 -1 0 -2 -1 9 2
1532257848711948 17 -8 29 11 1 -2 5 -2
1532257848724913 0 14 -6 -7 -2 0 -6 -2
1532257848755831 -22 6 -45 -5 -2 0 2 6
1532257848792732 -36 27 26 0 4 -2 0 0
1532257848830631 -28 17 1 3 4 3 -33 -28
1532257848844593 20 33 7 -5 -1 -3 -4 -28
1532257848867532 -49 -52 -5 -6 -8 -9 43 -76
1532257848913409 44 5 -3 0 -1 -2 11 12
1532257848927372 -26 -9 -1 2 3 2 6 -16
1532257848950311 17 -33 0 -2 -2 2 -17 10
1532257848973249 7 -20 0 20 19 9 5 10
1532257849010151 0 24 17 54 12 4 78 23
1532257849033095 16 -39 -4 -8 -3 -2 15 3
1532257849069997 2 14 22 -8 -3 0 15 9
1532257849107896 12 -8 96 12 4 1 10 9
1532257849129837 9 -11 -4 -5 -2 -4 -2 3
1532257849153773 -7 26 12 2 0 -1 -3 0
1532257849167735 1 15 -13 -6 -3 -1 4 17
1532257849190674 3 -4 -19 -9 -1 -5 1 0
1532257849250514 19 23 -5 -2 -1 7 35 -36
1532257849280438 57 -18 -2 -1 1 2 19 12
1532257849310354 -24 -16 -13 -5 -8 -25 -16 27
1532257849333293 -20 15 -4 -3 -1 -6 4 -38
1532257849347255 -46 39 3 4 7 -1 -28 36
1532257849370194 41 49 6 4 6 1 11 26
1532257849393133 12 -44 0 0 -1 -4 -30 6
1532257849430034 -9 -9 4 -5 -1 -2 -36 5
1532257849452973 24 -3 6 -2 -1 -2 33 27
1532257849467948 -10 5 2 0 1 1 23 4
1532257849512813 -4 -15 0 0 -6 -1 3 -7
1532257849535753 -8 -13 -1 -14 -1 -1 -5 -4
1532257849549713 1 17 2 -7 -4 -2 16 0
1532257849573651 6 12 10 2 -3 0 8 3
1532257849609553 1 7 -4 11 4 1 1 0
1532257849618530 -4 -13 -6 -4 -3 -2 -3 -1
1532257849655432 -3 -12 0 -9 -1 -2 0 -1
1532257849671389 -2 -5 10 -3 0 0 0 1
1532257849707297 -1 6 -3 -2 -3 -1 -1 -3
1532257849730231 3 -10 -18 3 0 -2 1 1
1532257849753170 0 -6 -16 0 2 0 1 -2
1532257849813010 -1 2 -5 -4 -3 -1 1 -1
1532257849835948 0 3 9 4 -1 0 -11 -6
1532257849880828 -3 7 -8 13 -2 0 -5 -1
1532257849901785 11 -55 3 1 -3 -1 -10 -1
1532257849925709 6 14 -16 3 1 2 39 4
1532257849934685 -5 20 -2 2 -1 0 0 2
1532257849957624 -4 5 -1 5 3 2 9 1
1532257850016465 -1 17 1 -5 -1 1 12 1
1532257850029431 1 -4 4 1 -2 0 3 -2
1532257850105229 -1 6 6 5 2 -1 0 0
1532257850153112 0 3 13 0 2 1 -4 -2
1532257850195986 4 0 -6 0 3 1 1 0
1532257850255825 -29 3 10 -3 0 2 -1 -27
1532257850269795 -40 -15 3 0 -1 0 2 -3
1532257850285746 -37 -6 -10 4 -6 67 27 -98
1532257850332621 11 -13 6 0 4 -20 -46 -27
1532257850398444 6 18 -4 -10 1 14 5 -14

1532257850449308 -2 3 -12 9 9 9 14 3
1532257850473245 -8 -3 -34 1 -2 5 1 -7
1532257850533085 11 -15 34 1 3 4 2 -23
1532257850556023 6 -8 21 -1 0 -1 4 17
1532257850622844 -11 8 22 6 0 0 -4 -12
1532257850629826 0 7 10 2 -1 -1 -2 2
1532257850652765 0 -6 1 -2 -2 -2 -2 -2
1532257850681687 -3 2 -3 0 0 0 0 1
1532257850712605 -2 -3 2 -2 1 0 -3 -4
1532257850749506 1 0 -2 -2 -1 -1 1 2
1532257850833282 0 5 0 -2 -1 -5 1 0
1532257850855223 -3 5 0 -2 0 2 1 0
1532257850946433 0 3 0 -2 -1 -2 -1 0
1532257850998282 9 -1 -1 -3 -4 -2 -1 -3
1532257851029220 3 -4 -3 -1 -1 -1 1 2
1532257851074115 6 -4 -2 -5 -2 -2 -1 8
1532257851147902 -5 -3 -1 -1 1 5 0 -4
1532257851170841 -6 -2 -10 -1 -2 2 0 -7
1532257851184804 -2 0 -4 0 -1 0 1 -2
1532257851216718 -3 -4 -12 0 0 5 -1 -5
1532257851238675 -6 4 27 6 3 3 4 4
1532257851244644 7 -6 -42 -1 -1 -1 1 13
1532257851304484 3 -3 -14 0 -4 -1 -3 -5
1532257851327422 -2 0 -18 -2 -1 -3 -1 -1
1532257851350568 5 -2 24 -2 -2 0 6 10
1532257851364530 -1 -1 -28 -2 0 0 -3 -10
1532257851387469 2 -3 -24 -4 -1 9 1 -3
1532257851419384 -3 -1 12 0 3 10 5 -4
1532257851447309 2 28 -9 0 0 -13 -6 -14
1532257851501176 7 -34 6 0 -4 -46 9 53
1532257851529090 5 2 24 1 -3 -8 -3 1
1532257851566989 -12 -16 127 -3 -3 -9 -4 -6
1532257851589927 -2 5 67 -4 -3 0 -3 0
1532257851613864 1 2 -12 3 0 1 -1 -1
1532257851635804 2 -2 -55 0 -1 3 -2 -2
1532257851658744 1 8 14 1 3 5 2 0
1532257851674700 -3 -26 -49 -6 -3 -1 2 -3
1532257851704621 1 9 -1 3 1 -1 -5 -5
1532257851719600 3 14 5 1 -5 0 0 3
1532257851742529 -1 40 10 2 -1 0 0 0
1532257851769448 6 12 12 46 28 12 4 4
1532257851801362 2 -21 8 -7 -2 -8 -4 -2
1532257851816321 -2 -3 -29 -11 -14 -2 -2 -2
1532257851838263 8 13 39 35 29 5 1 3
1532257851867186 1 9 17 21 -4 -2 -1 -2
1532257851897106 -6 57 -23 -7 21 3 -2 -3
1532257851923037 6 27 80 -2 -34 -8 -1 1
1532257851957943 -3 35 8 5 -15 6 2 -3
1532257852040725 -2 61 74 -14 22 -1 0 0
1532257852161399 6 23 30 -14 -60 -11 -2 1
1532257852183342 4 10 55 -2 -29 -13 -4 -2
1532257852304018 1 -12 2 1 -11 -3 0 2
1532257852354882 3 23 30 -1 7 3 2 1
1532257852400758 -19 -36 -26 -4 -4 -2 -3 -3
1532257852414722 3 34 13 0 1 -15 -1 -2
1532257852460599 5 30 7 1 -5 12 -4 0
1532257852474562 -4 -13 7 3 2 20 1 2
1532257852534411 8 33 -13 1 11 33 6 1
1532257852557350 3 -17 -46 -5 6 10 1 4
1532257852588267 -2 -20 5 -5 -3 -10 -2 -1
1532257852617190 6 6 -4 12 3 -21 -2 -2
1532257852632149 0 -24 -2 0 3 7 1 0
1532257852642123 0 49 3 3 -2 16 2 -2
1532257852671051 6 2 6 7 4 5 1 3
1532257852723917 -2 -15 33 -3 2 6 0 -1
1532257852768784 8 29 34 13 -2 -14 2 4
1532257852799702 2 32 2 6 4 6 0 4
1532257852834608 8 9 41 0 -3 -8 -4 0
1532257852857547 -5 -4 23 -5 -9 -18 -5 -3
1532257852917387 20 45 65 93 24 8 4 5
1532257852963264 -2 0 -36 -7 -4 -2 2 1
1532257852993184 4 -20 -15 6 1 0 0 1
1532257853023104 0 -11 -91 -21 -6 -1 -1 -1
1532257853075963 3 4 16 -3 -3 -4 -1 -2
1532257853113861 -7 -8 8 0 -1 3 0 -2
1532257853119845 -5 -29 1 -9 -1 -6 -2 -6
1532257853188662 -4 16 4 0 -5 -42 -21 -12
1532257853226560 3 0 -4 -1 -1 -9 -43 19
1532257853286408 -20 -36 -36 -13 2 -22 73 -9
1532257853337264 -3 -5 -10 1 -7 -13 -2 -3
1532257853406080 -10 -6 -31 18 -7 -36 -120 -44
1532257853525763 -10 -47 4 -11 1 13 108 9
1532257853563659 -17 46 12 6 2 -66 67 9
1532257853614523 -10 -25 6 -23 -11 -19 0 -16
1532257853645440 6 13 -8 0 2 -18 -73 -10
1532257853691317 -10 -22 7 16 8 -24 -43 -10
1532257853722235 0 27 45 -4 -8 36 -24 0
1532257853779083 -3 7 -10 16 -7 -3 -81 -10
1532257853803019 -4 -9 -10 -8 -1 1 21 1
1532257853839920 2 8 -10 9 6 -16 -14 2
1532257853848896 5 -12 26 -6 -11 19 2 7
1532257853864853 -7 19 2 -2 8 -24 2 16
1532257853899760 2 -25 -66 -6 11 10 -3 1
1532257853923696 3 3 10 1 -2 2 30 -4
1532257853976560 -11 -25 4 -5 -11 -16 -10 -7
1532257854019440 -5 21 -2 -10 -2 -14 5 -4
1532257854066315 -3 36 -4 0 -4 9 3 -7
1532257854103216 0 10 3 2 -2 -3 1 0
1532257854141114 -3 7 -3 -7 -3 -4 -1 -4
1532257854184997 9 52 -6 9 4 4 -1 1
1532257854215915 1 -27 -4 8 0 -1 1 1
1532257854284730 -17 -44 43 5 1 3 6 10
1532257854313653 20 -58 -5 -4 -2 -7 6 9
1532257854343573 -15 0 -45 4 1 9 13 14
1532257854425355 -42 16 28 -4 2 14 6 28
1532257854478213 -50 -30 5 0 -3 -8 -14 -23
1532257854510128 7 5 47 4 0 0 -12 2
1532257854515114 10 10 -55 1 -3 -2 -11 -2
1532257854532069 -19 -23 100 11 0 3 1 -18
1532257854545035 -1 16 -55 -8 -6 0 -5 -8
1532257854567973 6 6 -112 -4 0 -1 -9 3
1532257854590912 8 12 -122 -6 -1 -1 1 6
1532257854604875 43 6 39 0 -3 -2 1 12
1532257854642773 1 3 71 2 3 2 0 3
1532257854665712 -35 -23 13 -2 -5 -2 -1 -11
1532257854687653 9 -5 -40 -9 -2 8 1 7
1532257854702624 -32 -9 -8 8 5 -9 -4 -13
1532257854740512 5 -2 4 4 -1 -8 -7 5
1532257854747494 10 7 -18 -2 0 14 15 16
1532257854795365 -37 1 22 -3 -1 22 50 6
1532257854807332 23 47 -7 2 1 -12 15 -1
1532257854845231 -11 7 -6 -9 -4 5 21 6
1532257854868171 63 12 32 -14 -2 -6 42 12
1532257854883130 -21 15 -16 -8 4 1 -15 -15
1532257854905072 -57 -2 -14 -17 -8 -7 -51 -13
1532257854928010 44 -18 7 3 -5 -5 -30 3
1532257854942970 28 0 40 10 5 2 3 3
1532257854964912 6 -20 -10 8 2 -3 -8 -4
1532257854987850 14 7 -4 13 4 2 -4 5
1532257855002810 21 -23 -66 -19 -6 -2 -3 -4
1532257855024752 -14 21 74 11 5 1 -17 -25
1532257855047698 -26 -22 -50 6 0 -2 0 -8
1532257855061654 -8 15 -94 -2 -1 -2 -10 -12
1532257855093580 19 20 15 2 2 2 26 26
1532257855107542 19 -13 10 -1 -1 2 2 15
1532257855132481 -17 -35 29 -6 -5 -3 15 20
1532257855153420 24 -26 -1 4 1 11 -20 -17
1532257855182342 23 -6 10 1 2 2 96 -25
1532257855205281 16 13 10 -1 -3 -11 -19 -12
1532257855228220 -20 0 7 5 3 9 5 -10
1532257855265121 27 -17 8 4 3 1 13 -17
1532257855288060 -20 -11 -11 -7 -2 -4 -13 10
1532257855310000 20 24 5 -9 -2 3 12 16
1532257855363858 4 11 -45 20 7 2 5 7
1532257855377820 7 -7 -62 14 1 2 4 -3
1532257855407740 38 -15 -16 7 3 -2 10 4
1532257855421702 -17 37 50 16 7 4 -1 -2
1532257855445638 -1 1 -77 -19 -5 0 -2 -8
1532257855467580 -22 3 33 6 5 15 6 -2
1532257855482549 6 -5 52 3 0 2 1 2
1532257855505478 29 -29 -3 -8 -7 -7 -1 -14
1532257855527420 -67 16 22 -3 -2 -4 1 -5
1532257855550358 -9 24 0 -2 1 4 -12 -15
1532257855565318 23 -6 -10 -2 -2 -6 7 5
1532257855587260 16 -2 13 0 1 -1 1 4
1532257855618177 -35 27 -14 -2 1 -1 -16 -41
1532257855648096 -9 -66 -11 -3 -3 6 -45 -25
1532257855671035 29 8 -10 -5 -1 8 -9 0
1532257855694972 20 42 7 5 6 -2 20 -2
1532257855730876 20 4 20 0 1 1 15 -5
1532257855744838 -51 -48 -21 -3 -2 -4 31 -10
1532257855790715 6 44 -9 -7 1 1 -13 -7
1532257855805676 -5 -29 -9 -6 -2 4 -5 4
1532257855850555 -5 -42 -35 -18 -5 -3 -4 -3
1532257855872496 2 4 34 -13 -4 -3 -7 0
1532257855926353 11 22 8 2 -4 -1 0 4
1532257855947296 -2 17 -6 -10 0 0 -4 -5
1532257855978214 -5 -13 34 6 -1 -1 -1 -1
1532257855985195 -6 -13 14 2 0 -2 -4 -6
1532257856031073 1 -4 -6 1 1 -1 0 0
1532257856067974 -1 4 -34 4 1 0 0 0
1532257856127829 -3 4 15 0 -1 -1 -1 -2
1532257856173691 8 10 20 4 0 -3 -37 -2
1532257856219570 12 14 19 0 1 1 8 5
1532257856226551 -19 5 4 11 -3 -2 0 5
1532257856278411 3 -30 17 -9 1 1 3 -6
1532257856284396 -11 -9 -44 -1 -3 0 3 -1
1532257856344235 1 1 21 13 3 1 0 2
1532257856368171 -4 -4 -4 -5 1 0 0 -5
1532257856511787 -3 -4 12 6 2 -3 1 -11
1532257856569633 4 -5 -3 -36 -4 15 7 -3

1532257856630470 -5 -55 -102 9 6 3 8 7
1532257856728442 7 12 8 4 2 5 2 7
1532257856781301 6 -4 6 1 1 12 1 6
1532257856796260 -2 7 -25 3 -2 -1 -2 0
1532257856841140 -7 -19 18 4 -1 1 -1 -3
1532257856856240 -1 -15 0 -4 -1 2 0 3
1532257856907093 -2 1 -2 -4 -1 1 -1 0
1532257856951973 2 11 17 -3 -5 -2 1 1
1532257857013807 2 7 -8 0 -1 5 0 1
1532257857058687 1 -2 -2 -2 -2 -5 0 0
1532257857080628 -1 13 10 0 -1 0 -2 -1
1532257857133487 3 -6 8 2 0 5 -1 1
1532257857171385 2 -6 -12 -1 -3 -5 -3 -4
1532257857200582 3 8 1 0 0 -1 -3 -3
1532257857256433 1 -8 -4 0 1 1 -3 -6
1532257857290342 -3 9 -7 -1 -3 -1 -1 -3
1532257857329238 1 3 -8 -3 -1 3 3 0
1532257857350182 -3 -3 17 3 -1 -5 -2 -5
1532257857379105 -1 -4 -7 -1 0 5 -2 1
1532257857439942 -1 2 -3 -1 0 1 2 0
1532257857492801 -1 -4 -3 -1 -1 0 -1 2
1532257857521733 -6 4 2 -1 -3 0 -1 1
1532257857553637 5 -8 0 2 -2 4 0 -2
1532257857590539 2 -9 -37 -3 -1 -2 1 -2
1532257857612481 2 2 -5 -2 1 19 1 2
1532257857650379 -5 -3 -16 -2 -1 5 0 -1
1532257857672333 -5 -7 -98 -2 0 -3 1 -1
1532257857724182 1 0 -2 1 -2 -18 -6 -3
1532257857779035 5 1 22 1 1 0 1 2
1532257857800976 -1 1 7 -1 0 -3 2 3
1532257857868795 0 18 -5 1 -23 -27 -11 11
1532257857926640 7 -40 6 1 3 4 4 14
1532257857964539 -6 -16 36 -8 5 7 1 -9
1532257858024379 0 6 -32 8 5 4 0 -3
1532257858093195 -4 -40 -25 2 -9 1 -2 0
1532257858122118 0 -11 -50 4 2 -2 1 -1
1532257858167995 3 14 -46 -17 -7 5 1 0
1532257858219857 -3 -11 -56 4 5 3 1 0
1532257858272715 0 3 -9 9 -10 -11 -2 -1
1532257858332555 0 -4 -22 18 -22 -6 0 0
1532257858355494 0 -8 23 31 26 13 3 1
1532257858498112 5 -66 16 10 31 6 2 1
1532257858536012 -8 -10 -105 -17 -5 -2 0 -2
1532257858558963 -8 -23 58 0 17 2 -2 -3
1532257858596848 -3 -18 -40 3 -5 -3 -3 -3
1532257858617792 3 24 26 -12 3 17 2 -1
1532257858634760 -4 -31 -26 -13 -14 -6 -4 -3
1532257858691595 -5 -15 -5 2 18 7 2 1
1532257858715546 4 5 -59 1 3 -1 0 -1
1532257858739467 4 6 21 -2 21 5 4 7
1532257858776368 2 1 10 3 1 0 0 -1
1532257858798310 3 19 6 2 0 2 -1 -1
1532257858812272 -4 33 24 -2 0 0 0 -1
1532257858866128 -1 -10 -47 8 5 1 1 1
1532257858889076 -4 -42 -14 -1 -4 0 0 -1
1532257858925968 1 -16 14 -1 -6 -1 2 3
1532257858948910 -11 14 8 -4 2 9 1 -2
1532257858999771 2 0 -22 -3 -9 10 1 -2
1532257859031686 2 0 6 2 3 16 3 2
1532257859075568 -3 -18 3 -4 1 2 -2 -5
1532257859098507 9 4 18 11 2 10 0 3
1532257859144384 7 -5 -13 9 8 -6 2 3
1532257859172309 -4 -22 -30 -10 -3 2 -3 -5
1532257859188267 -4 -12 -43 -8 -4 4 -1 -1
1532257859219188 3 8 17 3 4 3 2 1
1532257859256085 -9 -11 75 0 1 15 -3 -5
1532257859286006 8 25 30 4 2 -4 0 3
1532257859300965 4 -15 -3 -8 -5 -22 -1 4
1532257859338864 -1 4 4 -1 3 4 1 3
1532257859360805 -2 -4 22 -5 -5 15 -1 -4
1532257859420645 -3 -16 -14 -17 -6 -1 -3 1
1532257859449568 13 41 12 6 4 0 1 1
1532257859488464 2 -5 -6 -8 -7 -1 0 0
1532257859504421 4 -12 -5 -3 0 1 0 3
1532257859541323 4 12 9 6 4 8 3 2
1532257859563263 -12 -32 22 0 -5 -1 -2 -2
1532257859638064 -3 -4 7 -5 -6 -4 -3 0
1532257859674965 -1 0 -12 -4 -3 -1 -3 -4
1532257859698906 -1 -1 11 -2 1 -2 1 1
1532257859720842 -3 17 -12 -1 0 -2 0 -4
1532257859773702 -2 -55 -9 -3 -6 -9 -35 44
1532257859817584 11 29 4 3 -6 29 -59 14
1532257859840522 -28 -48 -9 -11 -10 48 18 -13
1532257859886400 -1 -15 -40 2 5 -10 45 25
1532257859938261 3 27 -7 1 16 25 127 44
1532257859985136 7 21 29 7 1 -27 70 3
1532257860037010 -19 -24 -2 -19 -19 -13 40 -37
1532257860080879 -6 -37 -42 -10 -15 -15 -113 -15
1532257860110800 -1 -37 -4 -8 3 19 11 2
1532257860150693 3 48 15 10 12 47 -3 -12
1532257860185601 -2 9 -16 5 -2 6 12 0
1532257860214522 3 21 10 10 1 -8 -14 -3
1532257860238458 -2 -48 -3 -15 -3 -14 -13 1
1532257860283338 5 9 -14 -7 2 55 -17 -1
1532257860298298 -5 -11 -10 -4 -5 -25 -1 -3
1532257860351157 9 14 10 -2 4 19 47 1
1532257860372101 6 0 14 9 11 8 28 9
1532257860402026 -16 6 -24 -7 9 25 -79 -5
1532257860431941 -1 5 42 7 3 6 11 15
1532257860463855 -6 -20 -8 -5 -2 32 -19 -5
1532257860560596 -7 -22 -10 -4 -4 14 30 2
1532257860620437 4 -10 12 4 1 -10 -1 4
1532257860673295 1 33 -2 2 -5 -15 5 0
1532257860861792 -4 -69 -23 4 4 1 4 1
1532257860957543 56 -28 -7 4 5 -9 -1 7
1532257860966519 -46 -9 -17 1 0 -3 -5 -19
1532257861017383 -27 8 -22 11 8 4 -26 -19
1532257861063260 30 -2 2 7 -3 -2 11 4
1532257861100162 8 -11 -5 -27 -10 -2 2 2
1532257861122109 -5 -20 15 -8 -6 -5 -6 -22
1532257861145042 -4 -26 4 -13 -3 -3 3 2
1532257861161012 -9 -13 -4 -3 -1 1 1 -5
1532257861193923 21 10 -2 0 0 0 2 11
1532257861206884 20 42 10 2 -3 -1 7 11
1532257861251770 -24 -10 12 1 0 14 -9 -4
1532257861273698 -2 8 0 0 -3 -5 -1 -12
1532257861303618 -1 -37 -4 3 1 -7 1 3
1532257861325558 23 -4 -9 0 0 -5 -1 13
1532257861348498 35 0 0 -1 0 -8 -8 8
1532257861377420 -23 22 1 1 -4 -13 19 33
1532257861388391 -22 3 3 4 3 0 -11 -42
1532257861407340 -18 24 1 -1 0 -1 -27 -6
1532257861445239 -16 -10 6 -35 -10 -1 -25 2
1532257861468178 21 6 4 -3 7 0 4 6
1532257861505079 30 23 -15 -12 -4 0 47 1
1532257861520039 -54 16 -35 -2 4 2 -3 13
1532257861542978 18 -7 16 16 3 -2 -12 -8
1532257861564919 -3 11 -19 -32 -5 0 -8 -9
1532257861579879 14 -7 -17 3 -4 -3 -15 2
1532257861625756 1 -6 13 -10 -6 5 -4 -8
1532257861662657 28 -8 18 4 0 -2 -3 -5
1532257861685613 41 -35 -18 -10 -3 -3 -5 -3
1532257861699559 -36 -7 -6 -3 -1 -1 4 16
1532257861722497 0 -23 7 -3 0 -3 -4 -35
1532257861745436 21 0 -1 1 1 -1 -5 32
1532257861759398 -29 -3 7 5 3 15 10 -14
1532257861784332 25 33 2 6 0 -6 -3 46
