1532264853518076 3 24 0 16 7 2 2 4
1532264853531042 4 -6 -6 23 5 -1 -1 0
1532264853583901 -5 -2 -8 17 -7 -6 -1 -3
1532264853603848 5 1 -1 -9 -1 -1 -2 1
1532264853670669 -3 15 4 -1 -9 0 1 0
1532264853680642 0 10 -21 5 9 4 1 -2
1532264853749458 -4 -2 -8 1 -4 -2 2 1
1532264853809298 1 -7 -11 -3 -1 0 -2 1
1532264853974855 -3 -5 -28 -6 0 -2 1 -2
1532264853988818 2 0 9 4 20 2 -3 0
1532264854025719 -3 0 6 -1 6 17 4 -1
1532264854034696 1 5 15 14 -5 -1 5 1
1532264854062620 -1 -3 -54 -10 -12 -14 -3 -1
1532264854094535 3 7 13 8 -2 -2 -2 0
1532264854139415 -3 -12 0 -4 -2 -2 -4 0
1532264854154375 2 1 14 -1 0 32 5 -1
1532264854230172 5 -2 2 1 2 -32 -8 -2
1532264854252113 -13 -2 11 2 -1 -22 -2 -6
1532264854297991 -1 2 15 11 4 6 0 -2
1532264854304972 0 -7 -33 -7 -2 -12 0 -2
1532264854334911 -1 0 4 8 -4 -13 -6 -4
1532264854366807 6 -18 -19 -18 -5 -14 -1 -2
1532264854424652 -1 7 49 -5 0 -25 -6 -2
1532264854431633 -2 5 -4 -9 -3 23 8 1
1532264854476513 -1 -21 -8 -65 -7 -19 -2 -1
1532264854492472 0 5 -110 -24 -11 -24 -11 -3
1532264854514412 3 2 19 15 2 6 2 0
1532264854528375 4 11 56 17 1 -5 -3 -2
1532264854565276 -6 20 12 -3 -6 1 2 -2
1532264854591207 -7 -26 29 5 1 -2 -3 1
1532264854619131 -15 21 -1 4 2 -38 -9 1
1532264854642071 -5 -7 -16 -11 -11 31 -4 9
1532264854678972 5 7 27 12 2 4 -2 -1
1532264854692935 -7 -8 -11 -2 2 -9 -4 -2
1532264854754769 6 4 -47 3 2 -44 2 3
1532264854860487 3 0 16 6 -2 4 -2 -2
1532264854896391 6 -28 108 -2 1 5 -4 -4
1532264854918332 -3 9 32 9 4 67 14 -1
1532264854949249 5 -8 -18 13 5 -20 -7 11
1532264854956231 -20 6 -6 -15 -5 -5 6 -6
1532264854996133 8 -8 7 -3 -2 -32 7 6
1532264855024049 1 -12 13 4 3 -9 -4 -4
1532264855069927 4 11 33 2 -1 -15 -9 2
1532264855084887 -3 -4 -18 10 6 11 4 -8
1532264855107826 9 -2 37 5 -5 0 4 20
1532264855122785 1 -10 -22 -9 -3 -2 -1 -9
1532264855180631 2 -2 -16 -5 0 -4 -5 -19
1532264855235484 -22 3 -5 2 1 -29 -4 -20
1532264855273383 -3 -13 -20 -1 -3 -21 -4 -1
1532264855301308 6 19 2 4 0 -13 4 -33
1532264855339207 2 32 -22 -2 -2 -12 0 50
1532264855361148 -23 -7 -23 -8 0 8 -7 -22
1532264855399046 2 25 42 10 7 5 3 -12
1532264855421985 5 -23 27 -2 2 2 3 11
1532264855603507 5 26 1 0 -1 -2 -2 -17
1532264855722189 0 -5 -57 -3 -1 4 -1 -12
1532264855782030 3 1 -11 -2 0 2 2 3
1532264855818931 0 2 1 3 -1 0 -2 4
1532264855901709 1 1 0 1 5 1 -7 0
1532264855916669 1 -4 -5 -8 0 -12 -3 -1
1532264855978504 4 7 2 7 4 -11 -15 8
1532264855998451 -8 -9 -6 -2 1 -8 -9 -2
1532264856029368 2 12 14 14 4 -9 37 7
1532264856067267 -10 -17 60 7 -1 20 69 -7
1532264856089208 13 -11 -73 9 11 2 -8 16
1532264856143064 -2 -4 -6 -2 1 -12 122 -2
1532264856156029 -2 -6 -19 -15 -1 -24 -128 16
1532264856178968 -16 14 -24 -17 -7 7 -89 -40
1532264856217864 -10 13 -1 2 1 47 127 5
1532264856231827 -17 7 -16 -9 -7 -24 127 -5
1532264856254765 15 26 43 18 13 5 -62 4
1532264856284685 -9 -68 0 -4 -1 -3 -53 -7
1532264856345523 1 -40 0 7 8 2 20 9
1532264856383463 -5 -22 12 -4 -2 4 55 -7
1532264856395419 -9 -40 84 9 -8 -10 -60 2
1532264856487174 4 -4 -18 4 -1 53 -2 5
1532264856531057 -6 17 7 -2 -8 -21 -9 3
1532264856608856 0 17 -22 7 -6 -8 23 1
1532264856660717 4 17 82 -4 0 14 -2 5
1532264856720550 -4 -8 -8 11 3 -11 36 5
1532264856735510 7 14 1 3 -8 -24 7 13
1532264856803329 -4 -39 -14 -11 -3 -37 24 10
1532264856838236 -7 -9 9 -10 17 -16 -38 -53
1532264856878128 -4 13 35 -6 -9 -57 19 -3
1532264856898075 0 -13 -23 -12 7 86 34 1
1532264856922011 -2 -7 12 -10 9 79 12 6
1532264856974870 -8 -20 -24 21 10 3 -36 -4
1532264857017755 3 3 -12 -10 2 28 -24 -8
1532264857026732 7 22 14 9 13 30 66 -3
1532264857055654 0 -19 -3 -4 -12 -18 -12 2
1532264857101531 2 -12 -9 -1 7 31 0 -1
1532264857124474 -3 4 -12 -4 2 -22 9 -1
1532264857162369 0 -11 -8 4 -2 -3 1 3
1532264857244150 -2 35 -2 1 -3 -8 -4 -4
1532264857327925 0 3 -21 -1 7 -2 3 2
1532264857377792 -7 -9 -55 14 2 -2 -4 -1
1532264857454587 4 29 65 -9 -14 0 1 0
1532264857507459 7 12 71 10 6 -1 6 12
1532264857641088 -2 -38 -105 -10 -7 3 -4 -6
1532264857746805 4 3 1 -7 -15 -21 -11 -2
1532264857844545 9 3 17 7 7 -6 -3 3
1532264857914358 -8 11 56 -1 1 -10 1 -2
1532264857957243 5 11 -6 17 0 0 -1 -3
1532264857986166 -2 -3 -8 -1 4 3 1 -8
1532264858009104 -7 -18 -5 -19 -3 1 -4 -7
1532264858024075 -8 -19 -62 -24 1 9 2 1
1532264858062961 8 21 50 -1 3 -3 -4 1
1532264858086897 -15 14 -1 2 1 15 1 4
1532264858122800 4 14 16 63 40 -8 -1 2
1532264858143744 13 13 59 -3 -19 -113 -6 1
1532264858166683 8 -9 -92 -19 -8 1 5 2
1532264858189622 -11 22 49 -17 -6 52 -2 1
1532264858211563 1 4 -10 -12 -11 10 7 1
1532264858249463 -16 27 32 1 -4 1 0 -1
1532264858270406 -5 -3 38 -15 -4 -11 0 0
1532264858317280 -8 5 -36 -12 -5 -15 -8 -1
1532264858347200 1 -10 -32 -11 2 12 3 -3
1532264858377120 -7 19 12 3 1 6 1 12
1532264858384102 -1 1 -14 -4 -2 7 0 -6
1532264858414021 -3 0 -24 6 0 -1 2 -2
1532264858428982 0 -9 -41 2 -3 1 -1 -2
1532264858450922 2 -18 -34 29 2 -4 -1 -1
1532264858468879 3 -8 10 -10 1 -2 1 1
1532264858490816 5 -14 44 15 9 -4 -2 -2
1532264858511776 -1 4 38 -15 -5 -3 2 10
1532264858528715 -1 8 -4 -5 -7 -6 -2 -4
1532264858566638 0 -5 -4 -3 0 -3 -3 -4
1532264858595537 2 -6 -96 -8 2 1 2 2
1532264858631440 6 -9 -22 -12 -9 -3 -1 -3
1532264858641416 1 -12 16 -20 -7 1 -4 -1
1532264858677318 1 -4 7 9 4 0 0 -1
1532264858692277 3 -4 -19 -3 0 -6 7 5
1532264858729179 6 -11 -52 -13 -3 20 -2 -3
1532264858743142 1 0 -17 -3 -8 -12 -7 -4
1532264858788022 -3 10 0 -2 -4 3 -7 -3
1532264858804976 -3 5 25 -28 -6 18 3 -1
1532264858849856 -6 -7 53 1 -1 -29 -1 -1
1532264858879776 -2 -3 6 3 -2 4 4 4
1532264858954576 1 2 5 -12 -3 -39 -6 1
1532264858983498 29 -2 -2 14 -1 -33 1 -4
1532264858992475 1 8 -63 -30 -7 8 5 5
1532264859043339 -10 -6 -33 -7 8 45 11 0
1532264859067275 -10 0 -21 15 -2 9 3 2
1532264859134096 3 -9 58 -10 -3 26 -3 3
1532264859163019 7 6 16 -31 -15 -4 0 2
1532264859194933 -5 -15 -21 -8 -8 17 -3 -2
1532264859254797 0 -4 -54 -22 -10 2 -5 -3
1532264859269756 -19 2 10 0 9 -6 11 0
1532264859322615 16 1 -29 5 12 2 4 2
1532264859358520 -5 5 -51 11 -3 8 9 1
1532264859419357 -1 1 1 -6 2 0 -4 1
1532264859449277 4 -4 -4 -3 6 -11 -10 0
1532264859472215 1 14 2 -1 0 60 5 0
1532264859486178 13 1 47 -22 -10 -16 -6 -3
1532264859548013 -6 -3 42 11 3 -5 -3 -2
1532264859553000 3 0 -1 -3 2 -1 -1 0
1532264859591896 0 -4 7 22 3 0 3 5
1532264859621826 -3 -2 -23 -4 -5 -8 -1 -2
1532264859674685 6 -3 -4 -3 0 6 0 3
1532264859771425 -1 15 1 -5 -2 -2 1 -2
1532264859832263 -10 -8 -9 -5 0 0 -2 -5
1532264859899084 2 7 -29 15 12 5 1 -4
1532264859929015 4 -41 106 1 -4 -6 3 4
1532264859989841 -1 3 -45 1 4 5 2 -1
1532264860025751 -5 -39 -12 -1 0 2 -1 0
1532264860108532 24 -37 -82 -14 -6 -3 1 5
1532264860178345 -5 1 37 3 2 -1 1 1
1532264860231204 -1 8 -59 5 4 2 0 1
1532264860268105 4 -9 26 0 3 1 1 0
1532264860311987 -15 25 -22 7 10 21 -21 -66

1532264860385791 0 -17 39 -1 -5 -16 -4 14
1532264860446628 7 -24 -49 22 11 -4 -2 6
1532264860470563 6 10 -53 -8 -5 -6 -4 4
1532264860507470 26 9 -17 -2 -7 1 3 68
1532264860528410 -5 -15 92 20 15 -2 0 -9
1532264860574301 -7 -29 86 -16 -5 -21 -8 -4
1532264860657065 -3 -8 -8 -9 5 -2 -2 0
1532264860672025 -4 7 15 15 1 -3 -1 -4
1532264860741838 3 -1 -24 -38 -12 -4 0 -5
1532264860745827 -2 -13 -1 -11 -4 -3 0 -6
1532264860784723 -2 4 -12 -11 -14 -1 -1 -2
1532264860806675 -2 7 11 4 2 -2 -1 1
1532264860837582 1 -16 -6 8 -2 2 1 -1
1532264860934323 -2 17 84 7 -4 -8 -24 -7
1532264860964243 -4 7 102 9 6 2 -10 -7
1532264861008126 -3 32 -47 -10 0 -15 -1 3
1532264861076942 -3 -19 -6 -5 -6 7 0 2
1532264861090917 -3 -5 9 -1 0 1 1 -1
1532264861196622 -2 -1 7 2 -3 -2 -1 -2
1532264861234521 0 9 -12 -5 -2 -2 -2 -1
1532264861257460 -1 4 8 5 0 -1 0 -1
1532264861302339 -1 -2 -12 0 1 -2 0 -1
1532264861414041 0 -8 15 1 21 13 1 -1
1532264861465901 -1 -3 -13 -11 -15 -4 3 2
1532264861556693 0 5 1 -19 -5 7 -1 -1
1532264861570622 -1 -4 -15 -5 -3 4 3 0
1532264861593561 3 8 7 0 1 0 -9 2
1532264861630462 2 0 30 6 6 11 6 8
1532264861692297 1 -3 3 2 0 -11 -1 2
1532264861713241 -1 0 20 -2 -6 -48 -6 -4
1532264861781059 7 -16 -18 -8 -5 -22 -6 -4
1532264861799016 -8 -5 -9 -7 -1 7 -2 -4
1532264861833918 2 1 -21 0 -2 6 -2 0
1532264861855859 1 -2 -7 -4 -5 27 1 1
1532264861893758 -2 2 -4 9 1 -6 -3 4
1532264861946616 8 -28 44 0 -8 -14 -10 1
1532264861976536 -3 5 -18 23 2 8 6 -2
1532264861990506 9 -16 -66 -26 1 28 5 3
1532264862022413 -17 9 55 4 0 4 -14 -5
1532264862044355 10 -23 -35 -12 -2 -1 1 -2
1532264862082254 10 20 2 25 10 2 0 3
1532264862136109 3 5 12 4 1 0 10 1
1532264862210909 -5 4 13 5 3 6 -8 0
1532264862224872 0 5 -3 -11 -4 19 3 -5
1532264862336585 15 -16 19 -4 -3 3 -5 1
1532264862373474 3 8 22 4 2 3 6 0
1532264862412371 -27 24 -2 -6 0 5 -7 -17
1532264862504126 7 -11 12 -8 -1 -6 -6 -9
1532264862526067 4 -9 11 -6 1 5 13 5
1532264862562968 -2 7 10 6 -1 3 -5 17
1532264862659710 -22 -9 24 -4 -2 1 0 -6
1532264862673684 22 6 -12 1 -4 -6 9 52
1532264862741491 8 3 9 -3 2 -7 -19 -31
1532264862779390 0 -27 39 -8 -9 -35 15 -24
1532264862793354 -12 20 -11 3 1 -2 -3 -40
1532264862816290 -2 -8 28 -6 -5 1 -9 10
1532264862839230 -5 22 -30 6 3 3 -19 12
1532264862861171 15 18 29 8 2 -5 9 36
1532264862898079 22 -59 15 3 0 5 4 73
1532264862921018 17 11 38 4 0 -2 -6 25
1532264862958917 -10 0 1 -1 2 4 1 -33
1532264862995818 0 0 7 -7 -2 -8 -11 12
1532264863026735 -7 13 -14 6 3 -3 -2 15
1532264863080591 0 -11 -11 -5 -4 -7 -19 10
1532264863101535 5 11 -4 -1 0 2 3 1
1532264863162373 3 -5 -5 -4 -5 -24 1 6
1532264863199274 3 2 -3 -1 1 4 2 3
1532264863259114 -1 -2 4 1 -3 8 13 2
1532264863296015 -3 -2 -6 -5 7 27 -65 -7
1532264863341892 -10 -4 -1 -26 -38 -40 -50 -9
1532264863355855 0 -4 0 7 26 15 74 3
1532264863401733 0 -6 -4 -5 8 0 60 6
1532264863416693 8 -1 6 -3 3 -5 17 14
1532264863461572 7 16 -31 -15 14 -13 13 6
1532264863499471 -5 8 49 15 -4 10 19 -22
1532264863522410 -2 21 -19 16 16 30 32 -19
1532264863535375 5 7 41 3 0 21 28 18
1532264863559311 5 15 -17 0 7 -4 -7 4
1532264863582250 -4 27 34 21 0 6 30 4
1532264863620149 3 -50 12 12 -2 0 -23 15
1532264863633114 5 6 -6 -17 -4 -20 -59 -14
1532264863656065 -1 13 -80 -14 -8 -57 -31 -14
1532264863725866 8 -31 85 -9 -3 15 -7 0
1532264863761769 8 33 4 -24 -16 2 -117 -18
1532264863784708 7 13 -10 7 -3 -11 8 9
1532264863797674 -6 -14 50 12 16 5 -14 9
1532264863897406 4 26 26 -6 -2 -5 -32 -9
1532264863912374 -5 -4 -38 15 4 7 59 -1
1532264864024069 -5 -14 -10 -1 1 -5 -4 2
1532264864042021 -7 14 -8 19 7 -19 -17 -11
1532264864076927 -3 4 -32 32 5 -36 23 0
1532264864180650 2 -27 -10 -5 -9 15 53 -3
1532264864189626 -6 -15 -6 0 1 -8 -12 3
1532264864226527 -8 -15 -3 -1 1 18 88 -7
1532264864264426 1 17 -6 -13 -8 -19 -2 0
1532264864332245 3 -22 3 7 7 68 -18 4
1532264864353188 0 -15 -11 1 4 10 0 0
1532264864378121 -1 2 -12 -6 -11 -6 -6 -2
1532264864407044 0 -49 4 -1 -5 -7 -3 -2
1532264864443945 -2 7 -32 3 4 -1 -1 -1
1532264864466884 2 8 -35 -18 -4 3 1 0
1532264864504783 1 17 -3 -12 -1 -13 -3 -1
1532264864526724 -1 -5 51 -4 10 -1 0 0
1532264864564623 0 6 62 9 -3 4 -3 1
1532264864617482 -3 -11 -12 -6 7 24 1 -3
1532264864626458 0 6 -26 14 7 -6 -4 -2
1532264864648399 -2 8 36 8 -2 2 -1 -3
1532264864673333 -6 4 -7 7 3 -19 -2 -1
1532264864722202 -1 -20 -24 -30 -2 41 3 -1
1532264864767098 -2 -7 54 -66 -7 3 2 1
1532264864817961 -12 -26 -66 -10 -15 -5 -7 -1
1532264864871818 -2 -6 9 19 -2 -9 -4 -3
1532264865021418 4 4 -5 19 4 3 3 -2
1532264865128133 -3 -8 0 17 2 2 -1 -1
1532264865150074 -13 6 30 -9 -1 0 -2 -5
1532264865186974 7 -3 6 0 3 5 -2 -4
1532264865232852 -8 1 -16 4 4 5 4 -1
1532264865239833 4 -2 17 -12 4 -28 -9 2
1532264865299674 -4 -3 10 10 0 -2 -1 -1
1532264865336575 3 4 -28 3 -1 3 2 2
1532264865374473 8 -2 -39 6 2 2 -2 0
1532264865405390 4 -19 -1 -4 1 3 1 -1
1532264865451268 -9 7 6 -4 -6 2 -1 -1
1532264865457253 -6 1 -37 -2 -1 -2 2 0
1532264865487173 3 -7 -1 -10 -4 1 1 -1
1532264865517093 -4 -5 -2 -13 -3 -2 -2 -1
1532264865553994 4 -3 5 -5 -4 -3 2 11
1532264865597877 1 2 -14 -6 -1 -2 -2 -3
1532264865629791 0 1 14 9 -2 -2 -2 -2
1532264865689632 1 -10 -45 -2 0 27 13 4
1532264865718553 -2 9 32 19 13 6 -7 -5
1532264865740495 -3 10 6 7 0 -7 2 -11
1532264865796345 -1 7 10 -10 -2 -13 -3 2
1532264865801332 3 8 50 2 -5 -21 -4 -1
1532264865839231 -16 4 25 3 -1 6 -4 -9
1532264865908047 15 -7 31 -30 -20 -10 -3 3
1532264865929988 1 -10 -63 8 -3 -5 -1 -4
1532264865950932 -4 1 -32 6 -3 43 9 0
1532264865989828 4 3 60 9 -2 -15 -14 0
1532264866019748 0 4 -11 -31 1 -3 4 -3
1532264866049668 2 9 37 -25 -14 -45 -4 -3
1532264866071609 -5 0 63 17 5 34 0 5
1532264866109508 -3 -11 -121 -8 -5 -9 -1 -3
1532264866178324 -6 6 11 26 14 -11 2 -1
1532264866185306 -9 1 53 12 6 -21 -7 0
1532264866209242 -5 3 -37 4 -4 -3 0 -3
1532264866237167 -2 -32 -13 10 -5 -89 -11 -5
1532264866244152 3 5 48 -2 -5 -4 0 0
1532264866289028 -8 -13 -42 0 0 6 -4 0
1532264866311967 3 8 -13 3 4 20 3 3
1532264866363829 -5 -6 -12 -11 -8 11 0 -2
1532264866424666 -1 -3 30 -7 0 -10 5 -3
1532264866476527 3 -5 3 -5 -1 7 -1 0
1532264866529385 11 -2 0 0 -6 -5 -4 1
1532264866559305 2 -4 -6 0 -4 -4 -1 1
1532264866574266 1 13 1 2 0 2 1 0
1532264866612164 6 96 2 1 0 -1 -2 -1
1532264866679983 -2 -10 -3 -23 -7 -2 -5 -2
1532264866709902 2 62 8 4 -1 3 -2 -3
1532264866731844 2 14 -39 3 -1 3 -1 -2
1532264866760767 -4 -31 17 -7 -1 -2 -4 -3
1532264866791684 0 21 13 7 6 0 4 0
1532264866806680 3 -23 -14 2 1 -3 -3 0
1532264866829582 2 35 42 -3 2 -2 1 1
1532264866874480 -4 -13 -9 -2 2 4 -2 -3
1532264866889423 -2 -22 3 6 -1 -1 0 0
1532264866928319 -3 2 -37 -16 -7 -2 -3 -1
1532264866942286 -1 4 54 9 -1 1 -1 -2
1532264867016084 1 0 58 2 -2 -2 -3 -1
1532264867034049 0 -2 -16 12 1 2 0 2
1532264867039022 2 -4 -41 5 1 0 -2 -4
1532264867077919 34 18 -26 5 -1 -9 3 42
1532264867091882 17 -38 -62 3 4 -6 11 -2
1532264867130777 -9 -48 -38 0 -2 -4 0 -24
1532264867151721 -6 -41 14 -27 -9 1 0 3

1532264867199606 3 21 32 21 -4 6 7 6
1532264867211561 -2 24 52 29 5 2 0 -5
1532264867225524 1 -26 6 -7 -12 9 29 47
1532264867257594 6 20 -13 11 13 -12 23 -23
1532264867294510 21 8 -71 5 -4 -4 1 -4
1532264867311451 17 25 41 47 -6 14 32 12
1532264867341369 6 2 68 -70 -25 -11 9 -16
1532264867392234 -4 16 -5 -8 -8 -1 -5 -11
1532264867405199 -3 14 98 45 4 -4 -7 -2
1532264867429134 9 9 -23 -16 -16 -1 -3 0
1532264867466036 3 3 4 -8 -3 1 3 5
1532264867481994 -14 -31 -3 -9 -26 -6 -1 -2
1532264867519892 -4 -26 -5 2 -2 -1 2 2
1532264867534853 7 18 14 16 13 3 -1 1
1532264867571754 -4 -36 -12 -8 -7 -5 -2 -2
1532264867594693 -3 -63 -1 9 -9 1 0 -1
1532264867645557 2 49 33 0 4 -2 -1 -1
1532264867737311 -8 -23 -14 -9 -10 -7 -3 -1
1532264867774212 -2 -21 -17 2 -1 -2 -2 -3
1532264867795156 3 -7 -30 -1 1 5 2 0
1532264867834052 -24 -6 -5 0 -2 0 3 -22
1532264868013585 -2 -13 0 -3 -2 -1 -2 -1
1532264868290834 0 0 -1 -11 4 -4 -1 -2
1532264868344686 -3 -11 -15 1 -16 9 2 -3
1532264868419487 0 -7 -26 1 -10 -8 1 -2
1532264868502272 3 7 12 1 0 -4 -1 1
1532264868584047 -2 -11 -8 -2 -1 0 1 -3
1532264868599007 6 -8 4 -12 -3 -2 -3 -1
1532264868613967 -9 -12 -12 -4 1 0 -3 -2
1532264868681785 4 4 39 1 2 -5 -8 -14
1532264868696745 -4 -6 -30 -6 -3 -5 0 3
1532264868711706 16 6 22 2 1 4 4 6
1532264868756598 0 4 28 0 -1 0 3 4
1532264868779524 -18 -9 -21 2 2 6 -3 -5
1532264868795481 15 -8 9 -4 1 -1 -2 0
1532264868833380 -19 -2 -57 -3 -1 8 5 3
1532264868838367 7 -8 15 -1 -4 -6 -3 -3
1532264868877263 0 -9 16 -3 -3 -1 2 2
1532264868891226 -1 4 15 -19 -8 -5 -4 -2
1532264868913167 9 -10 -3 6 1 2 5 12
1532264868937103 8 7 -16 8 3 -6 -4 -3
1532264868980986 -9 -11 -34 6 2 0 1 -2
1532264869056783 -4 10 -9 -4 -2 11 1 1
1532264869070745 -4 8 -2 4 0 -2 3 5
1532264869110639 8 20 18 -17 -2 0 0 4
1532264869124602 -14 -33 -7 -3 -1 -4 -5 -3
1532264869176463 7 -6 -9 -1 -3 -4 -1 41
1532264869223349 8 2 -3 7 3 2 0 -11
1532264869238297 -5 -4 25 -1 -3 -8 1 -16
1532264869274201 -6 -7 23 -4 -3 -19 -2 -7
1532264869297140 4 3 -10 1 -4 0 1 -7
1532264869311103 -3 -7 -3 -3 -1 0 2 11
1532264869355983 15 19 -5 -3 -6 1 -3 -26
1532264869370956 -14 -85 -23 -4 -5 -4 -9 -1
1532264869424798 -13 42 0 -2 -4 -4 -15 -77
1532264869476660 1 69 11 2 1 -1 6 -1
1532264869490622 -2 20 0 1 0 -2 5 -9
1532264869536500 -7 -6 2 1 2 2 -2 -8
1532264869550463 3 19 5 4 3 -2 4 37
1532264869597337 -26 10 -3 0 -2 0 -4 -52
1532264869610303 -5 -21 -13 -1 0 -2 -1 -2
1532264869633242 18 14 15 1 0 0 8 101
1532264869679118 12 37 -3 0 -4 -1 5 16
1532264869724004 1 22 -5 2 0 2 -6 -3
1532264869776857 1 5 -7 -2 0 0 1 -1
1532264869836697 0 1 0 -2 -2 0 2 -9
1532264869859635 -5 -10 0 2 -1 -3 0 -1
1532264869896537 -1 -21 -5 -3 -3 -9 -1 0
1532264869919476 -2 15 2 -1 0 2 0 -1
1532264869979316 2 -6 -3 -1 -3 -9 -5 -1
1532264870017214 5 -4 2 18 13 -2 -7 2
1532264870039156 1 -1 0 -1 -3 -1 -5 -3
1532264870077054 -3 -6 -6 7 0 -1 7 -1
1532264870098995 -1 -1 5 -6 -9 -4 4 1
1532264870136894 -3 -2 -4 -13 1 1 -7 -1
1532264870159833 -9 -21 -5 -5 -20 -5 4 -2
1532264870172798 5 18 17 3 10 1 1 2
1532264870219672 1 -15 -12 2 15 4 9 9
1532264870233636 2 14 17 6 6 -6 -29 -4
1532264870279513 9 11 40 0 2 -8 -83 1
1532264870309449 -11 11 -108 1 -1 -28 -98 -30
1532264870391214 3 -39 29 0 6 -21 -99 5
1532264870407171 10 21 -79 -8 3 7 -9 9
1532264870423129 -8 29 -57 -11 -4 -9 -98 -33
1532264870438089 -4 10 127 -2 3 27 66 -9
1532264870461040 -6 -20 -11 -9 -2 10 58 -3
1532264870487955 2 20 -76 3 3 -10 -42 -6
1532264870502916 6 23 -38 -16 -3 56 39 0
1532264870552782 -5 -44 19 16 -1 -21 112 27
1532264870573753 -8 12 39 8 -8 -17 -10 -1
1532264870603646 -1 10 49 -9 -5 8 -22 -3
1532264870608633 4 -14 26 10 -2 -18 -4 0
1532264870640548 2 15 5 11 2 -6 -26 5
1532264870661492 9 5 -54 0 -3 -26 -8 1
1532264870699390 -9 -15 -54 -1 0 6 -51 -10
1532264870722333 5 4 -1 9 5 32 14 -1
1532264870750254 -2 -17 4 -6 0 18 62 1
1532264870773193 1 -14 -128 10 -4 -26 -64 -5
1532264870812088 -3 -26 -46 -7 6 71 -20 -10
1532264870827049 -11 -13 -5 -18 -8 23 1 -5
1532264870848990 6 19 56 43 8 -33 -10 6
1532264870887886 5 -7 22 -10 -3 -63 -32 -2
1532264870932766 -4 -10 -32 8 -19 -73 -29 -1
1532264870940745 4 -9 -4 -21 -8 53 22 -2
1532264870975652 4 15 17 17 12 7 11 14
1532264871015545 -9 -2 21 -9 -8 -54 0 3
1532264871044468 3 -8 21 9 5 48 4 1
1532264871067406 -1 -10 -3 2 0 13 28 -2
1532264871082366 1 19 7 -1 -2 8 13 -4
1532264871143203 -4 -5 -6 16 -3 -38 -14 -4
1532264871149188 3 -6 -5 -6 -3 -7 -3 0
1532264871164163 5 -98 3 0 1 -4 -1 2
1532264871245929 -2 4 16 -17 12 33 7 2
1532264871360621 -2 25 98 51 11 -8 5 -7
1532264871479319 28 15 -15 -3 3 -15 -10 2
1532264871592004 -12 -18 14 3 2 46 10 0
1532264871605966 -1 -5 -34 -8 -1 1 -4 -3
1532264871681763 6 2 67 2 13 7 -1 -4
1532264871735619 3 -5 -6 3 -15 10 -1 4
1532264871771538 -6 -12 -24 -76 -36 -37 -5 -10
1532264871809422 -6 14 29 11 9 -3 2 6
1532264871847321 -18 21 40 -3 -17 -13 3 0
1532264871875246 7 -3 -30 3 -1 4 -4 -2
1532264871903171 2 5 14 0 4 14 0 -1
1532264871921123 3 -8 9 -7 4 8 1 1
1532264871961016 3 0 -34 0 3 5 -3 -1
1532264871980963 2 2 -21 4 2 8 1 2
1532264872034819 2 3 10 6 1 3 -1 2
1532264872088675 -5 4 18 -7 -7 2 -3 -3
1532264872162478 -3 -11 0 2 8 0 2 -1
1532264872192398 4 -6 10 -4 0 -4 -1 -3
1532264872207357 -1 -1 -15 -9 -10 -6 -2 1
1532264872244259 -2 0 -18 -5 1 -1 6 1
1532264872290136 -3 -2 19 -2 4 -4 0 -4
1532264872327047 -9 3 38 2 11 7 7 4
1532264872364936 -5 -18 4 9 4 -5 -8 -5
1532264872394857 2 9 -1 -6 0 -8 -1 1
1532264872425774 -7 -16 -22 -9 -11 53 -4 -2
1532264872476638 -4 15 -28 2 1 -21 -3 0
1532264872490600 8 26 49 -6 -2 26 -6 -2
1532264872514542 2 -2 -1 -10 -2 -15 8 7
1532264872581363 1 10 -26 1 1 24 -1 -1
1532264872627235 -1 -5 -11 -4 -4 -13 -11 -3
1532264872664136 -2 8 1 3 6 -16 -4 10
1532264872687075 -6 -20 -16 21 3 8 6 0
1532264872710014 1 9 35 -25 -12 -21 -10 -4
1532264872754902 2 14 -41 -1 0 0 1 -5
1532264872776849 -1 5 50 8 -14 -14 -3 -2
1532264872805758 -8 37 47 10 -17 -15 -9 -3
1532264872829693 -1 -13 43 13 11 2 -1 12
1532264872880558 5 15 -12 6 0 0 2 12
1532264872897512 6 15 -5 11 5 -1 0 0
1532264872942392 4 8 -51 14 5 5 -3 -5
1532264872957353 7 -12 -21 -18 -5 -6 -1 6
1532264872973309 0 13 -10 2 6 -1 1 -2
1532264873009213 0 -14 -16 -5 -3 -4 -1 -6
1532264873032152 1 -12 -9 -11 -1 2 -1 -2
1532264873047111 -5 10 -8 -6 -1 -1 -1 0
1532264873084013 -2 1 0 2 1 -1 -2 1
1532264873106951 -23 1 17 7 5 3 4 -2
1532264873136872 9 -6 -4 -5 -4 -2 24 1
1532264873180754 -4 -15 -5 1 0 3 4 -2
1532264873242589 8 -15 -28 -12 2 3 -2 2
1532264873264531 -3 35 25 2 -3 2 -2 -9
1532264873309411 4 -7 -55 -6 0 -6 -7 -3
1532264873346312 -6 -40 1 -5 -1 -1 -2 -1
1532264873370248 3 33 -50 1 6 5 4 -3
1532264873384211 -5 -33 -3 -22 -1 2 3 -1
1532264873423106 -4 -1 -7 -6 -9 -6 0 -3
1532264873437070 -3 -9 3 9 1 -1 0 1
1532264873496909 9 50 -17 -3 -3 1 1 3
1532264873563731 -1 -17 -11 2 0 1 0 1
1532264873602634 -6 -9 -31 10 0 -1 2 -6
1532264873623571 12 51 52 0 -1 0 -9 -48
1532264873677427 -3 -19 -48 3 6 21 20 3
1532264873736269 -13 -47 -23 3 3 -12 -17 28

1532264873828062 -7 -96 26 3 -7 3 -6 0
1532264873841041 0 -3 -24 -22 2 2 2 -1
1532264873904857 4 -25 127 4 -6 2 29 -10
1532264873918819 18 16 75 2 1 -18 27 -12
1532264873954723 0 -20 -40 33 10 3 2 -15
1532264873976664 -3 -5 -32 8 5 -2 -6 3
1532264873991625 7 15 -20 -47 -17 -2 14 5
1532264874036504 4 -8 -36 2 -11 -5 -3 -7
1532264874066424 -8 -9 -17 26 -3 0 -3 -1
1532264874089363 8 4 21 105 60 16 7 5
1532264874103326 2 -7 -12 -8 -8 -3 -2 -2
1532264874127262 1 12 -5 27 8 2 0 -2
1532264874157182 -4 6 7 5 -4 2 -1 -1
1532264874178126 0 -14 20 7 6 2 -6 -1
1532264874196095 -4 -5 -57 1 1 0 8 -1
1532264874246942 2 70 -62 -3 0 -2 -11 -3
1532264874329720 19 -1 -11 1 1 4 5 16
1532264874426462 0 2 -6 -1 -2 -1 0 -4
1532264874449400 7 -9 1 -1 -2 -3 -2 0
1532264874509240 -4 19 -2 -3 -2 1 -1 2
1532264874591027 1 21 2 -4 -3 -1 -1 -4
1532264874628920 -3 3 -10 -1 1 0 0 -1
1532264874673804 -1 8 -10 -5 -1 -1 -2 -3
1532264874794478 2 0 -21 -42 -16 4 0 2
1532264874868280 -5 -11 -4 -11 -33 -10 -3 -4
1532264874884237 4 4 1 22 23 -18 0 0
1532264874920141 3 -1 10 9 20 31 8 1
1532264875010899 -2 12 21 2 7 -4 -2 -3
1532264875047800 -6 -9 -18 -3 5 2 -2 -5
1532264875139566 5 -4 -8 -4 -2 -16 -3 1
1532264875192414 3 2 11 -4 -3 -6 -2 -1
1532264875268211 -33 21 8 -3 4 21 4 -3
1532264875289155 8 -7 9 -7 -2 10 4 4
1532264875400856 12 -11 -29 0 2 -2 -1 5
1532264875522531 8 10 29 3 -4 -5 -2 5
1532264875730973 -1 0 -14 1 0 4 5 1
1532264875792808 -1 0 -13 -1 6 4 2 2
1532264875828712 -12 -10 -7 -3 -3 22 1 -4
1532264875874589 2 -2 -4 0 -1 -16 -9 -12
1532264875888551 13 3 16 8 10 35 12 30
1532264875911491 -15 -6 5 -6 -6 -14 0 -6
1532264875934429 -11 3 -6 1 0 -20 -4 -26
1532264875957373 -5 -13 -8 -2 -2 -12 5 40
1532264876024189 -6 -10 -11 -4 -3 -3 -3 -33
1532264876061090 9 7 -2 -3 -1 -4 -2 -2
1532264876084029 18 14 5 2 0 -1 0 40
1532264876122925 -11 -16 9 1 0 0 6 14
1532264876135890 13 6 6 6 3 -2 -4 44
1532264876150863 5 0 -10 0 1 1 19 14
1532264876174787 -14 -35 -18 -16 -5 -1 8 -40
1532264876248588 0 -3 -2 -5 -5 -1 -2 3
1532264876294466 -1 9 4 2 1 0 -2 2
1532264876354306 9 7 -4 -1 0 -2 3 25
1532264876391208 2 2 10 2 0 -2 -3 0
1532264876451047 -5 -7 -4 -5 -1 5 -2 -3
1532264876510888 -1 0 -1 -3 2 -10 4 5
1532264876601645 2 1 0 2 -4 -5 -1 2
1532264876677443 1 3 -1 10 -15 -18 -2 1
1532264876690407 -1 -2 -4 -6 -10 -11 0 -1
1532264876714344 -2 1 6 -5 -3 4 0 3
1532264876750248 -1 -4 -9 -5 -22 -8 9 -3
1532264876767203 -2 2 -7 5 0 6 -11 -5
1532264876782162 2 30 19 2 -2 5 9 1
1532264876819064 -2 7 -5 -18 -6 8 37 -6
1532264876842002 12 -10 1 5 -12 7 12 16
1532264876856967 -2 19 28 15 7 12 51 -10
1532264876870925 -11 10 -5 5 0 10 50 -2
1532264876917800 -12 8 0 -1 2 4 41 -10
1532264876924781 -15 -15 0 -12 -14 -27 -39 -30
1532264876954701 -5 10 9 1 -3 8 10 -27
1532264876984621 11 -48 -34 4 -8 -26 -5 25
1532264876990605 -20 14 -5 -10 -7 -36 -32 -21
1532264877022530 -15 -10 0 -1 6 6 -22 -7
1532264877044461 -1 -3 4 0 -12 5 26 -7
1532264877067400 5 -39 7 -3 4 30 2 3
1532264877082360 -1 -51 17 2 4 -12 -54 -13
1532264877098317 -3 17 14 2 -1 -3 27 -5
1532264877119267 5 -11 -1 3 1 -4 45 0
1532264877157160 4 -17 9 5 0 9 49 3
1532264877224021 -4 -9 13 9 -6 -8 -11 -4
1532264877262901 4 -18 -6 1 5 18 -2 -4
1532264877269883 -1 -1 -16 6 0 -9 -3 0
1532264877299803 2 -3 -3 6 0 -2 16 7
1532264877344682 4 -7 12 5 -4 -1 -57 -7
1532264877381584 2 -12 -4 4 0 -48 72 6
1532264877398538 -2 -13 0 -6 -9 -25 -13 -9
1532264877435440 -1 22 5 -2 -2 36 -10 -4
1532264877481320 -12 -10 -2 7 3 -43 24 -8
1532264877509243 6 -3 -14 2 1 95 18 -1
1532264877539162 10 -12 13 -13 -5 11 56 6
1532264877562112 4 -6 4 11 -2 -29 -57 8
1532264877577061 -5 -9 -9 -5 -5 60 -1 -12
1532264877612965 -4 -12 -8 -4 -2 -14 -33 -1
1532264877668816 1 3 3 1 -1 -8 -27 -2
1532264877696741 -1 12 0 -2 -3 -39 -27 -6
1532264877749600 2 3 -2 2 0 -2 7 2
1532264877779520 2 11 7 6 3 -8 -5 0
1532264877809439 1 1 -5 2 3 -1 -8 -1
1532264877839359 -1 68 32 16 14 -3 0 -2
1532264877877258 2 -9 17 -6 -17 0 -4 -3
1532264877899200 1 -42 33 -11 -24 -11 -7 -3
1532264877967018 -1 1 94 27 -1 8 -1 0
1532264877981981 1 -3 28 -8 5 41 4 2
1532264878018880 4 -6 0 26 1 23 9 6
1532264878192430 10 9 29 28 0 5 3 0
1532264878415833 -7 -8 11 30 11 0 3 0
1532264878454729 0 1 8 -4 -9 -2 4 2
1532264878522547 -3 2 10 -5 2 3 -3 -3
1532264878544489 4 16 8 17 -1 -1 4 3
1532264878568425 9 0 19 5 -2 -2 -1 3
1532264878595353 1 -6 -9 -2 1 -3 1 2
1532264878620286 1 1 -4 10 2 0 0 -3
1532264878666163 12 -3 -10 -3 -2 -1 -2 0
1532264878709048 13 0 -59 -5 -1 1 -2 6
1532264878724019 -8 -11 -21 -3 -1 0 -1 -1
1532264878746947 4 -1 -55 -6 1 1 0 1
1532264878760910 7 5 39 -1 -4 -3 -2 1
1532264878799805 0 -24 -79 -5 -3 -1 0 0
1532264878821747 2 11 50 -2 -2 -2 0 2
1532264878851667 -9 14 55 6 1 -2 1 3
1532264878881587 1 -4 -1 -13 -14 -5 -4 -1
1532264878919486 0 3 3 6 6 1 1 0
1532264878949406 3 -6 23 -3 -5 -7 -1 1
1532264878970363 -2 2 17 -9 -10 -23 0 -1
1532264879002265 -5 2 -48 -6 -1 1 0 -2
1532264879038169 -3 1 14 2 0 -23 -4 -1
1532264879056121 3 -3 15 -8 -1 7 1 1
1532264879084045 2 2 62 -8 -6 0 1 -1
1532264879165827 -1 -3 -8 7 -2 -7 -3 -2
1532264879195746 1 6 -45 -2 -4 -4 -4 0
1532264879213699 -2 2 39 -2 -1 -2 0 1
1532264879242622 2 -1 -7 -18 -6 0 -3 -4
1532264879279525 1 -6 -6 1 -2 -2 -2 -2
1532264879338366 -3 -11 11 -6 -8 -14 -7 -5
1532264879375268 -3 8 65 -5 1 -2 -1 -4
1532264879452061 -1 -9 -20 -10 -2 -2 0 0
1532264879467022 1 -2 -22 0 -1 6 -1 -1
1532264879519880 0 -4 0 -9 -2 0 1 -1
1532264879541822 1 -5 -67 -1 0 0 -2 0
1532264879578723 0 3 106 6 -2 -2 -1 2
1532264879616622 -7 -1 8 0 2 0 -1 -3
1532264879646542 -6 4 -10 -19 -3 5 1 -4
1532264879662499 0 -1 -12 -5 -6 -5 -1 2
1532264879684440 5 -9 -38 -5 -1 -1 -1 2
1532264879707379 2 -4 9 10 5 0 0 1
1532264879729327 0 -3 -9 -13 -10 -5 -1 -1
1532264879758243 -2 4 13 16 4 -2 2 2
1532264879782179 5 -1 3 -8 -4 -3 -2 0
1532264879887897 -3 -30 -17 -3 1 -1 0 -1
1532264879909837 -11 -54 -13 6 -1 0 -1 -4
1532264879924798 2 -32 8 28 7 6 4 2
1532264879946739 -1 -71 -29 -19 -2 8 4 2
1532264879976659 -5 69 40 -3 -4 -6 -8 -17
1532264880007577 0 2 10 -1 -1 -1 -1 -2
1532264880044477 1 16 -55 0 1 -1 0 5
1532264880058440 6 -11 -5 -2 1 0 -1 2
1532264880081379 3 0 32 -1 -1 1 2 1
1532264880095342 -1 7 2 -4 0 1 -1 0
1532264880173139 -4 8 32 -5 -3 -7 -1 1
1532264880247933 -10 -19 -54 -8 1 1 0 -2
1532264880353651 -24 -32 92 4 -1 -9 -8 -48

1532264880435431 -17 89 64 1 4 11 18 -61
1532264880517227 3 -18 -75 -14 -5 27 17 16
1532264880614953 0 5 41 25 15 6 7 3
1532264880629912 -1 -15 -1 36 11 1 -6 4
1532264880726653 -7 -49 -13 10 3 2 2 -2
1532264880741614 -1 -10 19 13 3 -1 -5 1
1532264880890216 -33 52 90 20 -14 -15 -5 -26
1532264880944072 8 -27 -5 5 -1 -1 2 33
1532264881010893 -3 3 -9 0 2 -3 1 -16
1532264881243272 -1 -2 3 -1 -2 -2 -3 -1
1532264881348989 1 3 -38 10 4 2 4 1
1532264881408829 -3 1 -4 -16 -13 -6 -3 -2
1532264881612285 3 6 25 -6 28 -3 -2 -1
1532264881627244 -6 -8 16 -9 -7 3 0 -3
1532264881686088 3 13 4 5 0 2 1 1
1532264881709026 -2 -7 -23 -6 4 5 -1 -2
1532264881739945 8 0 -12 -5 -4 -1 1 1
1532264881813747 -1 6 6 4 6 5 -3 -2
1532264881828706 -10 -1 9 2 2 14 2 -2
1532264881851645 -2 -1 -27 -1 -4 8 -3 -2
1532264881888546 -2 20 87 2 0 -4 -1 -3
1532264881934424 -15 3 -9 6 2 -3 3 0
1532264881963346 -6 21 25 -5 -4 1 -2 -12
1532264882024184 0 -21 -29 -2 2 2 -4 -2
1532264882039144 5 2 9 1 3 6 3 4
1532264882092002 2 5 -49 13 3 -1 1 3
1532264882190739 3 11 58 -8 -1 -6 -6 -5
1532264882210687 2 -13 -1 -12 -2 -6 1 13
1532264882255565 -8 1 30 4 -7 7 2 -6
1532264882317399 3 0 -44 -4 0 10 0 -2
1532264882376242 -3 12 7 6 2 -3 -1 0
1532264882505895 6 76 6 -20 -2 -4 1 14
1532264882548789 2 10 27 13 3 0 0 3
1532264882608621 2 1 -14 3 7 17 2 16
1532264882668461 0 -1 32 5 16 -6 -2 1
1532264882885879 -1 -22 -20 -3 2 4 14 20
1532264882908832 -6 9 22 -3 -4 -6 -20 -14
1532264882931757 -14 -6 -1 -3 -3 -6 5 -34
1532264882946716 2 1 -6 0 -3 -3 -2 12
1532264882991597 15 12 -9 4 -1 -2 2 27
1532264883059415 -3 0 10 6 1 0 0 -29
1532264883088338 0 -5 4 -1 -2 3 -2 -1
1532264883112274 -8 -13 5 5 2 2 2 -24
1532264883149176 1 -3 -12 1 0 -1 0 -1
1532264883283815 -1 -1 -3 0 -1 0 -1 10
1532264883388534 -16 -5 6 1 0 -2 -14 -30
1532264883412471 -4 10 2 -1 -2 -4 0 -10
1532264883433416 4 -4 0 1 -1 -1 0 6
1532264883472311 0 -1 2 -2 -2 -4 -1 -3
1532264883502231 3 -3 4 2 0 -3 2 -1
1532264883517191 -3 -1 -1 3 2 7 5 -3
1532264883554092 -9 1 -6 -4 -7 9 -2 -1
1532264883614930 -1 -5 -2 -2 -2 -7 -4 -2
1532264883627895 3 -1 1 3 3 14 4 2
1532264883651831 0 -6 -6 -9 0 -22 -4 -2
1532264883689730 2 1 -3 -1 5 5 3 2
1532264883717655 1 3 1 2 -9 -6 1 1
1532264883757549 -1 -2 -6 -8 -14 -5 -5 0
1532264883794450 1 3 2 -1 -3 -5 -2 -2
1532264883854290 -5 -7 -19 -22 -9 0 -1 -5
1532264883868252 -3 16 17 1 1 1 2 -5
1532264883891207 -12 14 5 -8 6 0 -40 -9
1532264883914130 18 2 34 -3 -10 -15 20 9
1532264883937068 -15 11 72 11 1 -12 0 5
1532264883951031 0 -11 -43 -1 0 5 -70 -7
1532264883973970 41 -3 1 -4 -3 2 10 23
1532264883995911 -10 -20 -31 -13 -5 12 70 -7
1532264884043796 -5 -9 -11 17 10 20 107 7
1532264884058752 12 -1 22 -31 1 8 71 0
1532264884071708 1 31 -6 -7 3 -15 -52 -18
1532264884134540 18 -88 -8 7 9 -17 -123 8
1532264884164460 3 45 3 11 17 30 1 8
1532264884223303 4 -16 -25 -12 -8 -20 -38 14
1532264884283143 -2 17 -2 0 -3 -22 -9 -1
1532264884297106 2 -7 -9 19 2 -14 52 5
1532264884334006 -9 -7 8 2 -1 9 41 1
1532264884356946 2 7 11 0 -5 6 17 -4
1532264884370908 0 -8 8 22 3 -15 -46 -5
1532264884379886 5 -15 -50 0 -7 22 -11 -7
1532264884411799 -14 -4 16 -2 4 24 7 -10
1532264884447703 -14 5 -20 -8 -13 -99 23 -14
1532264884484604 -19 -12 -1 -6 6 20 70 5
1532264884529484 -1 -20 -28 2 15 14 17 -5
1532264884550428 4 -11 -11 21 18 6 20 10
1532264884574365 -1 4 0 2 7 26 61 11
1532264884596305 3 24 9 6 -3 11 29 3
1532264884610269 -2 19 -15 0 4 14 -17 8
1532264884664124 -4 6 -20 -5 -3 -1 -33 2
1532264884694044 -10 -38 16 -7 -3 30 -51 -9
1532264884730945 8 6 5 -5 -10 -77 -24 -11
1532264884754881 -1 -16 0 1 0 22 -2 0
1532264884776823 -3 -23 17 4 2 8 -8 -5
1532264884799762 -1 -23 -3 -2 4 21 -8 0
1532264884836663 1 36 33 3 -1 9 -6 -3
1532264884867580 6 -65 4 -1 -7 4 -1 1
1532264884903484 1 -59 18 31 12 -4 0 2
1532264884949361 -6 96 -22 -29 4 0 -1 1
1532264884979281 -8 16 33 12 0 -12 -11 -9
1532264885017180 -2 3 68 7 9 0 2 -2
1532264885079015 5 -23 -128 -5 10 12 6 6
1532264885166779 -5 -11 32 47 22 -8 3 0
1532264885407148 0 -7 -54 12 5 3 0 1
1532264885532802 8 -5 -10 14 3 4 -7 -40
1532264885558732 -9 1 25 -2 -2 -2 -1 -4
1532264885592642 7 -4 3 -1 5 0 -3 6
1532264885631537 0 15 37 14 -1 -4 0 7
1532264885678411 2 -18 -54 -12 0 2 0 3
1532264885690390 -2 9 14 16 5 -2 -3 -5
1532264885708332 -7 -20 5 5 -6 0 0 -5
1532264885758201 10 -2 0 -6 -9 81 -20 1
1532264885767174 4 -5 12 -21 2 -25 9 15
1532264885814049 -4 1 -25 -12 -2 7 -5 -10
1532264885835990 17 -17 -51 -44 -9 -12 0 1
1532264885857944 -4 5 -12 3 -2 26 0 1
1532264885909793 -13 12 8 13 -2 6 3 -4
1532264885939712 -6 22 17 7 -4 2 -1 -2
1532264885975617 5 -7 -5 -1 0 -2 2 1
1532264886028476 -2 -7 -16 1 0 1 0 -2
1532264886067372 15 -11 -8 19 1 -1 -1 -3
1532264886128210 0 -1 -10 -10 1 0 -1 0
1532264886164113 2 -10 0 -9 -1 1 0 1
1532264886180071 1 -13 -39 -22 -2 0 1 2
1532264886202012 0 -15 -48 -2 -2 -2 0 10
1532264886224966 -1 1 -12 4 -1 -2 -3 2
1532264886261851 -2 1 15 1 -3 -3 -7 -15
1532264886275815 -7 -10 42 -8 -7 -3 -1 -2
1532264886335654 2 -1 -40 -32 -10 8 0 0
1532264886389519 3 -1 14 7 0 -31 6 3
1532264886427409 1 0 -13 5 7 22 -1 -1
1532264886442369 3 -6 31 8 6 -16 1 -1
1532264886502209 -1 11 -8 -9 -10 -6 -1 -2
1532264886540107 0 -6 -25 -25 -8 -14 1 1
1532264886562049 1 0 24 6 0 14 -4 -2
1532264886591969 2 13 5 -1 3 -37 -11 -6
1532264886689708 3 -5 -20 -10 -1 21 7 3
1532264886742566 -3 -3 15 -11 3 -20 -3 -3
1532264886931063 0 14 -26 25 3 2 -2 -1
1532264887040787 3 5 11 -5 -4 -9 -4 2
1532264887126540 -2 -1 -2 -27 2 -2 1 1
1532264887170422 0 -2 -7 -4 -7 -3 1 -3
1532264887223280 -5 1 -1 2 2 0 0 -2
1532264887246219 2 4 1 -1 4 3 1 1
1532264887282123 1 -19 -4 -12 1 -1 0 -2
1532264887304065 -3 -33 -2 0 -1 -1 -1 1
1532264887327004 4 52 -2 -1 -1 0 -2 -1
1532264887373879 2 11 -1 0 -1 -1 1 1
1532264887401804 0 37 39 10 8 0 0 -4
1532264887437707 2 51 -9 -8 -6 -5 -2 1
1532264887462641 4 -8 -13 -5 -3 -1 -1 2
1532264887491563 -3 -48 -64 1 -6 -1 -6 -4
1532264887514502 -1 15 -30 -1 -3 -2 -2 -2
1532264887531469 1 9 5 -3 -2 -4 -3 -5
1532264887552411 7 -31 -56 -3 -3 -4 -1 12
1532264887581323 -1 28 -36 -6 -2 -1 0 -3
1532264887588305 3 24 27 1 -2 -5 -3 -2
1532264887618225 -2 5 24 -3 0 5 -1 -1
1532264887650139 1 -6 5 -2 -2 -2 0 1
1532264887709979 0 -10 3 -10 -5 -2 -2 -1
1532264887723943 -3 -5 1 23 4 -2 -1 -4
1532264887762845 5 13 -24 3 1 1 2 0
1532264887829659 3 42 77 -2 2 0 -1 -1
1532264887867558 1 8 -26 0 2 -1 1 0
1532264887928395 -18 -5 65 -5 -4 -14 -6 -6
1532264887964299 13 -27 -48 4 5 6 30 18

1532264888057052 1 -19 69 -10 -7 3 3 10
1532264888069019 -2 -33 -91 -20 6 8 -1 4
1532264888109910 6 -9 -80 4 -1 0 0 -3
1532264888131857 -4 32 -12 11 2 -1 0 15
1532264888158779 -2 -36 62 -12 -5 6 0 69
1532264888190705 13 -4 -39 8 1 -11 -2 40
1532264888235584 8 -6 71 -11 -18 -24 5 24
1532264888241568 0 18 82 26 6 8 -3 -5
1532264888272491 3 6 -59 -5 -6 -3 3 9
1532264888325344 5 9 -24 -25 -6 1 2 -7
1532264888369227 3 -3 27 -34 -13 -2 0 1
1532264888384187 2 0 -53 -2 -4 -4 -1 0
1532264888421088 -17 -7 -22 -8 -8 -6 -1 -1
1532264888447019 2 -4 20 12 9 -1 -2 -1
1532264888496885 -2 1 12 -17 -4 1 2 2
1532264888511845 -6 13 3 11 4 0 7 -1
1532264888683387 -3 9 25 -1 -1 -3 -2 -7
1532264888729263 -12 4 15 5 -2 2 -3 -15
1532264888774145 13 5 10 0 -1 2 1 2
1532264888909781 6 0 0 1 -2 -1 2 6
1532264889066362 -9 0 -1 -1 0 -1 -2 -9
1532264889128197 1 -1 -2 -1 -2 0 2 19
1532264889231920 -1 6 20 -13 -6 -13 -4 -7
1532264889306721 1 2 8 18 16 0 3 -4
1532264889342635 0 -3 -23 6 13 16 8 0
1532264889366560 -2 -5 -12 -5 -20 11 2 -1
1532264889403461 2 -2 -30 17 46 5 -1 1
1532264889449338 -6 -9 -10 -22 -10 -3 -4 -3
1532264889628858 -12 -11 -3 -3 -4 -6 -4 -3
1532264889758512 -16 8 3 3 -2 0 1 -8
1532264889773472 -2 5 -25 -9 2 15 -1 -2
1532264889863232 -1 8 -11 5 3 3 -5 4
1532264889891157 19 17 19 8 4 0 15 0
1532264889958976 2 2 -43 -3 -3 -12 10 -3
1532264889996875 -39 27 -2 6 -1 -12 1 -5
1532264890011834 10 -14 37 -9 -5 -6 -10 17
1532264890025797 -18 27 7 7 10 -6 10 -4
1532264890087631 9 -4 -33 3 -2 4 3 7
1532264890111577 -22 11 38 4 -1 -17 -33 -3
1532264890163429 -5 -17 -9 -16 -4 -2 0 4
1532264890192351 -6 -6 14 2 -2 1 10 -21
1532264890251194 -6 8 -14 4 -2 1 0 -11
1532264890278122 -19 -1 8 -3 -1 -7 -8 -19
1532264890312032 5 -4 1 -1 -2 -3 -6 -24
1532264890325994 0 -6 27 9 13 -23 -10 1
1532264890394810 -11 -12 -16 -6 0 4 1 -2
1532264890445674 0 -6 -4 -13 -28 7 -53 -29
1532264890514496 -8 5 18 3 1 -6 -3 -20
1532264890552389 -8 0 -19 -1 6 5 -14 -4
1532264890574330 0 12 -18 2 5 4 34 4
1532264890589290 -5 -18 -18 -3 -3 -4 -5 -12
1532264890642148 3 7 14 -10 -28 -1 -11 15
1532264890655114 30 16 -8 2 1 2 -7 -63
1532264890716949 28 50 43 22 0 -3 -14 1
1532264890754847 -10 -9 -31 -1 2 7 7 42
1532264890791749 26 8 15 2 2 -5 -21 7
1532264890859567 -8 -19 0 -4 0 0 -1 -42
1532264890888491 -7 -8 34 -5 -2 1 27 -18
1532264890919407 -20 -45 -38 -7 -3 1 18 -15
1532264890972266 -11 27 -2 4 -1 -3 16 0
1532264890994207 -5 7 2 3 0 -1 -8 7
1532264891054047 -7 -9 6 2 -2 -7 -18 1
1532264891082969 0 2 8 5 2 2 2 2
1532264891114885 3 -10 0 2 2 -4 0 4
1532264891187690 0 16 1 -7 -9 -38 -7 0
1532264891234564 -1 0 -3 -1 2 6 -3 0
1532264891331305 1 1 -7 2 3 7 13 -4
1532264891354245 4 -7 -8 -6 -12 -34 -11 3
1532264891414085 3 -13 -1 3 15 9 -4 -4
1532264891437032 -2 -9 -11 -10 -1 8 -29 5
1532264891474922 3 2 -4 10 2 25 0 29
1532264891487887 -11 8 20 29 5 -18 -67 -29
1532264891510826 13 15 16 -4 13 32 -3 5
1532264891556703 2 8 19 7 -5 -11 16 -1
1532264891594602 -9 9 10 -11 -4 -9 -22 -3
1532264891639482 -6 15 46 -12 -11 -6 -22 -4
1532264891701321 -7 43 -13 23 10 -8 8 0
1532264891715279 5 34 40 0 -1 -27 -34 3
1532264891737220 -3 12 54 -1 16 18 -13 0
1532264891777114 8 41 85 -6 -6 -9 7 11
1532264891819012 -11 -26 13 -5 6 6 -56 -5
1532264891849919 -1 -10 -2 15 7 37 47 0
1532264891922724 10 1 -1 3 -3 14 -5 7
1532264891961622 6 15 -16 -3 -2 -9 -11 10
1532264892036420 -5 -4 9 -13 -3 46 66 12
1532264892050383 3 17 12 -3 -2 -10 12 3
1532264892129172 7 -18 -6 5 1 -3 40 12
1532264892136153 -2 4 29 6 2 -5 0 1
1532264892149119 4 -2 -11 3 17 48 62 12
1532264892193999 1 11 -72 -13 15 -11 92 2
1532264892216938 5 -6 -51 -2 -7 -7 -18 4
1532264892253839 4 1 16 12 8 91 -20 -2
1532264892276778 8 28 27 6 0 -7 -29 3
1532264892305700 -22 -23 4 -9 -4 -11 13 -8
1532264892320671 17 9 -17 30 8 -19 4 6
1532264892359555 5 33 20 -4 -5 -6 -41 -1
1532264892380500 0 0 2 2 -3 1 11 5
1532264892433359 5 28 -19 2 -3 4 35 9
1532264892442350 -1 11 -2 1 -2 -10 -28 -2
1532264892479236 -1 -11 6 -1 -3 -9 4 -5
1532264892539077 -3 -11 -8 -13 -7 -18 32 -7
1532264892554036 2 -15 5 8 1 -1 -27 -4
1532264892567999 -3 -25 36 5 3 15 27 0
1532264892598916 -1 12 -32 -1 0 -13 8 1
1532264892621855 -6 -20 -13 -3 -1 -21 3 -2
1532264892644794 4 33 38 5 7 5 13 4
1532264892672719 -5 -30 -15 -15 -3 4 -6 -3
1532264892696654 -1 29 -7 -26 -13 4 1 1
1532264892758490 6 -21 1 68 20 10 5 3
1532264892802372 0 -81 19 -12 -4 15 5 -1
1532264892818330 -2 -27 37 -6 -1 -28 -5 -2
1532264892862212 -2 -34 30 -18 24 48 14 5
1532264892878169 -2 45 -9 18 5 -39 -10 -1
1532264892901120 22 20 -102 -2 9 1 12 6
1532264892937012 3 -4 39 42 23 -29 -10 -1
1532264892997849 9 -14 -54 33 6 -13 0 2
1532264893047725 -4 -7 44 14 0 25 3 1
1532264893093593 -4 4 -26 -27 -12 -4 -3 1
1532264893139470 4 -2 100 -22 -7 -11 -8 7
1532264893177369 -6 -16 -25 -1 7 3 4 7
1532264893267129 -10 11 6 -4 -1 -3 1 -8
1532264893312009 10 15 -20 0 5 4 3 11
1532264893348910 -14 0 6 13 4 3 -2 -7
1532264893364868 4 -3 25 7 -1 -5 -6 -15
1532264893402767 -5 16 13 11 0 -9 0 0
1532264893469609 -26 18 -14 39 18 19 -11 -20
1532264893490554 -13 8 15 -4 -11 -21 -7 -16
1532264893521471 -10 6 11 -13 -5 -5 4 -5
1532264893544409 8 2 -36 -10 -3 -11 3 5
1532264893582308 -3 -10 80 6 2 1 2 8
1532264893604248 -2 -6 54 0 -2 -6 1 -2
1532264893642148 -3 -12 -36 -5 2 6 0 0
1532264893679049 -2 3 -12 -5 -1 -2 -3 0
1532264893701988 2 0 -8 -1 -9 1 5 1
1532264893731908 3 3 1 7 23 -3 2 6
1532264893769806 3 -6 -12 2 4 3 -1 4
1532264893784766 -16 23 -2 0 -1 -1 -1 1
1532264893806708 6 -12 -12 2 3 -1 1 0
1532264893844606 -3 -7 -62 -7 5 19 6 -10
1532264893920404 8 11 -21 14 6 16 -2 5
1532264893950324 13 -7 -62 -19 -4 -24 0 3
1532264893987225 -4 -2 -5 -62 -13 -18 -13 5
1532264894002186 -4 -2 60 21 2 9 -11 -5
1532264894047065 -4 -11 55 40 19 -10 -10 -4
1532264894084964 -1 -20 -107 -70 -16 7 12 3
1532264894121865 -6 -15 9 -17 -4 -10 93 9
1532264894174724 -2 10 -19 -5 1 1 -14 -4
1532264894204644 4 -6 -23 9 4 1 -14 -1
1532264894226585 -1 -12 -85 -11 -3 -50 -24 -7
1532264894278446 -13 -13 -50 0 -1 -4 -5 0
1532264894285427 -9 -12 2 -15 2 15 3 1
1532264894324336 8 8 -65 -36 -11 -38 -16 -3
1532264894430041 7 2 -9 7 -4 8 0 -1
1532264894563684 -5 -29 7 -4 -2 1 1 -1
1532264894633497 3 -7 -5 1 2 1 -1 -2
1532264894683364 -26 5 7 0 -2 -4 -6 -5
1532264894698324 8 3 -7 5 -3 -1 0 -3
1532264894721262 2 -1 62 5 -1 1 -1 -2
1532264894744201 -1 -15 13 -9 -3 2 5 3
1532264894781102 3 -49 5 -3 -1 0 -1 -6
1532264894804041 -1 10 -23 1 3 1 -3 -8
1532264894840943 -1 -47 51 3 -1 -4 -5 -1
1532264894866873 2 4 -25 -9 -2 -2 -6 -3
1532264894893801 -2 -29 -8 -13 -2 -1 -1 -1
1532264894923722 2 -1 -13 -2 -4 -2 -1 -6
1532264894992547 5 4 -34 12 -5 -2 -1 1
1532264895008494 2 11 -69 36 0 -1 1 1
1532264895068334 -10 33 21 3 4 0 0 -16
1532264895073321 12 -84 -17 4 1 15 5 -34
1532264895136153 10 26 76 1 6 9 3 -5
1532264895158100 -19 30 33 -6 -9 -1 -2 -11

1532264895193998 -14 5 74 -19 -7 -3 -7 -13
1532264895232894 -6 2 -46 5 2 -1 -3 -3
1532264895286331 63 59 -58 12 14 11 43 96
1532264895307279 -14 -44 -93 62 -1 -23 -17 -6
1532264895345174 -8 -8 39 11 -4 -21 -1 -3
1532264895404015 4 12 20 32 20 4 1 5
1532264895426955 -2 -7 -11 -49 -10 -3 -1 1
1532264895463856 16 31 21 3 -6 3 -3 -2
1532264895509733 1 -13 1 -24 -13 -7 -4 -1
1532264895523696 -22 -15 -20 3 7 -1 -1 -1
1532264895583536 -2 0 -12 -4 5 3 2 -1
1532264895621434 -6 -60 4 -10 -5 3 -1 14
1532264895674293 -3 -97 0 -13 -2 4 10 3
1532264895719173 0 22 -55 0 -2 -3 -4 -10
1532264895779012 13 18 -17 7 2 2 -3 9
1532264896003413 -1 -6 -18 -4 2 2 1 5
1532264896155008 -5 38 -25 -14 0 -9 11 -3
1532264896212853 2 -15 -8 -33 -23 -4 -4 -2
1532264896355472 -1 -1 45 -8 -5 -3 -5 0
1532264896394367 -2 6 8 21 12 -3 0 -2
1532264896446228 6 9 11 0 6 4 3 1
1532264896619765 -8 9 -4 14 -1 12 5 1
1532264896671626 1 16 48 13 1 3 -5 0
1532264896710522 2 5 13 9 3 -8 -6 2
1532264896769365 -13 -1 36 -30 0 8 -5 -3
1532264896816239 -2 -35 12 -28 -2 -2 -8 -1
1532264896844165 -15 18 4 4 3 7 8 -6
1532264896911998 -9 -5 13 5 0 -5 2 1
1532264896941904 0 2 -56 3 -1 -5 0 -2
1532264896986795 4 -14 12 -3 -6 -28 -19 -2
1532264897031663 8 -1 -24 -8 -2 21 7 1
1532264897056596 9 -3 -23 10 1 -36 -38 -1
1532264897091504 4 6 -2 1 1 -41 -58 2
1532264897098485 9 -4 3 -6 0 -5 5 -17
1532264897120426 1 2 -8 -4 -1 17 8 14
1532264897174299 4 -13 1 -5 -1 7 0 25
1532264897191237 8 2 7 0 -1 1 2 13
1532264897227140 4 0 11 0 0 4 14 4
1532264897286981 -7 9 8 0 -1 1 33 6
1532264897294959 2 3 12 -2 -5 -10 -11 15
1532264897339839 -2 5 40 2 3 -4 3 -11
1532264897414639 1 -5 -1 0 2 0 2 5
1532264897465502 -4 3 -17 2 0 3 -9 -44
1532264897489439 -1 -18 5 0 3 4 20 7
1532264897512378 0 8 19 6 -1 -5 1 -11
1532264897525343 -6 22 19 5 -4 -6 -3 -58
1532264897579199 3 -1 -22 -2 -1 -3 -29 28
1532264897617098 -7 -32 -42 -3 0 1 7 5
1532264897632058 11 24 26 6 5 6 0 22
1532264897646021 -10 3 33 6 -3 -10 -17 -13
1532264897705860 -13 -7 -4 -7 1 0 -1 -4
1532264897729797 -10 -22 -28 -5 -1 -1 3 23
1532264897765700 -3 -5 7 -3 -2 -2 -3 -2
1532264897774676 1 22 39 11 1 5 -1 -10
1532264897819556 1 11 21 -5 -1 0 2 10
1532264897872415 -5 12 -12 -3 -3 0 0 -9
1532264897885380 13 12 -4 2 -1 1 12 -7
1532264897932255 -2 11 2 -2 -2 -5 -9 1
1532264897969156 -1 8 5 6 0 8 -4 7
1532264897992095 0 2 1 -2 -10 -34 -6 3
1532264898028996 2 5 4 5 12 87 22 4
1532264898074874 -1 -3 -2 0 -3 -29 -9 -5
1532264898119753 0 -5 -4 5 5 0 -6 1
1532264898134714 -3 -3 -11 -9 -8 31 21 -1
1532264898155658 5 6 5 1 2 -30 -25 1
1532264898173610 -7 -8 -3 2 2 -18 14 -7
1532264898208517 12 7 5 -13 -1 4 6 -9
1532264898254394 14 -7 -2 0 0 18 -7 3
1532264898284313 4 -29 -43 31 -8 -19 -2 6
1532264898314240 1 -14 -3 -10 -4 1 76 1
1532264898337172 -26 20 44 66 16 5 -28 -20
1532264898352132 30 -4 -46 14 9 -57 -103 48
1532264898374091 -14 58 37 -38 6 62 -18 -3
1532264898397013 -10 -80 8 -5 -7 -7 20 -16
1532264898434911 1 43 -26 -19 -4 3 27 -15
1532264898480788 -12 28 -7 12 6 -17 85 -11
1532264898486772 -26 -11 -15 -4 -6 33 6 -17
1532264898517690 6 4 -20 -2 -6 -1 56 -3
1532264898565562 3 -36 53 7 6 -5 -7 14
1532264898600468 6 -12 11 0 6 17 7 -2
1532264898645348 11 20 53 19 -1 3 49 8
1532264898688234 -7 -31 54 -4 -9 33 49 2
1532264898704190 -2 10 40 13 3 2 -4 -16
1532264898718153 12 -2 55 5 0 56 -6 10
1532264898768020 9 0 10 16 1 -22 24 15
1532264898861770 -9 29 6 7 10 2 19 -13
1532264898969482 -1 16 1 -39 -11 -22 -19 0
1532264898981450 10 -12 -55 -7 13 18 -7 14
1532264899048271 6 11 6 -26 -13 2 4 6
1532264899094148 -2 -23 2 8 2 -35 25 0
1532264899154985 -3 -16 -2 6 3 -48 -15 4
1532264899214826 2 -9 -15 -2 -2 3 -8 0
1532264899303588 -5 83 71 -29 1 56 -5 -3
1532264899341487 -4 -25 67 2 9 -15 -6 1
1532264899433242 11 -75 46 80 31 2 8 8
1532264899837161 1 5 -43 4 7 -5 -3 -1
1532264899925924 -2 3 15 11 -6 -11 -2 0
1532264899964819 -26 18 44 11 6 29 6 4
1532264900031641 0 -8 -1 -14 -7 -13 -7 -4
1532264900152319 6 4 0 5 2 19 4 3
1532264900159300 3 -4 -55 -30 -8 -13 -6 -1
1532264900278980 7 -4 -8 0 -3 -1 0 1
1532264900324857 -7 -5 5 -12 -10 -4 -1 -1
1532264900352782 -1 3 8 -7 -4 -4 -1 -1
1532264900383700 3 5 6 5 2 4 2 3
1532264900416612 -2 0 12 -32 -5 3 -3 -2
1532264900438553 0 -7 -16 -6 -2 -1 -1 2
1532264900469470 2 6 0 0 -2 13 14 3
1532264900504377 -12 -5 -43 -43 -3 3 -2 1
1532264900526318 6 -5 -73 24 14 8 0 0
1532264900544270 6 0 -41 0 5 -1 -4 -1
1532264900581172 3 -1 -34 22 6 10 -10 -5
1532264900624057 -4 9 -33 -12 -7 -6 1 -2
1532264900634031 0 -4 26 1 8 -8 13 1
1532264900661968 3 4 38 -13 -2 -26 -7 6
1532264900706835 5 13 46 -7 -4 -1 -6 0
1532264900759694 -15 -2 -9 9 -1 -24 -14 7
1532264900819535 -2 2 6 27 6 -58 -22 2
1532264900886360 -3 5 -7 -7 -1 -11 -2 -3
1532264900970132 -2 12 102 -6 -13 -15 18 9
1532264900999063 2 -5 17 -1 -5 8 -20 2
1532264901020995 -8 -7 -5 -6 7 48 12 -4
1532264901058894 -4 -5 -54 -10 -3 -6 -1 -4
1532264901080835 5 2 -14 0 3 6 -7 -4
1532264901097790 1 7 6 -9 4 -10 13 5
1532264901134691 -3 12 71 -20 -15 -26 -8 -6
1532264901178575 3 -7 -98 8 -7 -7 13 5
1532264901201512 2 3 6 13 9 -1 11 7
1532264901223454 -2 -10 6 16 1 2 -6 0
1532264901261353 -3 -2 -2 -9 -7 -5 2 -1
1532264901298254 -2 7 0 -14 -3 1 -2 -3
1532264901351112 -8 2 -7 4 0 1 -1 -2
1532264901464812 -1 56 28 -17 0 -11 -2 -4
1532264901478771 -5 17 23 10 16 -4 -1 -5
1532264901500713 -6 -57 5 21 25 13 6 5
1532264901515672 8 -8 -3 10 15 -3 -1 -1
1532264901538611 4 23 32 24 22 -3 -2 0
1532264901562547 2 -8 -98 9 -1 -5 -1 0
1532264901575513 -2 -17 64 -4 -4 -4 -5 -4
1532264901607433 -4 6 -2 3 21 -2 0 -3
1532264901621390 -4 14 41 -7 -10 -4 -4 -4
1532264901643331 -5 -50 -14 -1 0 6 -1 0
1532264901681230 -2 4 -27 1 0 -5 -2 -3
1532264901695193 3 -6 1 1 1 5 2 -5
1532264901719128 1 -19 -11 -2 -2 0 -1 -1
1532264901741070 -4 -17 19 3 3 3 -2 0
1532264901809886 -2 -30 -8 -7 -2 3 -2 1
1532264901860750 7 11 12 11 4 -1 1 0
1532264901915603 -1 -4 19 14 10 7 2 0
1532264901929566 0 4 60 -3 1 -3 16 1
1532264901981427 16 -34 -128 3 -1 0 -1 -36
1532264902004365 25 -90 -85 -5 -1 6 35 83
1532264902018328 -14 23 -72 -6 -2 27 -9 3
1532264902041268 5 23 58 5 5 -24 10 -24
1532264902081161 -10 -6 -47 -31 -15 -9 -8 8
1532264902087144 -5 23 -2 51 12 0 -3 -5

1532264902132025 -10 -16 -23 -67 -23 -10 -8 -9
1532264902139006 4 33 90 32 11 -1 -6 -1
1532264902160947 -3 0 27 10 -3 0 -7 21
1532264902185880 -3 -29 -32 -9 -3 -79 -49 -44
1532264902198845 -1 51 35 -6 -5 73 -32 127
1532264902228766 -11 -6 -58 4 0 9 -22 -11
1532264902258686 -5 -2 -13 116 30 2 11 -21
1532264902281650 5 4 -40 -11 -18 2 17 -8
1532264902303565 6 -5 -2 -57 -5 -74 17 1
1532264902318526 0 12 5 -9 -1 0 15 -3
1532264902342462 5 1 25 10 7 17 19 0
1532264902363406 -2 5 29 8 6 16 0 -7
1532264902378366 -3 1 17 -21 -4 14 0 -4
1532264902416265 -9 -10 -20 11 10 4 1 -1
1532264902431225 5 3 13 -94 -38 -13 -5 2
1532264902461144 -2 -6 16 3 -2 2 -1 -1
1532264902486078 4 -7 -7 20 7 5 8 1
1532264902499043 -3 -9 5 10 10 10 3 -3
1532264902520984 -4 -7 0 6 7 6 1 -1
1532264902544920 1 48 2 -3 -1 4 0 0
1532264902557887 -4 -61 -8 2 -2 4 -2 -20
1532264902580825 -1 28 23 7 5 -6 -2 -19
1532264902604761 -7 23 -12 4 5 1 0 17
1532264902649640 -4 -37 -17 -11 -10 -6 -2 3
1532264902724441 4 -10 -19 -16 -4 -4 0 -8
1532264902747379 -9 41 -20 2 3 4 -3 -18
1532264902784280 18 0 9 -1 -2 -1 -2 32
1532264902820184 2 -4 20 2 0 1 0 33
1532264903046579 -4 -15 2 8 2 -13 0 -5
1532264903204157 -5 -6 6 -7 20 14 2 -2
1532264903227096 2 3 9 7 0 -9 0 2
1532264903294915 3 7 -4 -12 22 -10 -1 6
1532264903369715 -5 8 -19 -11 -6 -4 -3 1
1532264903459475 -5 -3 -26 7 7 4 -1 -1
1532264903482413 2 2 2 -2 -1 -4 -1 -1
1532264903519315 12 -3 -28 9 -3 3 -2 1
1532264903594115 -35 51 83 16 6 0 3 -7
1532264903660936 15 36 7 -1 2 31 -2 1
1532264903720775 3 16 -14 1 5 -2 0 6
1532264903803555 11 11 41 5 -2 -7 -3 1
1532264903849432 0 18 5 9 3 0 -5 -1
1532264903946173 5 -4 12 2 -2 4 3 26
1532264903964126 -20 4 -6 7 0 0 -7 -64
1532264904035939 0 31 -56 -2 -4 -6 -11 -31
1532264904277300 -5 11 16 -1 2 -2 -8 18
1532264904329149 8 -8 -23 0 -4 -3 -10 34
1532264904411928 2 12 0 -1 -1 -3 -9 -19
1532264904471785 -1 11 -13 1 2 1 0 -21
1532264904492712 4 -30 -4 -1 0 -1 -1 7
1532264904583469 -3 6 -17 -4 1 2 3 10
1532264904606408 -3 -4 -9 1 1 -3 -5 -18
1532264904629346 -1 -2 21 0 0 2 -1 -16
1532264904697166 -2 11 4 4 0 -4 0 3
1532264904726087 12 10 6 2 0 3 4 35
1532264904762989 -3 3 -20 -5 -2 -1 5 24
1532264904785928 1 9 7 0 -1 2 -2 -3
1532264904816845 -1 2 -1 2 0 -3 -6 -18
1532264904869703 3 1 4 2 2 6 6 3
1532264904965464 0 27 9 -7 1 20 19 2
1532264905085128 -7 -25 -6 -2 7 -9 -14 -18
1532264905109063 3 2 -2 -4 -9 -1 26 -5
1532264905145981 -8 -1 -18 10 3 -13 36 -7
1532264905169901 -26 -1 -11 -4 -7 -14 -16 -13
1532264905191842 26 3 95 -5 -8 2 22 11
1532264905205805 -4 16 21 -60 -13 -9 -72 -9
1532264905229741 12 12 47 10 -2 -22 -71 7
1532264905251681 4 1 7 12 7 29 126 20
1532264905281602 7 -12 -17 20 12 62 -15 -9
1532264905296562 -4 -31 6 14 -1 -33 -78 -4
1532264905365378 -2 22 -28 -2 -2 -21 -32 1
1532264905374370 9 -5 15 9 0 25 -71 -2
1532264905393304 -14 -18 -35 -15 -12 -21 -62 -12
1532264905416242 3 -12 27 5 2 1 55 -6
1532264905441187 1 -6 6 -5 4 -8 7 -7
1532264905454141 -6 -26 0 35 10 -10 17 15
1532264905479074 -4 22 -54 -4 6 23 -13 3
1532264905513980 3 7 12 1 3 23 19 4
1532264905565842 1 -4 10 -7 5 27 -7 1
1532264905588781 4 13 -12 2 1 -19 -20 -1
1532264905648621 -1 -7 -25 -18 -5 1 -23 -5
1532264905678541 3 -6 10 14 7 15 0 -1
1532264905702476 -1 -17 -4 -2 -7 -39 59 19
1532264905740386 -17 18 -21 -14 0 9 46 6
1532264905762317 -7 -14 2 -1 8 43 -4 -4
1532264905814178 5 -18 -5 -10 -5 -51 -59 -2
1532264905875015 8 -16 10 9 8 107 58 25
1532264905919895 -6 -39 17 72 16 27 3 2
1532264905965773 1 63 7 -15 -3 -41 40 -3
1532264905977741 -2 -2 0 -7 2 3 0 0
1532264906008657 10 1 -1 -13 0 42 47 11
1532264906032593 0 -11 -8 -4 -6 -20 -24 1
1532264906068498 -2 1 -2 2 4 -16 6 3
1532264906084455 -3 -2 -2 -3 -2 -6 9 2
1532264906114375 -1 -3 -3 0 1 13 5 0
1532264906152274 -4 -8 0 -1 -1 -10 0 0
1532264906182194 0 2 -1 0 0 7 5 1
1532264906205133 1 -3 12 4 5 6 5 0
1532264906242034 2 6 10 -3 4 6 8 3
1532264906258995 -2 90 14 -5 -7 -10 -3 -1
1532264906295890 1 -91 -19 6 6 -2 -2 -1
1532264906301874 1 -25 -35 6 12 14 2 -1
1532264906324813 -4 32 23 7 0 -7 2 -1
1532264906354732 -4 6 21 -37 -28 -5 -3 -3
1532264906384653 -4 18 35 22 8 3 -7 -5
1532264906557194 -1 12 -3 18 -16 -16 -21 -5
1532264906609052 -1 -1 16 -11 -14 19 2 -3
1532264906721751 -2 8 52 -1 -8 -18 -6 -2
1532264906751671 3 -3 -19 10 9 0 1 2
1532264906810513 0 5 -26 5 -7 -6 -4 -4
1532264906848412 -2 7 15 -3 -9 -7 -3 -4
1532264906890301 -4 -3 8 1 3 2 1 -1
1532264906900274 2 2 18 -4 -2 -1 -1 -1
1532264906938172 3 -9 -10 -2 0 3 0 0
1532264906977068 11 1 10 2 -3 -5 -3 -4
1532264907036908 -9 6 -10 0 4 0 2 3
1532264907073809 -1 -7 2 -8 1 12 -1 -2
1532264907089767 -18 31 52 -5 -2 -4 2 0
1532264907125671 4 0 2 3 0 -18 -4 0
1532264907172545 0 0 0 2 -2 -5 -3 0
1532264907194487 -5 3 27 3 -1 -20 -4 1
1532264907216428 -2 3 3 -3 0 -16 -1 5
1532264907277265 1 1 -7 2 4 4 1 1
1532264907316161 -3 -22 -80 27 16 7 1 1
1532264907351067 -3 10 38 -26 -7 -11 -12 -7
1532264907367026 0 9 29 -34 -2 -1 -5 -1
1532264907419884 -8 -10 -53 2 11 -25 -16 -7
1532264907458781 2 12 12 -7 -7 52 7 1
1532264907479725 9 7 -91 -4 -4 -31 3 4
1532264907510641 3 5 -36 -3 -9 -2 -2 -3
1532264907539564 -1 -16 -25 -43 -14 -18 -9 11
1532264907568486 -4 -10 17 -51 -4 -19 -2 -2
1532264907607386 10 -1 98 -25 -2 -23 -11 0
1532264907621345 -1 -2 61 38 11 40 2 -6
1532264907659244 -20 3 29 -8 8 10 6 -1
1532264907755985 9 1 -19 7 4 22 16 2
1532264907831782 3 -5 5 -1 1 26 -6 -1
1532264907884642 5 -2 -18 -3 -9 -7 -6 -3
1532264908033244 -6 -9 -63 -12 2 -12 2 2
1532264908146941 1 -5 -24 -2 2 7 2 10
1532264908175863 -4 1 22 12 9 19 6 0
1532264908311500 7 -6 -37 2 -1 0 -2 2
1532264908401260 -8 -30 -4 -1 -1 0 -1 -5
1532264908461100 -1 -56 15 -5 -2 3 1 -3
1532264908498999 4 -12 72 -2 2 3 0 2
1532264908514956 -2 -21 -107 4 4 2 1 -2
1532264908535900 -10 -4 -70 -1 0 -2 -3 -1
1532264908558839 1 19 3 6 2 -4 -2 -1
1532264908581777 4 -18 -43 -1 -3 -3 2 0
1532264908596737 3 47 -5 -3 -2 -3 -3 0
1532264908618679 -5 -13 -7 4 1 2 1 -1
1532264908643612 -4 9 4 10 5 3 1 0
1532264908656577 1 -10 29 -3 -4 -5 -6 -3
1532264908678518 4 64 7 -3 -6 -1 -2 -1
1532264908740353 -3 -22 19 -13 -3 1 -2 0
1532264908769276 -2 -14 57 10 -1 0 -1 -4
1532264908920870 -6 -115 -128 -10 1 7 -3 -10

1532264908994673 -4 0 -34 -10 -3 0 -2 59
1532264909121580 -10 -28 13 -24 -6 10 9 9
1532264909255222 -3 -2 -8 -47 -7 -3 -2 -4
1532264909346993 -1 1 16 4 -1 2 2 -2
1532264909421777 1 14 15 4 6 1 0 2
1532264909564396 -1 18 19 5 3 0 0 -6
1532264909698039 -2 4 36 4 1 -1 1 0
1532264909757879 11 1 -11 0 0 -1 -2 13
1532264909916454 0 11 6 9 14 -7 0 -2
1532264910000231 -1 -5 -23 46 18 3 3 1
1532264910058076 -2 -1 53 -2 -38 -4 -5 -1
1532264910158814 -1 -2 71 19 20 -4 0 2
1532264910164791 0 -2 -2 9 7 -1 9 4
1532264910208673 4 -5 -39 -9 -7 7 2 2
1532264910253553 3 -6 58 -17 1 -1 2 -2
1532264910291452 -6 2 -6 2 -5 2 4 -5
1532264910307410 1 2 -18 1 -2 -15 -7 -1
1532264910329350 -1 -6 -8 -5 -6 -2 -1 -1
1532264910382209 -1 -6 -4 3 4 2 -1 0
1532264910442049 -4 10 17 3 3 8 2 -1
1532264910456012 -1 -6 -43 7 1 -6 -4 0
1532264910508870 -13 0 -10 7 3 1 1 -2
1532264910608603 9 -4 9 -11 -5 0 1 4
1532264910727286 3 -2 -27 -3 -2 0 0 -2
1532264910913787 -9 -5 -2 -10 -4 -4 -1 -4
1532264911147163 1 -11 -3 2 4 2 -6 -47
1532264911177084 8 15 5 2 -1 1 4 0
1532264911266843 6 -3 -15 3 -1 1 -1 -15
1532264911304742 -13 10 11 0 4 0 -3 -42
1532264911363589 1 16 -23 38 0 0 -1 4
1532264911378545 5 6 0 6 -4 1 1 5
1532264911430405 2 3 10 -7 0 0 4 -18
1532264911490251 8 27 13 10 1 -2 -5 8
1532264911508198 -9 -5 -1 -2 -3 0 -3 2
1532264911543104 -2 -7 -45 -1 2 1 5 3
1532264911588982 -9 -5 -4 -4 -3 -4 -1 7
1532264911602956 5 -14 5 -1 1 0 0 -2
1532264911649819 -3 17 18 2 -1 0 2 11
1532264911663782 -2 5 5 -1 0 0 -2 -4
1532264911730604 1 -2 -5 -2 -4 -1 0 3
1532264911748556 -2 3 0 0 -1 -4 0 2
1532264911783462 1 4 3 -2 -2 -4 0 -1
1532264911807398 -1 4 4 -7 11 2 -6 0
1532264911829339 -5 -5 -3 -12 3 5 0 -4
1532264911843302 -3 -4 4 2 40 -28 17 -11
1532264911867252 1 5 1 -19 8 8 9 3
1532264911889179 -1 1 5 23 -9 33 -35 2
1532264911920097 2 0 -3 -4 2 -26 11 5
1532264911949019 6 5 8 2 -22 8 -13 3
1532264911971957 15 4 4 -3 -89 -62 -51 6
1532264912009856 4 -6 17 -16 3 -20 19 16
1532264912023826 6 -10 7 7 127 43 -38 22
1532264912031811 4 21 44 33 75 45 -82 -6
1532264912052742 -3 -15 -79 -22 -46 -34 -69 -5
1532264912086656 -3 -7 -65 3 -23 13 -16 -7
1532264912093633 14 44 36 29 -33 -40 -93 10
1532264912113591 -2 12 41 -12 -31 9 -36 -5
1532264912131531 -1 -55 20 0 -32 -15 110 2
1532264912161452 4 21 -40 -2 9 9 -7 -9
1532264912180418 -2 -88 -8 -28 -41 -45 127 21
1532264912227275 2 44 -86 3 5 33 46 -12
1532264912263179 -3 36 17 30 6 -30 -105 -9
1532264912278139 8 6 -30 0 5 9 -37 5
1532264912331995 -5 -18 32 5 -6 -9 1 3
1532264912414774 -5 18 -22 -9 2 -20 -57 -9
1532264912436715 6 -18 34 -3 10 -27 50 23
1532264912525478 -2 -2 -24 1 -10 54 -7 -2
1532264912571355 4 2 -46 7 10 -34 27 6
1532264912610251 10 -11 8 -1 -15 -104 1 5
1532264912632193 1 -7 -26 -4 2 -11 -38 19
1532264912694026 4 104 11 0 -6 -48 37 -6
1532264912699014 6 0 -1 -18 -10 -33 -6 0
1532264912720955 1 -23 -18 -14 -11 0 -48 -6
1532264912751872 3 12 7 4 1 -9 16 1
1532264912789771 -1 0 -11 -1 -1 -18 25 5
1532264912811712 0 29 7 1 -4 -3 -24 -5
1532264912825674 1 -5 -5 -4 -12 -26 -17 -2
1532264912856593 -4 71 -3 -6 -4 -8 16 -1
1532264912918427 -3 -45 -17 -8 -5 -2 1 -1
1532264912932389 -5 -21 -19 -7 5 -4 -5 -3
1532264912977269 -1 121 53 16 3 8 2 0
1532264912992230 -8 -114 -86 5 5 -11 1 -4
1532264913068027 -2 16 -50 6 21 -11 -20 -6
1532264913096950 -3 7 11 -1 -30 -82 -4 -3
1532264913173744 18 25 28 -32 5 26 3 -1
1532264913208650 -31 -12 3 -16 -16 81 17 -6
1532264913291430 -6 -8 25 12 14 -3 4 8
1532264913337307 -1 5 -32 0 -10 -10 -4 3
1532264913352267 -6 -2 37 3 8 28 1 -8
1532264913434048 -9 -12 49 -1 -2 -4 -3 -6
1532264913471947 -1 -6 29 -5 -2 -4 -5 8
1532264913523808 -12 6 -4 5 3 7 -3 -13
1532264913548741 0 -4 -18 -2 2 2 -1 6
1532264913560709 -5 8 -14 3 -3 -5 -6 -2
1532264913637504 9 16 24 -5 -1 -4 -1 2
1532264913690379 10 -11 -6 -5 3 5 6 4
1532264913712304 15 -6 22 -3 10 2 0 2
1532264913764165 -11 -1 -11 -2 -8 15 -2 -7
1532264913803061 4 -12 -44 -11 2 18 4 2
1532264913812037 7 -3 -22 9 12 -9 -3 -1
1532264913823007 0 1 31 3 -3 -4 2 0
1532264913861904 0 -4 -12 -14 -3 15 3 1
1532264913901797 -4 -5 -10 -3 -5 -11 0 -3
1532264913927728 4 4 -64 27 10 -23 0 0
1532264913951664 2 6 -46 -27 -19 -6 -1 1
1532264914036438 -2 2 -25 15 -2 -76 -1 1
1532264914041424 -9 3 36 10 -8 25 3 0
1532264914080329 10 -2 84 14 -9 -128 -13 -5
1532264914108245 8 -11 6 -10 0 -27 20 4
1532264914140161 0 2 7 -24 -4 -43 -20 5
1532264914179060 -9 7 4 -22 -18 -56 -3 3
1532264914194016 4 -4 -77 -34 4 31 4 -5
1532264914250864 -2 -8 6 45 9 -4 5 1
1532264914328656 -4 4 -12 -12 -22 -81 -2 1
1532264914357584 -1 1 4 6 3 24 0 -2
1532264914409440 -13 -1 11 -6 1 60 4 -3
1532264914453323 3 -5 -52 -2 -3 -17 -11 2
1532264914507178 -3 14 3 -8 0 27 14 -1
1532264914582975 -1 13 24 6 -6 -58 -13 -1
1532264914627861 3 2 23 4 2 -15 -13 1
1532264914671738 -6 -5 -6 1 -1 -10 -3 -3
1532264914730581 -4 18 11 -3 -5 -3 0 -2
1532264914784437 -5 -29 -20 -15 -33 16 -14 -1
1532264914814357 0 -6 -15 -42 0 2 -7 -6
1532264914861232 -5 -21 -41 -12 14 0 -2 1
1532264914896138 -2 -14 -4 -11 -5 2 -2 -1
1532264914910100 2 24 -36 -10 3 1 -1 -2
1532264914955979 -17 12 3 14 -5 -4 -1 -4
1532264914986896 1 -11 57 -24 -6 3 -1 -1
1532264915000858 3 22 57 10 5 20 38 5
1532264915024796 -1 -2 10 -3 2 6 19 4
1532264915061696 5 27 53 15 0 -5 -11 -2
1532264915077654 3 1 -17 -12 -4 1 2 0
1532264915123530 -1 10 11 3 -1 -3 -2 0
1532264915152453 1 7 10 45 14 3 0 2
1532264915173397 -5 -22 5 10 0 1 -3 -5
1532264915288096 -5 17 -9 -6 -6 -10 -15 -34
1532264915320005 -10 -7 22 -48 -18 11 1 -11

1532264915370882 -1 -11 13 8 1 2 -7 -13
1532264915475611 6 70 47 -37 -12 9 -21 -25
1532264915496555 -1 -20 0 3 -6 18 -5 -5
1532264915519494 -1 12 42 16 -5 -5 -2 -10
1532264915565371 0 8 74 -35 -15 1 -4 2
1532264915571355 -9 5 -9 -22 -9 -4 -6 -4
1532264915594294 -4 -2 15 35 0 3 -1 -5
1532264915616235 14 -11 -10 -23 -6 0 -3 -1
1532264915641169 1 -3 12 0 -5 1 0 2
1532264915654134 1 2 12 6 21 5 1 0
1532264915692032 -3 -21 12 10 0 0 -1 -2
1532264915699013 -2 14 3 11 0 0 2 0
1532264915735915 -2 15 -6 6 -9 -1 -3 0
1532264915759851 -2 12 22 -5 -7 -3 0 4
1532264915795755 -4 -13 -20 12 -1 0 0 -6
1532264915856592 -6 -12 4 -8 -12 -3 0 18
1532264915893493 7 1 1 -3 -2 -18 -5 -46
1532264915939371 0 -3 -10 -1 0 2 -1 -3
1532264915999211 -1 1 10 0 -1 2 0 5
1532264916095952 1 0 -2 0 0 0 1 0
1532264916141830 -1 3 0 2 0 -2 2 -1
1532264916194688 -1 -4 -2 -2 -2 -1 -1 0
1532264916322346 5 13 39 20 4 7 -1 0
1532264916361242 -6 -11 1 0 14 19 4 -3
1532264916455989 -2 1 30 -23 -20 46 0 -3
1532264916478928 -1 2 -21 -21 -40 2 -2 0
1532264916507851 2 12 28 -7 -24 -26 -5 -2
1532264916530790 -3 -8 -4 -3 14 4 2 0
1532264916590630 1 -5 23 5 3 11 3 1
1532264916628527 0 6 20 9 2 -9 -6 4
1532264916650469 5 4 11 -4 -5 -11 -1 1
1532264916714308 -7 -13 -34 -1 2 14 0 -5
1532264916718288 -6 -1 -31 -3 -1 -26 1 1
1532264916749206 6 -5 -25 -3 -2 -8 0 11
1532264916779125 5 -11 -34 -9 -5 5 -6 -6
1532264916802064 12 -15 -31 4 -2 18 2 -2
1532264916831984 1 0 33 4 -2 1 -5 -6
1532264916869883 -7 1 -37 -18 -4 -2 -1 -4
1532264916921744 -5 0 11 12 8 1 -8 -8
1532264917027461 6 -7 -24 -4 4 -15 -3 -3
1532264917055387 11 -14 -35 -6 -8 -2 1 -6
1532264917108245 -5 21 13 1 0 2 -3 -5
1532264917130187 -5 10 15 9 4 7 6 8
1532264917170080 -2 -1 19 2 -1 -5 -1 -1
1532264917176064 -10 0 -7 -4 -2 0 1 -2
1532264917334640 -6 -3 1 -3 -2 3 2 1
1532264917364560 -6 1 5 -1 -3 -31 -79 5
1532264917378522 4 3 7 -1 0 0 11 5
1532264917401461 5 7 -10 -2 2 11 18 -3
1532264917447338 -10 -1 6 2 1 -10 -23 -52
1532264917484240 10 25 7 2 4 5 9 12
1532264917507179 -1 0 24 1 1 -3 1 13
1532264917574997 1 -3 13 4 1 -3 -1 -9
1532264917604917 -1 1 -3 1 0 -7 -21 2
1532264917677721 11 4 -6 0 -2 -5 5 62
1532264917798400 7 8 -5 -1 0 -1 -2 -9
1532264917844277 6 5 7 2 0 3 -1 25
1532264917882176 -2 -2 6 1 1 0 -7 -18
1532264917904117 -2 -4 -11 -1 0 1 4 -4
1532264917948000 -2 3 5 0 1 -1 -1 0
1532264917977920 -11 3 -2 -2 -2 -2 -8 5
1532264918067679 -2 -2 -3 -3 -2 4 7 -7
1532264918144474 4 5 2 13 -4 -12 2 1
1532264918181382 0 -1 4 -4 5 -11 -34 -4
1532264918227253 1 0 -1 -1 -63 -2 -8 -4
1532264918240219 -2 -7 -5 3 -26 -11 -18 2
1532264918301055 -9 1 3 -7 -2 -34 -75 -22
1532264918323995 19 34 32 0 -21 1 12 15
1532264918360895 -2 5 16 -5 -10 4 47 -8
1532264918375856 -14 -26 -44 -13 8 0 -18 -13
1532264918414752 5 0 16 -12 11 1 -25 21
1532264918420735 -17 -7 -72 -10 10 8 17 -4
1532264918444671 1 10 -24 30 12 5 12 1
1532264918474592 1 7 101 -22 -2 5 81 23
1532264918504511 -3 18 -17 12 8 12 0 -17
1532264918548394 -1 8 -8 -2 -1 -5 -83 4
1532264918566346 7 -4 32 -1 8 10 36 0
1532264918595269 7 26 5 6 11 15 -78 -12
1532264918617210 1 -9 34 -1 -4 -6 38 1
1532264918671066 -1 27 2 -12 -8 11 56 -1
1532264918684032 3 15 -65 -11 -3 26 90 13
1532264918714949 -1 -8 10 2 -2 -10 -1 -4
1532264918729909 -5 6 37 -5 -9 -6 28 -10
1532264918782767 -5 30 31 1 -2 -5 1 2
1532264918841618 2 -9 -1 3 6 -18 -32 5
1532264918863551 -7 -11 -4 2 -2 17 -19 -3
1532264918909429 0 3 -4 0 7 -21 -15 2
1532264918978245 -6 5 -3 4 -8 -2 -10 -7
1532264919007168 3 11 14 -12 -3 -30 -72 -12
1532264919035092 -1 6 16 -5 -2 20 -14 -6
1532264919060025 0 -26 2 -41 -18 -54 0 2
1532264919111887 -6 -54 -14 6 1 0 22 -4
1532264919186687 0 -2 4 -2 3 -7 -37 -2
1532264919209626 -1 19 -5 -7 -4 -4 11 -4
1532264919223588 3 -4 -7 3 4 29 23 3
1532264919246527 4 1 8 6 3 -9 5 1
1532264919269466 0 -4 0 1 0 2 1 -3
1532264919314346 -2 -28 -6 -4 -3 -6 1 0
1532264919337285 1 57 22 2 13 -2 3 -4
1532264919367204 -1 -74 -30 0 15 4 1 2
1532264919389146 -4 -5 -10 -6 -11 -7 -3 -5
1532264919403108 -7 100 40 -14 -10 -9 -5 -6
1532264919448986 4 -93 -6 -10 8 7 4 3
1532264919525780 2 -54 72 47 -3 -6 -4 -2
1532264919546724 12 39 17 59 17 -6 -8 2
1532264919576645 7 36 -21 22 15 -3 3 0
1532264919592601 -6 -4 -50 -3 -22 -6 -3 1
1532264919629503 -8 5 9 -2 10 4 1 6
1532264919643466 -4 -8 103 7 17 2 1 -2
1532264919689342 -2 -8 21 11 -23 -3 -8 5
1532264919703305 -4 3 5 -2 -7 -5 1 0
1532264919763146 4 10 -3 15 -6 -3 1 -8
1532264919811018 1 2 -14 22 20 2 2 3
1532264919869860 1 -2 1 10 7 2 -5 2
1532264919982559 -10 -8 -41 5 5 1 -1 2
1532264920048383 3 11 16 -17 -4 -3 -2 0
1532264920079300 -9 0 -17 1 2 2 1 -6
1532264920109220 0 6 4 5 -1 -2 0 4
1532264920132159 0 -22 -5 -19 -7 -5 -2 -1
1532264920191999 6 4 18 -10 -4 -1 -2 -2
1532264920221919 -1 -3 4 -6 -3 -1 -2 3
1532264920261826 -2 33 113 -7 -5 -3 -2 -2
1532264920296719 -1 -8 -44 -1 0 2 -1 -2
1532264920334618 -1 7 34 -8 0 -2 0 -2
1532264920371519 12 -17 -12 -9 -6 0 -4 -2
1532264920394458 7 -10 9 4 -4 -1 -3 -5
1532264920432356 -2 -7 11 -5 -3 -1 0 0
1532264920445322 -3 -3 -56 -8 5 2 -1 0
1532264920484217 -5 -2 -24 -4 -2 -1 0 2
1532264920499177 -8 5 -17 5 3 1 -2 -1
1532264920529098 -1 7 27 0 -3 -1 -1 -1
1532264920553034 -5 -6 -22 -21 -4 2 1 0
1532264920565999 -1 -3 -3 20 6 3 2 0
1532264920596916 -2 -8 -5 -16 1 5 1 2
1532264920612873 5 10 38 21 -1 0 1 3
1532264920625839 -3 -6 -11 -5 1 -3 -2 4
1532264920656769 -2 11 15 -5 5 1 1 -4
1532264920670719 2 -2 12 3 -1 1 -1 -13
1532264920731556 -3 -11 -18 -8 -5 0 -3 1
1532264920745519 3 5 45 -3 3 5 -2 2
1532264920768458 0 8 63 -12 6 -11 -3 -11
1532264920807376 -1 -5 18 -6 -3 -27 1 14
1532264920828297 0 5 -59 -4 -5 14 4 0
1532264920854229 2 -3 -10 2 -5 -3 -1 4
1532264920890136 -3 -6 -12 1 -4 10 -1 -3
1532264920921049 -1 13 37 -8 -4 -2 -4 -1
1532264920941994 0 13 2 -53 -9 6 3 -1
1532264921018788 -1 -8 12 16 7 -10 -4 11
1532264921076633 0 3 6 -26 -13 7 -1 1
1532264921151433 2 -6 -75 11 7 -5 2 -1
1532264921190330 -3 -5 1 10 -4 -3 -1 -3
1532264921204292 -4 -2 1 -10 -5 -2 -2 -2
1532264921302031 0 -2 25 12 3 0 -2 0
1532264921355886 -1 4 22 -4 3 0 -2 -2
1532264921421710 -1 1 0 -11 -3 -2 -1 0
1532264921594250 4 14 -42 0 2 3 2 2
1532264921608212 -3 -1 -4 -9 0 2 0 -3
1532264921631151 -1 -16 -8 7 -1 0 -4 -1
1532264921654089 6 -6 121 2 -1 -6 -5 -2
1532264921668052 5 17 -98 -3 -4 0 0 2
1532264921699017 7 17 17 -4 0 3 1 3
1532264921713978 -1 -14 5 1 -1 -1 -3 0
1532264921744895 -5 -9 -27 7 1 0 1 0
1532264921773817 -8 -12 -10 6 7 2 1 -2
1532264921787780 1 13 31 -6 -5 -1 -1 0
1532264921818697 2 10 -44 0 2 2 1 1
1532264921833658 1 20 23 -23 -7 -5 -4 -1
1532264921857594 -2 -25 -97 -11 -2 -7 -1 -2
1532264921893498 -1 8 -46 -3 -6 0 0 0
1532264921917433 2 30 36 11 0 1 -3 1
1532264921953337 8 -26 -84 1 6 -13 7 54
1532264922000213 -8 -52 -27 7 8 -15 2 40
1532264922014175 -18 57 127 -39 -18 -12 -12 -28
1532264922053071 13 22 -79 -5 -5 1 -4 -22
1532264922059055 -12 -10 -37 32 3 -1 0 6

1532264922074015 -6 14 56 -14 -8 -1 -5 -23
1532264922112911 -12 -50 24 17 6 5 -6 -26
1532264922157795 -69 -59 67 20 12 -36 -89 -128
1532264922163776 14 -25 -92 6 3 16 24 14
1532264922186713 9 37 69 -14 -10 2 2 31
1532264922225609 6 -21 -66 37 14 11 7 23
1532264922233588 15 20 1 -38 -5 0 11 4
1532264922253535 6 6 95 48 10 0 3 10
1532264922277471 1 -13 -24 -32 0 4 -1 4
1532264922291437 2 -3 -17 -7 -14 -3 0 -2
1532264922313375 -4 8 -39 -13 -21 -5 -5 0
1532264922337311 3 0 -3 -54 -14 -3 5 0
1532264922374229 10 13 7 49 28 5 3 4
1532264922397151 3 9 18 -20 -10 -1 2 4
1532264922410116 9 -8 0 -19 -3 -1 -1 -1
1532264922434052 3 8 4 13 5 -1 0 1
1532264922456992 -6 17 7 -18 -12 1 0 -1
1532264922470953 -3 -20 -20 -5 -3 -2 -2 -2
1532264922493892 -3 -22 -50 -4 7 4 0 -1
1532264922516831 14 32 25 -6 -10 -10 3 2
1532264922530793 1 -21 -5 3 2 -3 -3 -3
1532264922590644 -7 8 9 4 -5 0 2 -1
1532264922613572 -6 -5 -46 -7 1 4 -1 -58
1532264922673412 7 20 9 -1 5 3 1 21
1532264922697348 2 9 12 3 0 -1 2 -7
1532264922741230 -1 -7 -2 -1 -4 -2 0 2
1532264922770154 10 12 -8 0 -3 0 -2 8
1532264922817028 1 -25 -4 -5 0 1 -1 6
1532264922876868 -1 -4 9 5 2 -1 -1 2
1532264922959647 -1 -6 -4 -11 -8 -6 -2 -3
1532264922996548 1 -1 -15 -6 9 -9 -2 -2
1532264923057386 -8 -22 -28 17 21 -8 -3 -5
1532264923093289 3 -3 1 12 22 4 1 1
1532264923130191 6 9 -2 62 71 24 8 5
1532264923148143 -4 -8 12 -26 -32 -3 -4 -2
1532264923184047 3 19 39 6 -15 5 0 -1
1532264923236905 -11 -1 -2 -1 -4 -21 -3 -2
1532264923287769 9 3 -3 2 -5 -1 -2 0
1532264923335641 -6 -2 -5 -2 4 5 0 2
1532264923409444 5 8 9 -6 -3 -4 -2 -6
1532264923423406 5 21 44 -5 2 27 1 -1
1532264923446345 4 8 13 7 4 -3 1 -2
1532264923528127 -4 -6 -5 -4 -3 2 0 0
1532264923582982 -1 4 30 8 4 -1 -2 1
1532264923632846 -17 7 -71 12 0 1 -1 1
1532264923679721 2 6 -7 -2 -6 8 -6 -5
1532264923850265 0 -16 -17 5 -5 -1 -4 -4
1532264923904120 -4 9 34 -7 1 2 0 -2
1532264923964958 1 -4 -2 -3 -5 -2 -1 8
1532264923992884 -7 -13 16 2 -3 -2 -1 -2
1532264924106579 5 -4 -25 3 8 -9 8 1
1532264924242217 11 6 6 -3 -1 4 1 -18
1532264924331986 -17 3 20 7 3 0 -19 -66
1532264924579315 8 -4 -3 -2 -1 -2 3 46
1532264924744873 1 2 5 0 6 19 6 -3
1532264924826653 0 -5 -6 8 5 4 14 1
1532264924984233 -1 5 -1 -30 4 2 40 -2
1532264925126851 -3 15 48 -9 27 11 60 -17
1532264925177715 3 37 -2 1 5 -23 -107 1
1532264925238552 -5 38 10 -4 6 -9 89 23
1532264925307369 2 -6 -31 12 7 -11 7 -7
1532264925343273 10 -16 18 3 2 -12 -9 5
1532264925367209 0 -3 -8 -6 3 14 -23 -17
1532264925569667 0 -19 -2 3 2 9 -22 2
1532264925669401 -2 -15 7 -15 -2 56 -50 -7
1532264925688350 11 -19 6 18 -4 -120 20 17
1532264925734227 4 21 4 12 -1 -70 -4 2
1532264925794067 1 16 -6 -2 0 -5 -19 0
1532264925817006 -8 9 -10 -6 5 67 14 4
1532264925845937 2 -21 2 9 -6 -44 -56 -15
1532264925920729 1 -9 1 0 -1 13 -1 1
1532264925943667 -2 -22 0 4 7 14 -13 -1
1532264925989545 3 -7 5 2 -4 0 8 -1
1532264926027454 -1 -9 -18 -4 -7 -2 -2 -1
1532264926049384 -3 -41 18 -1 -6 -10 1 -2
1532264926087283 4 74 20 10 0 2 5 -1
1532264926111219 2 12 -1 29 6 0 3 3
1532264926124184 0 78 27 2 -4 0 4 -1
1532264926147124 -3 -79 15 -10 -7 -3 -1 -1
1532264926206962 1 9 54 -29 4 -2 1 0
1532264926220926 -10 20 -65 -51 -21 -2 1 -4
1532264926267800 -2 18 -100 -5 -4 -8 -4 -1
1532264926340605 1 5 -28 -4 10 4 4 1
1532264926365539 1 6 15 9 -1 3 -1 -1
1532264926400446 0 8 -20 44 18 0 -1 2
1532264926469261 -1 3 -28 -22 -12 -5 -1 -3
1532264926507185 4 8 4 -11 4 1 1 1
1532264926567000 -4 -15 -31 -11 -9 -3 -1 -1
1532264926589945 -1 -3 -15 6 14 0 2 -1
1532264926665736 3 7 34 -5 9 9 1 1
1532264926686680 2 1 11 8 2 -3 -2 13
1532264926716600 -3 4 4 -7 -5 -4 0 -2
1532264926769459 1 -7 -10 -7 -3 0 -1 1
1532264926814338 -10 -3 -14 6 0 -1 -2 -2
1532264926852237 1 13 -1 4 -4 0 -1 -2
1532264926905095 8 -16 -10 -1 3 1 -2 -3
1532264926963938 -4 -5 0 -2 1 12 1 1
1532264927039736 -12 6 -11 -5 -2 0 1 -1
1532264927084615 -4 -2 12 8 0 0 1 0
1532264927129496 0 1 -14 21 1 2 2 3
1532264927146454 4 -7 -50 2 -4 -1 -1 -3
1532264927167395 -1 -3 -23 0 1 0 -1 -2
1532264927189336 0 2 57 4 1 -1 0 0
1532264927219256 0 1 19 6 0 1 -1 2
1532264927250173 0 1 -7 -11 0 2 1 -2
1532264927272115 -2 -6 -25 -5 -1 -2 2 1
1532264927286076 -4 -5 -51 -10 -10 -5 -4 -6
1532264927345917 -2 2 32 10 -2 -7 -7 -3
1532264927382819 -2 -7 2 -4 -2 1 0 2
1532264927420717 0 4 79 8 0 3 -3 -4
1532264927483557 0 -9 -67 -6 -4 -19 -3 -1
1532264927490530 -2 -5 24 -1 0 -1 1 0
1532264927511474 -3 2 21 -1 -6 0 -3 4
1532264927536424 1 -1 -1 -11 -3 -6 -20 -10
1532264927571314 -1 8 87 24 22 10 16 6
1532264927603229 4 -9 -26 -13 -11 2 4 18
1532264927608216 -10 0 -26 -13 1 -27 -39 -10
1532264927632151 -1 9 62 -26 -3 1 2 6
1532264927677031 0 -6 -25 3 -1 5 5 -2
1532264927698973 3 7 20 16 13 3 3 -1
1532264927713933 4 -16 -18 3 0 3 1 -1
1532264927750834 1 -6 -73 -7 -5 -3 9 2
1532264927765795 1 -4 8 -5 -3 -5 5 4
1532264927788733 3 -1 36 11 25 3 10 -1
1532264927811671 1 6 -35 9 -12 1 6 2
1532264927825634 1 -3 -27 2 -4 -4 1 -8
1532264927849570 -3 53 11 13 -4 -2 -2 -7
1532264927871523 -2 -11 -4 -3 -3 3 1 1
1532264927886481 -1 -8 21 -11 -8 -3 2 2
1532264927917389 -5 -12 -6 -7 -5 4 0 0
1532264927956285 6 -12 -2 -7 1 1 3 1
1532264927991191 -2 -2 3 -9 -2 -1 -4 -2
1532264928039064 0 1 -7 -4 -6 -3 -15 -3
1532264928053026 2 2 -5 2 1 -1 -1 2
1532264928065992 -4 -9 -2 -3 5 2 1 0
1532264928140791 9 58 30 5 2 1 -1 2
1532264928179687 4 -1 -17 -4 -2 0 -3 0
1532264928246509 11 2 -9 -17 -6 -1 -4 -11
1532264928268451 15 24 77 4 10 4 2 -7
1532264928291389 -1 9 4 -2 -6 -3 -3 9
1532264928305352 9 -11 -36 0 3 -1 -1 -5
1532264928351229 8 -7 14 -8 -8 0 -2 3
1532264928375166 2 -17 2 0 -4 -1 -1 -1
1532264928412080 -17 14 -9 -1 0 3 4 1
1532264928479885 1 -4 -89 1 -3 -6 -5 -2
1532264928532755 1 5 3 -5 -1 -4 -3 -1
1532264928644445 13 -28 27 -104 -32 -25 -9 35

1532264928697303 7 15 -128 25 -3 -4 -10 -9
1532264928771106 -1 20 26 11 13 -8 17 -2
1532264928861864 9 -18 -14 18 12 -5 -8 18
1532264928899761 -4 10 125 -14 -21 -12 -10 6
1532264928913725 -2 -19 -80 -25 -5 -1 -4 1
1532264928951623 5 0 1 -15 -8 -4 -1 6
1532264928974562 0 -1 35 -30 -10 -3 4 2
1532264928996503 4 -33 19 13 -7 -4 -3 0
1532264929071303 -1 -30 -21 1 3 -1 -3 -4
1532264929108206 -12 -36 -7 1 2 -2 0 -3
1532264929133138 -1 -16 -10 -1 3 7 3 9
1532264929220903 2 20 -16 -3 -16 -6 -3 0
1532264929266781 3 14 -3 2 -1 -2 1 -8
1532264929302685 -7 -1 8 2 -2 -4 1 9
1532264929400423 4 0 16 -2 -3 -1 0 11
1532264929505150 6 3 1 1 -1 3 1 3
1532264929580948 0 13 3 -7 -13 -1 -2 0
1532264929662729 2 6 -6 6 -5 -5 0 1
1532264929685668 0 -2 3 2 -1 -5 -2 0
1532264929708622 -4 -8 -16 5 3 -6 -1 -3
1532264929745508 0 -2 9 -29 37 19 3 1
1532264929768446 1 9 28 2 -23 -22 -5 -2
1532264929784410 2 2 4 13 -2 17 8 2
1532264929805347 -3 -15 15 20 7 -11 -6 1
1532264929850227 0 12 62 -8 -10 -2 -3 -1
1532264929903086 0 4 18 -4 -9 -7 0 1
1532264929941982 -4 -6 -44 -8 -8 -10 -1 -3
1532264929948964 1 -3 0 -6 -9 -6 -1 2
1532264930030745 -6 -8 -14 -4 -4 -12 -4 -6
1532264930053684 2 5 -1 9 -6 -10 -4 1
1532264930061662 1 17 18 22 4 -4 -1 1
1532264930121502 39 -31 -20 -8 -11 -13 -7 0
1532264930159401 -3 3 -4 11 5 7 -1 -3
1532264930197300 15 -3 -33 -7 -1 -5 -3 0
1532264930235198 -8 -6 -29 -5 1 3 -2 -15
1532264930257140 2 -2 38 7 -2 2 2 1
1532264930302019 -9 6 5 -3 -3 7 1 -2
1532264930347897 5 3 36 5 -2 -4 -3 2
1532264930398761 2 -2 53 -37 -6 -3 -1 -2
1532264930413721 4 -3 15 -11 3 0 3 3
1532264930436659 -5 0 -19 6 -4 -5 1 -2
1532264930459598 0 -3 -11 10 2 -1 1 -3
1532264930473561 14 -8 8 3 -2 -1 2 11
1532264930496500 -2 -4 -50 9 1 -2 -2 -4
1532264930527417 -5 8 17 -4 -2 -1 1 -12
1532264930549358 -2 7 12 4 0 -2 -2 3
1532264930580275 -4 -1 15 7 4 1 2 1
1532264930602217 -7 -4 -18 -3 -4 -4 -11 -3
1532264930624157 -2 1 -1 -1 0 -2 0 -3
1532264930678014 3 2 -4 -3 1 -20 3 13
1532264930701950 -7 -5 -6 1 7 2 0 24
1532264930742841 1 5 -5 -1 -3 45 68 12
1532264930819635 4 -7 -3 -2 -2 2 7 4
1532264930976217 23 1 -3 -3 -3 -11 -36 65
1532264931058995 2 -22 -19 0 -4 -1 1 8
1532264931072958 19 12 4 1 0 2 8 47
1532264931095896 2 -2 -21 -6 0 2 6 9
1532264931119832 -6 -13 3 4 3 0 2 -16
1532264931132798 -4 7 14 5 2 -1 1 -41
1532264931209593 0 0 -5 -3 -2 0 -2 -3
1532264931223556 14 2 12 1 0 2 3 16
1532264931284393 0 1 1 1 1 -1 -3 -11
1532264931382134 0 5 2 4 1 8 1 0
1532264931478872 -8 14 1 -5 -6 -13 -1 -7
1532264931539710 -3 -1 -1 -17 9 7 29 -2
1532264931561651 11 -1 -11 -26 58 19 -3 10
1532264931622488 2 -1 9 9 -12 0 -29 -6
1532264931644430 10 1 35 39 26 -6 65 31
1532264931689309 5 -15 -5 -5 -32 33 33 -14
1532264931733192 9 -28 6 -3 5 23 -4 13
1532264931840905 5 -22 2 7 1 18 -30 -7
1532264931846889 -7 15 -10 -9 -15 17 -20 -11
1532264931875811 -8 6 -15 5 1 0 6 7
1532264931935651 8 -35 -27 6 7 16 48 6
1532264931982538 5 20 11 2 -2 -2 80 1
1532264931997486 6 -19 34 0 1 -17 16 17
1532264932066302 -1 -36 -89 -14 -5 -11 1 0
1532264932094227 6 28 12 2 0 -1 3 0
1532264932162045 -1 13 1 3 -1 1 -9 1
1532264932177006 2 -21 5 3 0 5 9 8
1532264932230862 1 -31 -1 2 5 9 32 -1
1532264932305661 0 14 -1 8 0 16 21 0
1532264932364519 -2 -79 -2 1 -5 -108 -31 -9
1532264932507123 1 -21 -3 1 4 1 37 8
1532264932604861 -3 3 3 -2 -2 -4 -7 -1
1532264932618824 0 -10 -3 2 7 -3 -3 0
1532264932641763 -5 50 19 0 -5 -13 -2 -2
1532264932678664 2 26 13 -15 8 3 0 0
1532264932715566 3 80 11 -4 4 15 1 0
1532264932844221 -1 -66 116 -34 -15 12 1 0
1532264932858184 6 -36 -25 -35 5 -83 4 4
1532264932920019 -8 -22 25 13 -19 12 -20 -5
1532264932964909 -1 -18 -65 38 -2 -13 2 -2
1532264933037704 3 0 35 39 16 13 5 1
1532264933121480 3 -1 34 -14 -12 -55 3 0
1532264933249138 -1 1 8 7 43 21 1 1
1532264933287036 -4 -7 -11 -7 32 13 2 0
1532264933414696 8 6 17 12 4 1 -1 2
1532264933429656 -26 8 -3 1 -1 -1 0 -6
1532264933444616 9 -8 -14 -8 -8 -2 -3 -1
1532264933466557 0 3 -13 -8 -4 1 0 -2
1532264933527395 9 -4 -3 0 -7 -3 -4 -5
1532264933540360 0 -2 14 -5 0 0 1 -1
1532264933600199 13 -9 -10 7 4 -6 0 3
1532264933632115 3 2 9 -1 -2 -2 -2 -1
1532264933654056 -5 7 15 -8 -3 -1 2 0
1532264933675997 4 -3 43 4 -2 -1 -2 -2
1532264933690957 5 -10 -23 -9 0 2 0 4
1532264933715901 -3 2 -56 -2 5 4 1 3
1532264933743816 3 -15 -40 -10 -8 -3 -2 -4
1532264933767751 -5 11 0 2 -2 2 1 1
1532264933780717 6 -12 -10 -13 23 2 0 -1
1532264933826594 1 -12 8 -18 -12 -13 -5 -6
1532264933873470 -2 -2 1 -21 2 4 4 -2
1532264933879454 -1 12 -5 -9 -3 13 -2 2
1532264933909373 4 7 -31 -2 -18 -5 6 8
1532264933976205 3 5 -20 -14 28 16 3 5
1532264934007112 -1 4 -36 22 -10 17 -5 -1
1532264934074931 2 -7 27 7 15 -13 6 6
1532264934119810 4 13 24 16 10 -26 -8 1
1532264934140764 -1 -9 57 -15 -13 -28 -2 -8
1532264934171672 9 12 -30 -19 -41 -7 -4 -4
1532264934186632 -18 -10 -104 -48 -21 -33 -13 -61
1532264934231512 0 6 19 -29 19 17 8 6
1532264934246473 8 -8 -7 16 -7 3 3 5
1532264934268413 -5 -19 20 18 0 -30 8 3
1532264934336231 -15 -5 -58 17 8 2 -2 6
1532264934391086 4 3 27 2 -3 -39 -15 -6
1532264934412029 3 -3 6 8 -8 3 3 4
1532264934434967 -3 3 50 -13 9 32 2 -11
1532264934448930 -2 2 16 36 18 1 -1 2
1532264934493810 0 5 -36 -21 0 -7 -9 -1
1532264934523730 0 -1 7 15 -3 -13 -6 -1
1532264934568610 5 -6 -7 -9 -1 -3 2 2
1532264934583570 -1 1 8 1 5 0 -1 -1
1532264934652413 3 4 -5 3 0 1 1 -2
1532264934749154 18 4 44 -1 0 2 -3 32
1532264934765112 -1 11 -60 1 -1 1 -3 22
1532264934786055 1 -109 -102 28 14 6 1 -9
1532264934808994 -10 2 9 -13 -12 -7 -6 -30
1532264934839911 -2 43 86 5 -2 -6 -6 1
1532264934868834 -22 -35 -21 -9 0 4 1 -7
1532264934882797 1 -21 -62 6 7 5 -2 -8
1532264934951613 3 1 45 -5 -3 -5 -2 0
1532264935041373 2 5 -1 3 -2 -1 -4 -1
1532264935051346 3 17 34 -5 4 0 1 0
1532264935133127 -5 -26 -89 1 -2 -3 -2 14
1532264935156066 -10 47 -27 4 7 1 3 51
1532264935170028 -16 -99 51 -2 -1 -2 -11 -28
1532264935191970 -3 -53 58 3 -4 -4 -6 -9
1532264935215915 -16 -3 -55 56 2 -2 -8 -15

1532264935267767 -27 -32 17 -82 -27 -6 -3 1
1532264935303676 -2 106 -2 -21 -20 51 -88 120
1532264935319634 15 -46 -18 6 6 -22 5 -57
1532264935388450 11 -72 28 94 39 -24 -12 4
1532264935408398 -3 28 -41 -16 -8 1 -5 14
1532264935446295 8 14 -30 -72 -29 -8 -3 -1
1532264935469234 2 4 34 -42 -13 4 -5 0
1532264935513117 5 -15 -6 -8 -7 -1 5 -2
1532264935558994 -10 8 43 56 5 1 0 -1
1532264935619831 -1 -3 -7 6 4 1 0 1
1532264935633793 2 5 44 1 1 -2 -1 8
1532264935685655 9 11 29 7 16 2 -2 5
1532264935733527 -17 -21 32 4 -3 1 -2 -41
1532264935799351 5 -24 -9 -8 -4 -2 -14 -11
1532264935814311 -1 -11 -8 2 -2 0 -4 -18
1532264935912050 -15 -2 -1 -1 -2 0 0 -12
1532264935950946 -1 -2 -7 -1 -2 -2 -3 6
1532264935985852 -1 -1 -2 -1 -2 -3 1 1
1532264936091574 -2 15 -3 7 4 1 3 2
1532264936204268 0 -5 7 14 6 14 -1 4
1532264936248152 0 -9 -67 -15 39 -20 0 0
1532264936354866 -1 -8 3 1 11 12 3 1
1532264936367831 1 0 13 -1 21 4 1 1
1532264936391767 -2 3 11 3 -2 2 4 5
1532264936474546 -4 1 -4 -4 0 -7 0 -6
1532264936511446 -9 0 1 1 1 -5 -3 -3
1532264936542364 -40 14 -4 0 5 12 8 -2
1532264936596220 21 -20 -23 -2 3 0 -4 16
1532264936617164 -4 -6 -23 5 5 -12 0 19
1532264936690967 4 7 -3 11 2 -2 -3 3
1532264936714902 -1 5 14 8 -3 11 -6 -4
1532264936736844 9 7 43 4 4 1 9 6
1532264936783719 4 -7 -4 5 5 -2 3 -3
1532264936895420 -2 -5 -28 4 3 -11 -12 11
1532264936962242 -13 4 26 5 0 3 1 -41
1532264936984183 12 -3 -13 -5 -5 -2 0 -12
1532264936998146 -20 -9 5 1 6 4 0 -12
1532264937044023 -6 1 -6 -1 -2 -6 -4 -22
1532264937119820 -13 -3 -23 -3 -4 -10 5 13
1532264937231527 0 -1 -4 -4 -3 6 0 6
1532264937254461 21 8 11 -2 -1 -14 17 12
1532264937277402 -13 0 1 -7 -4 -9 1 -30
1532264937337239 0 -8 9 1 1 -1 10 44
1532264937350204 9 -10 0 -2 0 -4 3 7
1532264937374140 7 3 12 9 6 7 3 -2
1532264937397084 -10 -7 -22 4 -1 -1 -4 -5
1532264937456919 13 -8 -7 1 0 -1 -7 -11
1532264937515761 2 -1 -4 -1 0 -1 -1 6
1532264937576600 3 -5 -3 1 0 -2 -12 20
1532264937697276 0 0 0 -1 0 -4 2 4
1532264937719220 4 2 -3 -4 -2 -9 0 4
1532264937757116 8 1 3 2 2 -5 -41 9
1532264937816956 3 10 5 3 -14 -4 -6 1
1532264937853857 5 4 0 -1 4 -5 -29 2
1532264937890759 2 7 -2 13 17 10 17 8
1532264937944614 4 8 2 -7 -34 -12 31 13
1532264937966556 13 15 6 -8 -19 -10 71 20
1532264938019414 2 12 37 10 -2 -18 -111 -35
1532264938057313 -13 4 22 -1 15 21 38 -13
1532264938109174 -7 -7 -3 5 -6 -62 100 1
1532264938147073 11 44 32 2 16 7 -9 13
1532264938162033 0 -5 2 3 -1 13 -35 7
1532264938209905 -7 16 3 6 -2 -9 -12 -5
1532264938244812 5 -38 -14 -9 -2 -10 28 5
1532264938272737 -9 12 -6 13 -8 6 38 -10
1532264938297671 -7 -1 -15 -3 -2 -10 8 4
1532264938333575 5 17 23 51 15 7 -24 5
1532264938370475 -6 -38 4 -17 -10 3 -10 1
1532264938393415 -1 0 -4 -3 2 -3 25 -4
1532264938453254 -3 -22 -2 -38 1 -19 5 -1
1532264938494163 -2 12 4 -6 14 20 84 -5
1532264938538028 4 -5 5 8 -6 -41 61 4
1532264938598865 -16 -6 2 -1 -8 -5 -83 -39
1532264938610833 -10 31 8 6 2 -3 -27 5
1532264938709569 4 -45 8 8 -1 -13 1 25
1532264938747467 3 -61 9 5 18 27 -21 5
1532264938801323 1 46 -2 34 6 9 -19 -1
1532264938838225 3 20 -5 -11 -3 23 -15 0
1532264938877121 1 1 3 -1 3 -5 -7 -3
1532264938950924 -1 -18 -78 -7 -10 -18 -2 1
1532264938966881 -5 -68 -51 -21 -84 -17 -4 -3
1532264939369803 6 17 36 36 11 25 6 5
1532264939445601 6 -6 -60 -21 -21 14 4 5
1532264939497473 -10 -2 -12 -31 -3 1 0 -3
1532264939504444 1 -3 9 -2 16 4 1 -4
1532264939563286 4 -1 -3 5 6 4 -1 0
1532264939657036 9 4 24 0 2 -1 0 5
1532264939706902 -11 8 28 8 1 6 0 -1
1532264939757767 -14 -12 -17 -11 -24 0 -5 8
1532264939820599 1 14 9 12 -19 -7 0 3
1532264939856509 -5 4 -4 -8 0 6 -2 -7
1532264939910358 0 -2 -18 5 1 -3 -1 6
1532264939948260 -21 28 55 7 9 3 1 1
1532264939954241 -3 11 14 -5 -4 2 1 -1
1532264939998124 0 -3 -15 -9 8 11 2 -1
1532264940051979 1 -9 22 8 -11 -23 -5 11
1532264940057963 3 -3 -30 -6 1 -8 0 3
1532264940165675 -3 -1 26 -8 3 -1 -2 -1
1532264940203574 -1 -11 -64 -9 -10 -8 -1 7
1532264940277376 -8 15 16 -1 1 -24 0 -7
1532264940314278 -6 62 40 -38 -10 -13 -6 -8
1532264940323254 2 16 8 11 2 43 4 8
1532264940358171 1 -38 45 0 3 -27 -8 -8
1532264940389078 5 14 -19 0 -7 0 20 7
1532264940404038 0 41 -14 2 7 15 -1 3
1532264940456896 -3 -11 7 7 12 -3 11 1
1532264940509755 -1 -40 10 -3 -1 2 -1 -2
1532264940530699 3 12 23 -3 -5 0 1 -2
1532264940591536 -2 15 -11 0 -2 6 1 -8
1532264940628438 -1 2 35 -17 -5 -9 -5 1
1532264940674323 -2 3 -4 1 0 6 -1 0
1532264940683291 1 -1 -10 3 -1 1 -1 1
1532264940704235 -4 -1 -5 -1 1 1 0 -2
1532264940734163 3 -2 0 -7 -5 -3 -2 0
1532264940780045 -6 17 5 1 1 1 -3 -2
1532264940793995 -7 17 3 2 1 4 1 0
1532264940824912 -3 -53 -2 -1 -2 2 1 -2
1532264940907691 3 61 57 3 -3 3 3 2
1532264940920656 3 -34 -6 -5 -1 -10 3 1
1532264940958555 1 1 36 3 -3 -1 -2 0
1532264940983488 -6 -24 -14 -14 -5 3 -3 -4
1532264941023415 -3 15 7 8 0 4 3 -1
1532264941034352 -2 -77 25 0 -2 -7 -3 -3
1532264941049317 5 68 60 5 2 -1 -1 2
1532264941087214 0 -7 -19 -16 -4 -1 -1 0
1532264941109152 -4 -3 8 4 0 2 1 0
1532264941124112 0 4 4 -10 -5 3 0 2
1532264941148063 -14 3 -4 3 2 1 0 -2
1532264941169989 3 -15 -10 -4 2 -3 -3 -3
1532264941183958 0 -7 12 2 5 0 -1 -1
1532264941220853 1 10 -17 -3 -1 1 1 0
1532264941259750 -2 6 82 5 -1 -1 -4 -14
1532264941313606 -6 -63 -73 2 2 2 5 -1
1532264941358485 2 -9 -61 0 3 1 1 -12
1532264941426304 1 25 66 -86 -18 -3 -5 2

1532264941448246 1 36 3 -5 1 2 2 -6
1532264941484150 2 -70 16 23 4 18 16 -47
1532264941523046 -33 -2 -11 4 -14 21 -16 67
1532264941538005 12 26 -11 0 -2 -4 23 45
1532264941543990 -2 19 -93 42 10 -5 1 -54
1532264941566928 9 -40 73 73 7 4 7 -12
1532264941598843 6 0 17 -41 -2 -15 -3 -19
1532264941626768 2 3 -54 -9 0 5 4 -6
1532264941650704 -4 4 -11 -28 -2 -4 -1 -11
1532264941663675 6 1 2 -5 15 5 2 -4
1532264941686608 -4 0 -18 -58 -21 -6 -1 -5
1532264941702566 10 -11 16 19 2 -3 -3 1
1532264941723509 -24 -4 -13 -19 -6 -3 0 -4
1532264941746448 -7 10 9 -20 -5 0 1 -3
1532264941769387 2 0 -25 -42 -9 -4 0 -1
1532264941783349 1 1 -10 28 8 -2 -3 -3
1532264941806288 0 -1 -3 11 7 5 -1 -2
1532264941829227 9 5 8 66 7 3 3 1
1532264941866128 -1 46 29 -1 -7 -2 0 -1
1532264941889067 2 -22 -78 -4 4 -3 3 0
1532264941963867 -4 -6 54 -4 -1 -6 -3 4
1532264941985812 -37 -13 -8 3 2 -2 -5 -23
1532264942054630 11 5 19 0 -8 -1 -1 3
1532264942106492 -12 -6 0 -3 4 3 1 -8
1532264942166332 1 24 -4 -3 -6 -1 -2 -1
1532264942249110 1 4 28 6 -2 0 -3 -4
1532264942345852 5 10 8 16 25 2 3 2
1532264942368790 -3 1 -6 24 9 7 3 -1
1532264942406689 1 5 17 -1 15 6 0 1
1532264942429628 4 5 -7 14 22 0 3 4
1532264942443590 -2 -5 -17 -20 -77 -20 -4 -7
1532264942489468 -2 -4 9 18 59 30 3 1
1532264942526369 6 10 -8 2 1 4 0 3
1532264942557286 1 0 -38 4 10 0 -1 -1
1532264942609148 -3 2 -67 5 -5 -1 0 -2
1532264942623110 -3 15 54 2 -2 5 4 -4
1532264942706887 2 12 30 -4 -1 15 3 2
1532264942723840 -6 -6 -20 -16 -4 -9 -4 -1
1532264942753761 14 -7 36 8 -6 -5 -3 1
1532264942766726 -10 5 -9 -4 -2 -16 -3 3
1532264942789665 -6 8 27 -9 1 -11 0 -1
1532264942811606 9 -6 1 5 0 7 1 0
1532264942834545 -5 1 18 12 2 3 3 0
1532264942849505 1 -17 16 3 -1 -3 -2 -4
1532264942872443 2 5 64 4 8 67 9 2
1532264942939265 -14 -13 -22 -8 -5 -5 -8 -12
1532264942977164 4 3 11 0 0 -7 2 1
1532264942992124 -8 -2 -15 7 -1 3 1 1
1532264943029025 -1 5 20 -4 -3 3 0 7
1532264943065926 -25 -1 4 -6 -3 -4 0 -3
1532264943088865 8 -6 -25 3 -1 -3 0 -1
1532264943104832 3 -8 -18 5 0 0 0 1
1532264943148705 -2 4 -41 -4 -1 -1 -3 -3
1532264943164662 -2 -6 -8 1 -1 -2 -4 4
1532264943185606 -6 1 8 -1 -1 -5 -13 -30
1532264943200566 17 22 -1 -1 -1 -2 0 3
1532264943218518 5 -4 7 -1 0 -2 -1 -3
1532264943269382 0 -12 -4 2 -1 20 90 6
1532264943292321 0 2 2 1 -2 -21 -62 11
1532264943305286 8 3 -4 -5 0 -5 -3 -8
1532264943329222 -5 3 4 1 2 0 -14 -1
1532264943382098 -1 6 4 -2 0 8 30 -36
1532264943425963 -9 -14 -10 -1 1 4 -11 -6
1532264943448901 -19 -41 -27 -4 3 10 26 -7
1532264943455883 1 -10 -9 -1 1 -6 7 49
1532264943473836 13 -10 -6 -3 1 -4 -8 14
1532264943531686 -4 0 -5 -6 -5 -12 -25 2
1532264943545643 0 19 16 6 -3 -3 -9 3
1532264943591521 16 5 -12 -4 -2 -1 14 77
1532264943614462 -2 13 3 0 -1 0 3 -11
1532264943652358 2 4 -3 -2 -3 -2 -3 -5
1532264943675297 -7 -7 -4 -3 -2 3 -1 -13
1532264943712198 -5 -8 0 0 1 2 3 -12
1532264943734139 -13 6 -3 -2 3 1 6 -21
1532264943772038 -5 1 -4 -3 -2 -3 -3 -57
1532264943831878 -2 -2 -1 0 0 0 0 8
1532264943891719 1 -3 2 0 -1 4 8 0
1532264943936598 -1 12 -3 6 37 -3 -9 2
1532264943951558 -1 9 4 7 -19 21 4 -3
1532264943997436 4 8 1 0 13 0 -2 3
1532264944034336 2 -2 1 -30 19 9 -7 4
1532264944072235 -1 -1 -2 -12 -9 -12 8 5
1532264944123099 -3 -11 -5 -11 9 17 -7 -1
1532264944154017 0 1 2 12 -21 -6 -38 -2
1532264944191916 -4 6 -12 11 38 37 -23 -8
1532264944213857 20 -5 12 -8 7 -2 -42 -4
1532264944237792 2 -9 -30 30 4 -12 -2 -4
1532264944274694 13 -12 22 -6 -1 -24 7 12
1532264944296635 -9 -92 -33 -18 -20 -56 -72 -48
1532264944365451 3 68 12 -3 -9 12 34 7
1532264944373430 7 27 -26 -6 7 61 -78 -4
1532264944411329 0 4 -32 7 10 66 34 9
1532264944424296 -2 -9 97 8 3 -18 -20 -1
1532264944462199 9 21 17 4 1 -6 -32 -1
1532264944492120 2 5 -6 -10 -1 15 33 1
1532264944550962 3 21 -11 2 -1 9 3 11
1532264944604818 -5 -13 -18 -9 1 8 -28 -2
1532264944618781 -1 -4 16 3 -8 -22 23 -8
1532264944664658 4 3 -2 -5 1 -18 -41 0
1532264944704552 3 8 -1 2 -2 7 -30 -4
1532264944755416 -5 5 -8 -17 -12 3 -27 -11
1532264944791320 11 -35 4 3 1 17 -16 13
1532264944814258 10 -16 -32 10 0 29 -83 -1
1532264944850162 -1 -17 -16 20 6 7 42 2
1532264944897037 -4 -59 -8 -10 -2 16 -18 -2
1532264944919976 1 52 0 4 -4 -14 -71 -1
1532264944979817 -4 -6 -5 -6 1 -7 47 -1
1532264945099498 0 -79 31 -22 -1 -3 -1 -2
1532264945316914 1 -2 -29 -16 1 1 0 -1
1532264945624105 -1 -11 17 -8 10 1 -2 -5
1532264945675955 -3 -19 1 6 6 3 3 2
1532264945699890 -5 4 45 -1 0 -3 -1 -7
1532264945738786 -1 -6 -24 -6 1 0 0 -25
1532264945742776 -5 1 -16 -4 3 1 -1 3
1532264945782668 -8 -3 -5 -3 2 2 -3 0
1532264945812589 -7 -13 -31 -16 -4 -2 1 5
1532264945864450 -3 13 2 2 2 4 1 -6
1532264945917308 -9 12 16 -6 0 -2 1 -5
1532264945999090 -1 3 -25 0 -1 -2 -3 -2
1532264946066908 3 -1 -9 0 0 -1 1 8
1532264946096829 -7 -17 -30 -16 0 -5 -6 -11
1532264946127746 0 3 4 8 -5 3 2 6
1532264946179607 -7 1 7 -7 -24 -10 -13 7
1532264946247426 0 -5 37 -26 -11 37 10 -4
1532264946292306 -13 1 12 -8 -3 -9 -5 -21
1532264946354141 2 1 13 3 -9 3 6 -4
1532264946382066 4 -10 8 12 10 7 38 4
1532264946433927 -1 1 36 28 12 14 28 5
1532264946464845 -5 -8 0 -9 -15 -40 -36 3
1532264946518700 2 33 72 12 4 -20 8 -2
1532264946532676 0 -7 -125 -21 -17 -10 18 -1
1532264946561586 -2 -5 -89 -9 -3 11 -16 -7
1532264946607464 2 -10 32 24 3 -2 5 1
1532264946661319 -16 -17 28 -33 0 0 10 -9
1532264946667303 6 -8 16 12 18 8 -10 4
1532264946696226 5 24 20 11 1 -5 1 3
1532264946719164 0 -6 -29 11 11 9 -15 2
1532264946772023 -1 -7 -8 23 6 -10 23 6
1532264946817900 2 -1 13 10 -6 -5 -2 -4
1532264946885719 -3 4 -10 -10 1 -2 -4 -3
1532264946901676 2 -2 17 7 -2 0 4 1
1532264946953537 -7 -2 -7 -7 -3 -1 -1 -6
1532264946996423 3 1 -10 -7 -5 0 -2 0
1532264947014375 2 -13 1 -3 6 2 2 1
1532264947073218 13 -12 1 -3 -2 0 1 -3
1532264947200876 7 24 17 9 11 1 -2 -1
1532264947205863 -12 -45 -40 2 4 0 -3 -3
1532264947244759 -6 -12 66 10 3 4 2 -4
1532264947266701 -2 -6 -4 -5 -3 -2 0 -4
1532264947303601 1 11 4 -7 -5 -1 -1 -4
1532264947318561 -5 5 -7 4 2 4 1 0
1532264947341506 9 41 -1 -8 -2 -1 -1 -2
1532264947363441 -10 3 -25 -1 0 1 -2 0
1532264947402337 2 -37 20 -1 -2 0 -1 1
1532264947433259 5 2 -8 -2 -4 0 -2 2
1532264947454207 0 5 16 9 5 3 1 0
1532264947484119 1 -18 3 -2 2 1 -2 -1
1532264947543958 22 -1 -9 0 0 5 15 94
1532264947582855 -19 -28 51 4 3 -1 -8 -39
1532264947588839 -17 22 -5 -31 -16 -10 -5 -24
1532264947628739 4 63 -72 -57 -7 -2 -5 2

1532264947709516 -9 -13 -64 -14 -1 -2 -2 -2
1532264947718492 -14 -24 60 1 -2 6 -9 -69
1532264947754396 -6 39 6 1 2 -6 7 17
1532264947808257 -10 8 107 4 -2 0 7 -25
1532264947830541 -3 -13 -77 -23 -2 10 4 -16
1532264947868440 -1 -10 -35 6 -1 4 -1 -4
1532264947919304 -5 -3 5 86 31 8 2 0
1532264947941266 -3 10 -7 -35 -17 -4 -4 -4
1532264948003079 -4 -3 -18 54 40 12 5 7
1532264948047959 1 6 4 -3 2 3 1 1
1532264948174624 2 1 -10 20 10 0 3 -3
1532264948338184 -14 -1 -10 -1 -1 0 -2 -11
1532264948392039 -5 12 6 -4 -18 -6 -1 -5
1532264948451891 -2 5 1 -9 -3 -2 -2 0
1532264948496760 -3 8 -31 -1 28 4 -1 0
1532264948555601 0 -12 -116 0 16 6 1 2
1532264948640382 1 -2 19 8 9 -1 0 1
1532264948683261 0 1 5 -2 -15 -23 -2 -3
1532264948826877 -1 2 -16 6 1 11 -3 -4
1532264948856796 10 -18 -62 -21 -11 -7 1 -4
1532264948955532 1 3 67 -2 0 -4 -1 -10
1532264948971490 3 13 35 4 -1 4 5 2
1532264948983458 -15 6 4 -1 2 -10 3 -7
1532264949006397 11 -1 16 1 0 2 -1 3
1532264949054269 5 4 -3 -3 1 -6 -4 0
1532264949059256 14 -4 -17 -2 -2 -3 -3 -1
1532264949088177 0 -29 -12 -6 2 20 6 12
1532264949149016 1 16 70 -19 -5 -18 -4 -2
1532264949170957 1 -22 18 12 -2 9 3 -15
1532264949197884 1 -7 -17 -3 -2 -21 -3 5
1532264949208856 10 -13 -16 -10 -3 1 -1 1
1532264949231794 -4 2 -10 -6 -4 0 1 4
1532264949269693 -3 11 63 2 1 13 -1 -1
1532264949305596 1 9 10 6 3 17 6 2
1532264949347484 12 4 -15 -2 -4 -12 -4 2
1532264949352471 -1 11 -19 6 4 6 -3 -2
1532264949390370 7 1 -27 -7 -7 -9 -1 4
1532264949435250 5 2 17 -2 -2 -4 -2 1
1532264949458189 -3 -3 30 2 1 -1 3 -1
1532264949472160 -3 -12 -2 -6 -3 -1 1 -1
1532264949509052 0 -1 13 3 2 -6 1 3
1532264949523015 15 -5 -10 -2 -3 14 -7 18
1532264949582855 -2 -5 9 -1 6 -16 6 10
1532264949608785 5 1 -9 -1 4 -8 9 20
1532264949629730 2 2 -8 5 3 8 13 11
1532264949667628 2 23 1 -1 -3 21 49 57
1532264949697549 5 28 -4 1 7 39 55 8
1532264949727469 3 1 3 0 1 -11 -22 -20
1532264949772363 -23 26 27 0 1 -7 -53 -55
1532264949839170 7 -34 -3 -3 0 3 -11 -12
1532264949883053 14 21 5 -1 1 -2 -2 -31
1532264949914967 -5 -8 -5 2 3 3 17 -37
1532264949951884 7 -6 -3 -3 -1 4 13 10
1532264950049613 17 5 -9 -1 -1 4 0 -17
1532264950063570 -1 9 -13 -2 -2 2 17 -6
1532264950086508 -7 42 23 2 -3 -4 2 9
1532264950117435 -4 -17 -2 -3 0 -1 -5 6
1532264950154327 7 -24 6 -6 -5 -2 -1 22
1532264950229127 -20 -11 -1 -1 -2 -3 -12 -15
1532264950252066 4 -15 -5 -3 -3 -3 -4 4
1532264950289964 0 2 -6 0 -2 -6 -4 4
1532264950317890 1 4 2 1 -1 -4 -13 5
1532264950349804 3 14 0 3 0 -1 4 1
1532264950492423 -1 -9 -1 17 -1 -21 -23 8
1532264950505389 -5 0 0 -7 -1 -35 -60 -4
1532264950597143 -2 -6 -3 -9 -1 -20 -42 -4
1532264950621079 1 3 2 9 2 0 2 10
1532264950671942 -9 -4 -6 1 9 8 27 -3
1532264950685905 20 50 23 -5 7 4 -13 19
1532264950709841 -31 -13 -15 2 10 12 20 -11
1532264950769686 -5 -25 -102 13 7 7 31 21
1532264950791623 -3 93 6 -12 1 21 -77 -22
1532264950814562 -5 -124 7 13 3 2 74 10
1532264950851462 5 30 37 2 5 6 -7 -1
1532264950859441 -13 -37 -2 -25 -9 -7 -32 -9
1532264950880385 12 12 -16 10 12 8 39 5
1532264950912300 -25 -15 -27 -7 -13 -54 38 -12
1532264950934241 15 -23 37 4 2 -40 -41 4
1532264951003057 -1 -2 11 20 -1 -22 -27 -6
1532264951012034 -3 -42 -20 -6 -11 -26 -30 5
1532264951047937 3 2 -9 -7 -5 -11 5 -4
1532264951068881 -5 -9 -51 -15 -7 10 -65 -5
1532264951129719 -1 -5 -21 -11 -2 -10 49 -6
1532264951161633 -8 4 22 0 0 32 -19 -3
1532264951234439 -1 0 14 41 10 3 7 5
1532264951248402 8 -2 -11 -24 -18 -118 -69 -6
1532264951263361 -16 0 -5 25 8 7 3 -6
1532264951288295 -14 36 -4 -15 -9 -18 -75 -9
1532264951296274 4 10 -13 56 19 8 30 2
1532264951326193 7 0 -15 -47 -24 -39 50 2
1532264951353121 6 2 6 -23 -2 -20 -2 9
1532264951377057 19 11 2 -6 -7 6 -11 14
1532264951436897 -11 -22 3 -10 -3 -53 2 2
1532264951504722 1 6 -1 5 5 26 3 0
1532264951534636 2 6 6 26 9 -32 29 10
1532264951579516 -1 -9 0 -12 -5 -55 -5 -3
1532264951594476 -1 3 -7 -9 -1 -24 30 0
1532264951632375 -2 -24 -3 -6 -4 -3 -1 -3
1532264951654316 3 -18 7 16 6 47 14 0
1532264951714155 -2 4 54 40 -26 -12 -3 -4
1532264951729116 -3 74 10 -37 -13 -8 -5 -3
1532264951743078 -2 127 19 8 2 1 -1 -1
1532264951788956 0 -12 94 -26 -14 -6 -5 -3
1532264951834833 -3 -53 28 -69 4 25 10 2
1532264951885737 6 9 -38 52 8 24 -19 -6
1532264951932612 -5 12 -32 9 22 -33 7 -2
1532264952005417 3 16 46 -14 -4 28 23 -2
1532264952073236 -12 -18 15 -14 -8 4 -4 -5
1532264952246771 -2 8 -51 -27 -5 2 -2 -8
1532264952307610 4 3 -54 2 0 -5 1 20
1532264952361464 -5 4 37 13 0 11 4 6
1532264952375427 10 2 -17 -12 0 -1 0 -1
1532264952419311 10 21 54 11 0 17 9 -1
1532264952440255 5 -57 -58 -16 9 40 6 4
1532264952470174 10 -21 1 3 1 -6 -4 2
1532264952487130 -13 9 10 -4 0 -21 -5 7
1532264952546969 4 -1 -14 8 -4 -21 -7 -6
1532264952615785 5 11 66 -7 0 -5 0 3
1532264952644708 -3 6 -10 7 -1 -2 1 0
1532264952674628 -1 6 22 0 -6 -2 0 -3
1532264952680612 -2 2 23 -2 3 -1 3 0
1532264952726488 15 -1 61 -3 -1 -8 0 2
1532264952764388 -17 -11 -11 -16 -1 48 5 -6
1532264952809268 -3 1 -14 -6 -3 56 -2 -23
1532264952830211 0 11 40 -5 -7 45 -2 -1
1532264952915982 3 5 40 0 -3 -3 -7 -3
1532264952937924 -8 -16 36 16 2 2 13 5
1532264952987791 6 13 -36 -4 -10 1 9 2
1532264953056606 4 -3 -15 6 -3 -37 -4 7
1532264953093508 8 -6 106 14 -8 -13 1 3
1532264953117443 -1 2 -23 2 -1 9 -1 -9
1532264953221167 7 12 -29 6 10 37 -3 5
1532264953245102 -5 6 -26 -10 -1 16 3 3
1532264953333865 -2 -5 -13 0 1 -10 -5 0
1532264953416643 1 12 15 -4 -3 -5 1 -11
1532264953476483 0 6 1 0 -1 -9 1 7
1532264953499421 -4 1 -2 4 -2 6 0 -5
1532264953522360 0 -10 -21 -4 0 0 1 8
1532264953559262 -1 20 8 2 0 2 2 -4
1532264953679940 3 28 7 2 -3 -1 1 -3
1532264953739779 -2 29 33 2 -2 -3 -3 -3
1532264953761720 -2 35 -36 -6 1 0 -6 0
1532264953813581 2 16 37 0 -6 -1 1 -2
1532264953859459 0 -11 37 4 -1 1 -1 0
1532264953873427 2 36 32 -4 -6 -2 -2 1
1532264953933262 0 -40 -65 1 4 -1 2 -19
1532264953971161 -23 5 -97 -12 -11 -11 4 5
1532264954038979 15 41 -40 16 7 9 -4 8
