1532179852250413 0 -6 -6 -3 -1 -2 0 1
1532179852281331 -2 -9 0 -3 -5 1 8 2
1532179852328205 3 7 -22 3 2 -5 -3 2
1532179852359122 6 -15 -5 2 -12 -4 -2 0
1532179852393031 -5 3 2 7 6 2 -1 2
1532179852414973 -2 -7 -10 28 6 -1 -1 -1
1532179852445890 -3 3 -2 -6 4 2 -2 -2
1532179852461848 10 5 -38 1 -3 0 1 3
1532179852482791 1 9 16 6 4 1 1 -1
1532179852497751 -3 -4 13 -12 -3 -2 -1 -1
1532179852527672 1 -3 0 1 10 5 2 -1
1532179852550610 -4 -4 2 -5 -5 -2 -2 -1
1532179852565570 -1 -1 11 1 -2 -1 1 0
1532179852580530 0 3 8 -2 -1 -1 1 1
1532179852611447 -4 -4 -4 0 0 -1 1 -2
1532179852640370 0 -1 -1 -2 0 -2 0 0
1532179852670290 1 -2 -2 -4 0 -2 -1 -2
1532179852685251 0 -3 7 4 10 5 1 -1
1532179852715170 -1 -6 -4 -1 2 1 0 0
1532179852753069 -2 1 -10 1 -1 1 -1 -2
1532179852768029 -2 -2 4 -5 -2 0 0 0
1532179852782988 -2 4 1 2 5 0 0 0
1532179852804930 0 -3 -1 1 -6 -3 -1 1
1532179852819890 -1 -1 1 2 20 2 1 -1
1532179852842829 0 1 -23 -29 -19 -7 -2 0
1532179852865767 1 10 -18 -33 -17 -5 -2 -2
1532179852880728 1 4 7 4 7 2 -1 0
1532179852902668 0 1 -8 -9 3 1 0 -1
1532179852925611 -2 -10 -10 -17 -7 -2 -2 -1
1532179852947549 3 11 7 26 18 4 1 3
1532179852977483 -3 -8 5 12 22 5 0 -1
1532179853007388 4 10 -18 -16 -3 -3 -1 0
1532179853045287 -4 -9 -14 29 15 2 1 1
1532179853068226 1 -7 -3 0 -4 0 -2 -1
1532179853098145 4 19 -5 2 -13 -4 -1 1
1532179853120087 -3 -25 -23 2 -1 0 0 -1
1532179853135047 -2 -1 -8 4 -8 -1 -1 0
1532179853164967 2 -11 -13 -7 0 1 -2 -1
1532179853194887 0 -15 -18 -8 -1 1 -1 0
1532179853225805 0 -1 -5 -1 -2 -1 -1 0
1532179853240765 1 2 -34 -23 -9 0 1 0
1532179853277666 0 -14 -14 0 0 1 0 2
1532179853300604 -3 8 9 -2 -3 -2 -1 0
1532179853330524 -11 -14 -2 1 2 1 0 -4
1532179853345484 -3 1 -1 6 4 -2 -1 -5
1532179853383392 10 -9 2 9 3 1 1 0
1532179853413303 7 -3 4 -3 -1 0 0 3
1532179853435245 -8 -33 -33 -3 -1 -2 -4 -6
1532179853465164 -15 -14 -17 -3 -3 -1 -8 -8
1532179853510044 18 15 -20 0 2 -2 -4 -21
1532179853547943 -15 -46 10 1 -3 -4 5 -9
1532179853562903 -19 -13 0 2 2 -1 -6 -25
1532179853585841 20 -5 10 3 -1 -1 -4 -6
1532179853607783 7 -7 2 -3 -6 -1 11 2
1532179853637703 39 -12 13 4 2 -1 -39 1
1532179853660642 40 9 11 -6 -5 -4 -17 27
1532179853682583 -37 -5 -2 -4 -4 -5 -3 11
1532179853697543 -87 -60 -3 -6 -5 -4 0 -53
1532179853727463 30 -40 6 2 1 -1 1 -3
1532179853757383 -68 -38 10 -3 0 -1 5 -16
1532179853795282 0 -57 -6 -1 0 0 -3 9
1532179853818220 -6 3 2 -2 -1 0 -3 -2
1532179853848140 12 8 4 2 4 2 1 5
1532179853863100 12 37 7 1 0 -1 -1 0
1532179853907980 13 32 8 0 0 0 -2 2
1532179853922940 -8 37 3 0 -1 -2 -1 -2
1532179853952860 3 35 1 -3 -1 0 0 -3
1532179853982780 1 -22 0 -1 -1 -3 -4 -1
1532179854020679 -1 21 15 1 -1 -8 -2 -4
1532179854050599 -7 -38 -24 -3 -1 -19 -6 -2
1532179854072539 2 -1 -5 -2 -1 13 1 1
1532179854110439 -2 19 -3 -7 -3 1 -3 -2
1532179854148338 -1 -23 -1 4 -2 4 -1 -1
1532179854170279 1 22 5 -5 -1 -13 -1 0
1532179854185238 -1 15 -1 15 3 0 -2 0
1532179854230119 -2 13 14 11 0 -2 -2 -2
1532179854282978 -2 17 18 -13 -6 1 -2 1
1532179854329852 0 9 7 -5 -2 11 1 -1
1532179854350796 0 -18 -30 -13 -1 1 -1 -1
1532179854410636 -4 -21 2 -7 -6 -10 -2 -3
1532179854432578 7 22 -11 7 0 6 0 1
1532179854470476 0 -6 -1 -21 -1 4 0 -1
1532179854500396 6 7 3 0 -2 4 0 0
1532179854530316 -5 -11 -8 -17 -5 -4 -1 -3
1532179854560236 -3 -22 -20 5 1 -6 -1 0
1532179854598134 1 -8 10 13 5 -1 -1 0
1532179854643015 -3 -7 6 3 2 3 1 -2
1532179854702855 -1 11 -11 17 -1 0 -2 -3
1532179854725794 2 5 5 15 3 -5 1 0
1532179854785647 -5 -4 7 7 1 1 -1 0
1532179854830513 0 9 7 1 -4 -1 0 0
1532179854867415 -2 -14 -3 -7 -1 2 0 0
1532179854898332 2 15 -7 -9 -4 -4 -1 0
1532179854928252 1 3 -2 4 2 13 1 2
1532179854943211 4 5 -6 -8 -5 -7 -1 0
1532179854988092 6 -7 3 3 2 -2 0 1
1532179855018011 3 -13 -8 -7 -2 0 0 1
1532179855047932 -3 -12 -5 -2 -1 3 -4 -1
1532179855107772 -4 6 11 -3 0 -3 -1 -3
1532179855137692 -4 2 -6 2 3 -4 0 0
1532179855167611 9 -10 -3 1 2 2 0 0
1532179855197532 18 4 -5 -1 -1 -4 -1 -2
1532179855235430 -9 3 -4 4 1 -2 -1 -3
1532179855295271 -2 4 2 -4 -3 -3 1 1
1532179855333177 -14 -1 -2 -3 2 2 2 1
1532179855422936 3 1 1 0 -2 -2 -2 -3
1532179855467816 6 -20 -6 -2 -1 -15 -1 1
1532179855497736 -27 10 -8 1 3 5 2 -2
1532179855542653 -23 3 -6 3 3 5 2 1
1532179855768048 6 2 3 9 3 0 -2 -1
1532179855850826 1 8 -4 -9 -6 -2 0 0
1532179855880746 8 -8 -4 -7 0 3 1 2
1532179855917648 1 1 6 -5 -4 -1 -2 -1
1532179855962528 1 14 7 -1 -3 -3 -1 -2
1532179856022368 1 -1 3 2 2 1 0 0
1532179856053285 5 20 1 1 1 1 -1 -1
1532179856105153 3 -28 -7 4 0 -1 -1 1
1532179856150033 6 -12 2 1 0 -3 0 -2
1532179856240790 -1 -3 -5 -2 -1 -1 -2 0
1532179856375443 0 1 6 15 17 9 2 1
1532179856413341 10 0 2 -1 -4 -1 -10 0
1532179856443262 7 3 15 6 -1 -2 -28 3
1532179856458222 -2 -4 -12 -6 0 -1 -10 1
1532179856488142 -8 2 -7 -4 -4 -2 14 -2
1532179856503102 8 9 -4 3 1 -1 -17 0
1532179856525043 9 0 -3 -4 0 1 2 3
1532179856547981 -13 -5 2 4 2 2 -11 -5
1532179856600842 3 -2 2 1 1 1 3 -2
1532179856622781 -4 -11 -7 -3 2 3 4 1
1532179856652702 -11 -19 -14 -14 -4 -3 13 -3
1532179856690600 2 7 13 7 4 3 -16 2
1532179856735480 -4 1 -2 4 -1 -7 -16 4
1532179856757422 2 -8 39 -5 0 -9 -28 8
1532179856780359 4 -2 -16 -3 -1 2 -32 2
1532179856795320 7 19 3 8 4 2 27 6
1532179856825240 -13 -2 -8 0 -1 2 -19 -20
1532179856848179 -23 -46 -7 -4 -4 10 64 -5
1532179856878099 8 22 -3 -8 -1 -12 -4 -1
1532179856915016 3 -56 -52 -1 -5 -89 15 -20
1532179856937955 32 2 -3 -27 -7 -32 18 15
1532179856959896 32 -51 -13 -30 -11 4 73 4
1532179856982836 -36 -38 -6 -3 -5 -8 11 -13
1532179857005774 2 11 1 2 -2 -13 12 -1
1532179857027715 -15 16 34 5 0 -15 -95 -2
1532179857057635 -12 7 -21 -7 -5 2 16 -3
1532179857087555 -2 -3 -1 -6 -4 -3 -2 2
1532179857110494 18 14 6 4 -1 15 15 8
1532179857125454 -9 -15 -14 -10 -6 1 -15 -11
1532179857140414 -32 3 25 14 5 1 35 -7
1532179857162355 7 7 26 14 6 9 -9 2
1532179857185298 7 57 28 27 9 9 27 4
1532179857215214 -2 -26 -21 -6 -3 -3 -7 -1
1532179857245134 2 -11 -22 0 -4 -3 -4 -3
1532179857275054 16 -7 11 -3 -1 -2 14 6
1532179857297993 4 37 13 6 0 0 -4 3
1532179857319934 12 3 28 -4 -1 -1 21 2
1532179857372792 -2 3 2 0 -3 9 -19 8
1532179857417673 8 42 29 8 4 10 -5 5
1532179857462566 -14 -18 -8 1 0 -1 15 -15
1532179857492487 -3 10 -28 -16 -2 4 27 -2
1532179857515425 -19 -18 12 -10 1 5 -6 -1
1532179857538385 3 -36 -42 11 11 9 22 -1
1532179857560305 1 13 19 -1 -1 -2 2 1
1532179857575265 -6 34 26 12 -3 -4 -16 -6
1532179857620145 -6 6 7 4 2 -1 14 1
1532179857643084 3 20 -36 2 2 -1 12 -1
1532179857658044 3 12 -18 3 7 8 21 0
1532179857687964 -12 -24 -14 -4 -2 5 -5 58
1532179857732843 3 7 6 1 -2 -1 3 -9
1532179857747804 0 8 -4 -14 -3 -5 -54 -5
1532179857777724 -27 -43 -13 -12 5 4 9 -9
1532179857800662 -24 1 -25 -9 -6 -6 -2 -6
1532179857830582 7 5 -6 -1 -8 -3 -31 -3
1532179857852524 15 7 35 35 7 0 -27 -1
1532179857875463 -4 -7 -24 -6 -1 4 3 -3
1532179857905382 -20 -43 -2 6 -2 -1 6 -3
1532179857920342 5 18 22 3 -5 0 1 1
1532179857951260 -19 -38 17 -6 -6 -1 -44 -42
1532179857973201 10 26 5 -5 -6 -11 32 11
1532179858003121 8 30 16 12 10 26 1 6
1532179858025063 -1 5 9 8 6 -2 -26 -21
1532179858069962 -7 8 -5 -10 -9 0 24 -9
1532179858100879 -25 -13 24 -17 -2 5 -16 -8
1532179858122821 11 16 6 1 2 -3 25 -5
1532179858152741 -9 -28 21 -2 -4 -4 -5 0
1532179858190640 19 12 8 -10 0 -1 5 7
1532179858220559 4 -20 -39 -11 -2 1 1 -1
1532179858242501 -13 14 -59 18 2 -4 -40 -6
1532179858265438 -6 -32 -20 -16 1 -3 -1 2
1532179858288378 2 -9 32 2 -2 6 8 -3
1532179858318298 -4 -15 -9 -1 -2 -7 -16 4
1532179858355199 -3 6 -3 -1 0 0 -11 3
1532179858393098 7 4 -8 -3 -1 -2 2 -12
1532179858429999 -2 -34 -25 -16 -7 -1 -5 -7
1532179858468904 10 18 -7 -4 0 2 -1 -3
1532179858497818 -12 -2 -3 20 7 4 -13 -6
1532179858535764 -1 -13 10 -14 -5 -4 3 -1
1532179858572649 10 67 10 11 1 -1 -13 1
1532179858610548 -5 -3 -5 1 2 -1 -1 -1
1532179858632489 11 15 -17 0 -1 3 17 -5
1532179858678367 -24 12 4 9 7 5 4 -5
1532179858708286 6 -9 -17 -8 -7 -4 -13 4
1532179858723246 -10 -22 -20 -11 -1 2 -22 2
1532179858753167 -4 -17 -12 -21 -10 -8 -10 -6
1532179858790068 -9 -13 3 -38 -5 -2 3 -2
1532179858819988 6 0 -12 -11 -2 -8 -27 -8
1532179858834948 -3 36 4 31 -5 -3 -1 2
1532179858910745 -2 69 43 -9 -13 -7 24 -7
1532179858992527 8 12 7 -4 -1 2 0 1
1532179859037407 6 14 -1 -25 -7 -2 -2 -5
1532179859060345 -27 -15 -11 4 -1 -3 -15 -8
1532179859075305 -18 -21 -16 -12 -6 -5 -6 -11
1532179859135145 8 -7 4 46 6 1 28 4
1532179859180025 1 7 14 11 1 0 2 -1
1532179859194985 4 42 1 -6 -5 -3 -5 -1
1532179859224905 -7 -6 -1 1 -2 -4 1 -3
1532179859256832 0 -3 -1 10 5 4 -2 -1
1532179859277763 12 -2 12 1 0 -2 0 5
1532179859300703 3 26 7 6 2 2 -4 1
1532179859322644 -3 31 10 -1 -5 -3 -2 0
1532179859375503 4 14 -4 4 -1 1 0 -1
1532179859405423 4 9 9 -1 -2 -1 0 1
1532179859443321 10 -19 -2 5 2 -3 2 4
1532179859473242 -5 -8 1 -3 -4 -10 -3 -2
1532179859488201 2 0 -1 -3 0 2 -1 -2
1532179859503161 -1 13 14 3 2 9 -1 -3
1532179859534078 0 -10 -1 2 2 4 -1 1
1532179859548041 0 -6 -12 -6 -4 -11 -2 -1
1532179859569983 -2 -11 -4 -6 -2 3 1 4
1532179859584943 0 -22 -6 -2 -2 -1 0 -1
1532179859599903 -3 -4 -2 32 3 -7 -1 -2
1532179859622840 -4 6 3 -8 -4 1 -1 2
1532179859645780 1 -68 -44 7 3 4 1 3
1532179859682682 6 -4 -20 -6 -4 -3 -1 -2
1532179859697640 0 2 -7 -12 -3 2 1 -1
1532179859735549 6 7 15 0 1 3 6 4
1532179859772441 7 -29 30 -1 0 12 1 -2
1532179859787401 -2 -2 -38 -2 0 2 -7 -25
1532179859818318 -3 19 -34 -1 -2 -8 -1 7
1532179859848238 2 -7 -94 -5 2 10 6 0
1532179859863198 10 9 -6 4 1 -11 -4 6
1532179859885139 7 -73 -19 1 -1 -19 8 74
1532179859900100 3 10 -14 -4 -2 10 -3 -2

1532179859930020 -7 20 14 11 2 -1 -5 -6
1532179859959940 -5 47 13 -5 -4 -5 -6 -5
1532179859997839 -11 -9 -10 -13 -8 -5 0 1
1532179860020777 -3 26 36 -47 -15 -6 -3 -6
1532179860042719 -1 -9 -25 -8 -4 -2 -1 -7
1532179860057678 9 -5 16 2 -1 -3 3 -1
1532179860072639 0 -1 -12 -2 0 -2 1 3
1532179860102577 -5 20 23 49 3 2 0 0
1532179860132478 -3 -12 -9 -3 1 2 -1 -1
1532179860155417 0 8 5 -3 0 1 -1 1
1532179860178355 -16 -2 0 5 7 2 2 0
1532179860200338 -3 -5 2 -7 0 1 0 -3
1532179860223277 6 -3 -4 -8 -3 -1 1 0
1532179860253203 4 -4 -6 -4 -1 -1 -1 0
1532179860268162 -5 18 10 3 -1 -1 0 -2
1532179860283123 -17 32 20 2 0 2 3 9
1532179860320929 7 -3 -9 -7 -2 -1 -2 -5
1532179860342873 5 -15 -10 0 3 1 -1 5
1532179860357833 0 11 1 1 2 0 -2 -8
1532179860387753 3 1 3 -3 -2 -1 9 12
1532179860410791 0 1 0 -3 -1 -1 -1 2
1532179860447693 1 2 -5 -4 1 2 -2 -1
1532179860477612 2 0 -3 2 0 1 0 -1
1532179860515324 -3 -5 -5 2 2 0 -1 3
1532179860530284 -9 3 -3 1 -2 0 -2 -3
1532179860568182 6 -2 -2 1 2 1 2 1
1532179860597890 1 -2 0 5 -1 -3 0 1
1532179860612850 2 -9 -2 0 -1 0 0 -3
1532179860635789 1 -8 -9 -1 1 1 0 -1
1532179860680669 -7 12 6 -1 1 1 1 -3
1532179860695629 4 0 0 10 4 0 1 1
1532179860717577 -8 16 16 0 -1 0 0 0
1532179860747894 3 33 9 2 1 1 -1 2
1532179860770833 2 25 44 2 1 -1 -2 -2
1532179860807734 -7 -24 22 -2 -1 2 1 -1
1532179860852615 1 -11 9 2 0 1 -3 -4
1532179860912454 -4 14 2 -3 -4 -4 -1 2
1532179860965389 -3 -16 9 0 2 -3 -1 -6
1532179860988328 2 4 7 1 0 5 2 5
1532179861018248 -4 18 13 -4 -2 31 -2 -2
1532179861055150 0 10 -3 0 -1 -4 -7 -18
1532179861122968 1 10 -10 17 6 -2 -1 -9
1532179861152888 1 26 22 -1 4 -2 0 0
1532179861222709 -5 -7 -16 -17 -8 -3 -4 -5
1532179861257608 9 -24 -19 -20 -7 -3 1 1
1532179861355347 2 1 3 13 4 -3 -1 -1
1532179861385282 -2 -9 3 2 0 -1 -2 -1
1532179861400227 -1 -2 1 4 -1 0 0 0
1532179861438125 0 2 -12 -13 -4 -1 -1 2
1532179861483004 -1 8 -9 -2 0 -1 1 -2
1532179861527885 -4 -8 2 7 -1 0 1 -3
1532179861565795 2 -5 -3 3 1 -2 -2 0
1532179861587725 0 -9 5 19 10 2 0 1
1532179861625624 0 8 -5 -2 0 0 -2 -1
1532179861647565 -3 -5 -4 10 0 0 -1 -1
1532179861677485 1 -11 -7 1 -4 -1 0 -3
1532179861715384 1 -24 3 17 -3 -2 -1 0
1532179861745304 -2 5 -3 -16 -4 -1 0 0
1532179861768242 -1 5 -8 -9 -1 0 0 -1
1532179861805144 -1 4 2 0 3 2 0 -1
1532179861843042 -6 -2 0 1 2 -2 1 1
1532179861879944 0 -6 -10 8 3 0 1 5
1532179861932803 -4 7 2 0 0 0 -1 -3
1532179861955741 -4 6 -9 0 -1 -1 -1 -4
1532179861985661 -14 0 0 2 0 1 -1 -2
1532179862007602 10 -4 -4 -6 -3 -3 -4 -1
1532179862037522 7 -10 6 0 -1 1 7 15
1532179862075436 5 -3 7 2 -1 2 -3 -3
1532179862128280 -16 4 18 1 -2 -4 -2 -8
1532179862165181 -7 8 -12 -4 -1 0 -3 -2
1532179862188120 1 -13 -7 -2 2 1 0 -6
1532179862218040 -26 -9 -11 -13 -4 0 5 22
1532179862247960 14 20 0 8 2 1 -1 -3
1532179862300818 -23 -20 2 2 -1 0 1 -2
1532179862345698 27 10 -2 -4 -1 0 2 11
1532179862367640 9 -3 21 6 1 1 1 20
1532179862427480 -18 -41 10 1 -4 -2 -5 -20
1532179862488317 11 19 0 1 -1 -4 -6 16
1532179862555139 -27 -21 -5 0 0 3 -4 7
1532179862585058 -15 -17 -3 0 0 -1 7 -9
1532179862600019 -7 -5 -6 -1 0 -1 4 -10
1532179862659858 11 0 -13 0 0 1 11 1
1532179862682813 3 -2 2 1 -1 -2 -6 -18
1532179862727677 -8 -12 3 1 -1 0 0 -1
1532179862787517 -4 3 0 0 -2 0 -2 -3
1532179862848366 -26 1 -1 0 -2 0 -3 -18
1532179862982994 -8 -2 -1 -2 -1 1 -2 -7
1532179863035852 -4 4 1 -3 -1 -1 -1 -3
1532179863081730 5 8 0 -1 -2 0 0 1
1532179863102674 -5 -16 -2 -1 0 0 -1 -1
1532179863132594 -1 -9 8 5 2 0 0 -2
1532179863155533 1 36 7 -1 -1 0 0 -4
1532179863185453 0 -30 -20 -3 1 3 3 4
1532179863207394 2 -14 4 4 0 0 -1 -1
1532179863230332 -2 9 -4 -2 0 -2 0 1
1532179863260253 -1 50 13 0 1 3 -1 -1
1532179863283191 -3 38 11 -4 -3 -3 -3 -5
1532179863320102 3 -24 4 24 7 0 -1 2
1532179863343031 -2 -16 7 63 13 2 0 1
1532179863379933 -2 10 3 -15 -2 -2 0 0
1532179863402871 0 -10 -2 10 -2 -1 -1 -2
1532179863464706 -14 7 -21 -21 -5 0 1 0
1532179863492631 2 -8 10 3 4 5 0 5
1532179863515570 -19 -16 -6 3 -1 -3 -1 -2
1532179863575411 -1 5 -1 -1 -1 0 0 -4
1532179863590369 -43 -8 1 7 4 6 2 -3
1532179863605330 10 7 -2 1 1 -3 2 2
1532179863635250 2 -1 0 8 -5 -5 -1 -3
1532179863673149 4 -23 -9 1 -5 -12 -6 -2
1532179863704075 -5 -22 -14 -19 -1 1 -2 -2
1532179863754930 7 -8 -9 6 8 3 0 3
1532179863777869 7 -11 2 7 4 3 -2 0
1532179863815767 -4 -28 6 6 4 0 0 1
1532179863837709 -6 -19 2 37 1 3 0 -3
1532179863852668 -1 19 23 -9 -3 1 2 0
1532179863867629 7 -14 0 -6 -1 11 1 2
1532179863882588 -17 6 -2 4 0 -4 0 -4
1532179863905527 5 -4 -7 9 3 6 7 3
1532179863927468 -6 -6 -6 2 -3 -4 -2 -3
1532179863950407 3 6 -8 -7 -3 -3 -2 -1
1532179863980327 -1 0 5 5 3 0 -1 -5
1532179864003265 3 2 3 11 -1 0 -2 5
1532179864018226 -14 -20 -4 -3 -3 0 -2 -9
1532179864070087 1 -2 3 0 -2 -1 -1 1
1532179864093026 0 -7 -5 -3 -1 1 2 -1
1532179864107986 -15 -8 -10 1 1 -1 0 -3
1532179864129927 4 -18 -6 3 -2 -1 0 3
1532179864144887 3 -1 0 -10 -3 -1 -3 -2
1532179864175805 -5 -27 11 9 3 1 -2 -1
1532179864205724 -2 1 7 3 3 -3 0 1
1532179864235644 -21 19 2 5 3 1 1 -4
1532179864257593 7 0 -8 -5 -2 -1 0 5
1532179864287505 -14 -11 -5 5 0 2 1 -7
1532179864317426 6 -25 1 0 -1 0 1 -1
1532179864348343 5 -10 0 -6 -3 -2 -1 -1
1532179864400210 25 16 -4 -2 -3 -2 -1 2
1532179864415164 -7 6 1 -4 -2 -3 -1 -4
1532179864519885 3 15 -10 1 1 0 -2 10
1532179864542823 11 -27 -1 -2 -3 -2 -2 -5
1532179864617623 -2 19 28 1 0 -1 -1 -1
1532179864647543 3 -10 -4 -2 -2 -1 -1 1
1532179864700402 -4 29 -10 -4 -4 -2 -1 1
1532179864738300 4 4 2 0 2 3 0 -2
1532179864783193 0 0 -10 -5 -3 -2 -2 -1
1532179864813100 -8 -2 2 3 1 -2 -2 -1
1532179864843021 0 12 5 2 0 -1 -1 0
1532179864879921 -1 -7 9 9 8 4 0 0
1532179864925799 -4 0 -1 -6 -4 0 0 -1
1532179864940759 -1 6 -42 0 -2 1 8 4
1532179864962701 6 4 6 2 2 1 0 2
1532179864977661 8 18 1 -4 0 1 -4 -1
1532179865009575 -8 -12 -22 -16 -4 -3 2 -2
1532179865037500 2 -2 15 -6 -3 -1 0 0
1532179865052460 -11 -6 1 -2 1 1 -2 -1
1532179865082380 0 -8 -9 1 3 -1 0 2
1532179865105319 2 -1 -13 -9 -3 0 12 3
1532179865128258 -5 5 7 -17 -7 -4 7 -1
1532179865150199 6 -4 -5 0 2 0 16 1
1532179865173138 -15 -10 -2 8 3 3 -39 4
1532179865188098 17 16 29 9 1 2 6 8
1532179865210038 -9 6 -4 13 -2 -4 29 -7
1532179865262897 5 1 -9 2 3 5 0 0
1532179865292817 -5 -46 -14 21 6 3 -15 10
1532179865307777 -34 -70 -28 -9 -6 -23 2 -25
1532179865360636 17 23 22 0 -3 -4 48 4
1532179865382577 -9 7 5 3 -6 -17 10 -17
1532179865412497 -3 -3 -5 -1 2 -1 22 3
1532179865435436 4 13 -37 -6 3 4 -72 -1
1532179865480316 -12 -10 -8 0 -3 -3 -7 -7
1532179865533175 -7 -8 -4 -12 -6 -9 -17 -2
1532179865548135 -7 -24 5 1 3 -2 11 -5
1532179865578055 10 3 4 -2 0 2 5 2
1532179865599997 13 14 11 16 4 2 -16 2
1532179865644876 -2 -4 0 9 -1 -1 -12 -4
1532179865675794 -4 13 2 -3 1 0 -2 -2
1532179865690753 -2 0 -2 8 3 12 15 5
1532179865757575 22 22 22 27 7 1 -24 3
1532179865772535 4 4 43 40 7 0 -8 3
1532179865810433 11 13 -5 -9 -10 -11 10 -1
1532179865825393 -19 -35 3 -8 1 5 33 1
1532179865848332 0 -7 -24 -5 3 -2 33 1
1532179865870273 1 52 28 35 8 6 -4 -7
1532179865885233 15 -7 -12 3 -11 -6 10 4
1532179865923132 -14 -26 -1 8 8 12 24 8
1532179865960033 11 21 -6 8 5 -3 22 -11
1532179865982972 -20 -23 -12 -15 -9 -4 4 -43
1532179866012892 4 0 -1 -3 1 1 54 1
1532179866035848 -10 -27 28 13 4 5 -8 15
1532179866050791 6 -13 -37 -13 -9 -8 -10 -4
1532179866072732 17 41 18 6 -2 -1 -3 0
1532179866087692 -3 -20 -9 -7 -4 -5 -2 5
1532179866110630 -3 0 43 24 2 -1 -13 0
1532179866132572 -5 2 3 -14 -2 3 8 3
1532179866147532 6 -9 12 2 3 3 0 5
1532179866170471 -1 2 -9 -3 -2 -3 4 2
1532179866200390 -18 11 10 0 -1 0 -6 -14
1532179866230311 -6 4 -12 -1 -2 -5 1 -6
1532179866253249 -2 17 5 3 3 -1 -55 -6
1532179866275190 14 10 7 7 5 7 10 4
1532179866305111 -4 -2 -9 -21 -7 -1 10 -10
1532179866320071 12 24 13 43 9 5 12 11
1532179866343009 -5 -15 -1 -12 0 6 19 -3
1532179866364951 10 13 25 14 3 1 1 3
1532179866379911 11 30 9 12 9 4 -1 3
1532179866402849 -34 -41 -18 -20 -12 0 22 0
1532179866425788 -18 -33 -13 -1 1 2 -2 -4
1532179866440748 -5 28 15 0 -4 -4 -8 -3
1532179866462689 -11 -8 -3 -14 -2 0 -10 -4
1532179866485627 -11 -45 -16 4 0 -6 -11 -17
1532179866515548 24 39 1 4 -3 -2 -2 13
1532179866545468 -2 -19 -3 -2 -2 -6 -91 -1
1532179866567409 12 19 5 2 1 2 14 -6
1532179866590348 -1 14 5 -7 1 1 27 4
1532179866635228 4 -1 -14 -16 -8 -8 -8 1
1532179866658166 -7 5 9 -12 -3 -1 1 -1
1532179866703047 7 38 54 5 -3 -3 7 1
1532179866718006 -21 4 1 -7 -2 -2 -4 -7
1532179866762886 -2 -20 -26 -5 -3 3 8 -1
1532179866785832 -34 7 6 7 3 4 -1 -1
1532179866815744 -10 17 -12 0 2 2 0 -10
1532179866830705 -1 -16 -10 -5 0 1 2 -7
1532179866867606 3 4 8 16 1 -2 -10 2
1532179866890545 -4 5 -27 -23 -5 -2 6 -6
1532179866927446 4 10 15 13 -1 -1 17 2
1532179866950385 -10 -7 0 2 3 1 -16 5
1532179866973323 -13 -10 12 2 1 0 1 -4
1532179867010225 6 -16 -14 2 1 4 12 6
1532179867033164 6 -10 10 -3 2 2 10 3
1532179867055105 -9 -17 -10 -9 -2 -2 11 -17
1532179867070065 0 0 1 2 3 7 57 -52
1532179867093004 -20 -2 -11 -2 0 2 -5 23
1532179867114945 -9 3 13 -2 2 0 2 3
1532179867129905 13 26 -3 -2 -2 -6 -36 15
1532179867167804 -12 -30 -41 -41 -7 -5 -13 11
1532179867182764 33 32 -4 27 5 1 -5 3
1532179867205702 -7 -4 -48 -2 3 4 15 -2
1532179867242604 -9 -18 -3 9 2 1 8 4
1532179867265541 -25 -17 27 4 -2 -1 -8 -4
1532179867317404 15 28 -7 10 3 1 2 3
1532179867333361 19 8 6 5 0 -1 4 2
1532179867348320 5 -21 6 -9 -6 -2 0 0
1532179867378241 -19 -57 -7 -1 0 3 0 -2
1532179867393201 -1 -69 -12 -4 0 3 -1 0
1532179867430109 -5 11 -2 4 0 3 1 -4
1532179867460022 -3 -55 -32 -9 -8 -13 -3 -3
1532179867474982 -2 -66 -14 -2 2 0 0 1
1532179867504901 -1 11 -7 -2 -5 -13 -3 -3
1532179867535819 2 -14 10 11 2 -10 2 2
1532179867565739 5 17 3 5 2 20 1 2
1532179867595659 -1 -4 10 6 6 12 1 -2
1532179867625580 -9 46 4 3 -3 -8 -3 -3
1532179867647520 -6 7 8 -5 -1 -8 -1 1
1532179867662481 4 13 5 5 2 5 2 0
1532179867677440 3 -16 -5 -3 -1 -11 2 1
1532179867700385 10 -42 -25 1 -1 -1 1 3
1532179867715339 9 -31 -4 -3 -3 -2 -1 -2
1532179867739276 -11 -12 -8 -1 -3 0 1 -2
1532179867768198 -3 20 34 -6 -2 1 -1 0
1532179867790139 4 28 11 -3 -2 -14 -5 -2
1532179867813078 -2 19 109 7 1 -1 -7 -10
1532179867842998 2 45 -34 2 6 -10 3 -47
1532179867872918 -11 5 -17 -1 2 37 13 -5
1532179867910817 -9 10 -43 -1 0 -18 -14 -6

1532179867977638 13 7 -78 -10 0 -11 -3 16
1532179867992598 4 -1 28 -10 -5 -7 -9 -1
1532179868030505 -1 18 26 4 0 1 -2 -2
1532179868045457 4 -31 27 8 1 -7 -1 6
1532179868082359 15 -41 19 -7 -3 0 -6 -7
1532179868105297 -7 -17 -15 2 -1 3 -1 -4
1532179868135216 1 -16 -2 1 0 -6 -1 5
1532179868158155 -1 1 16 -3 0 0 0 0
1532179868195056 0 -15 -8 1 -2 -1 1 -1
1532179868224977 7 -12 -8 4 2 -2 0 -3
1532179868300780 -2 18 9 6 0 -1 1 2
1532179868337690 -4 0 2 -1 2 0 1 0
1532179868382569 -1 -1 8 4 0 -3 1 1
1532179868397528 0 -8 -1 -2 1 -1 0 -1
1532179868442409 -7 0 -33 -3 -2 -1 -3 1
1532179868465348 1 -2 20 3 1 -2 -2 -3
1532179868495267 2 0 -4 -3 -1 -4 -2 0
1532179868533167 -7 0 11 0 1 1 -1 -3
1532179868578046 2 9 2 -2 0 -1 0 2
1532179868622926 -5 -44 -7 -4 -3 -1 -1 -4
1532179868652850 0 8 6 -1 -2 0 -1 -2
1532179868682766 -1 10 7 1 0 -3 -3 -5
1532179868697726 5 3 4 0 -1 -1 -1 1
1532179868735625 -8 -1 2 -2 0 0 5 2
1532179868757908 2 -23 1 -1 -2 -1 -3 -1
1532179868795807 3 9 -10 -3 -2 2 2 1
1532179868825727 -14 -9 -10 0 1 1 -2 -3
1532179868870607 -7 -18 -3 2 0 -1 -1 -1
1532179868892563 6 22 -7 -1 0 0 0 -1
1532179868937452 -4 8 -27 -5 -4 -3 0 2
1532179868975351 -3 15 17 1 -1 0 -1 -1
1532179868998292 4 2 8 0 -1 0 2 3
1532179869035191 -4 -5 31 2 0 3 -4 -5
1532179869065111 -1 21 13 0 0 0 0 -3
1532179869109991 -1 -1 -6 -2 -2 0 0 4
1532179869155867 9 -2 2 -1 0 1 -2 0
1532179869185788 1 -7 -9 2 -2 -1 1 -1
1532179869222690 -1 15 -5 -1 -1 -4 2 3
1532179869245628 -2 5 -1 -1 1 1 0 -1
1532179869290821 -10 -5 0 1 -1 1 1 2
1532179869312762 -2 10 2 0 0 1 0 -1
1532179869365621 2 -38 9 -1 -1 -1 2 2
1532179869432441 -1 16 0 -1 -1 -1 1 1
1532179869485301 -3 -5 1 2 -1 1 -2 0
1532179869530196 4 10 -3 -2 0 -1 -2 1
1532179869560101 -2 12 5 1 0 3 1 0
1532179869604981 2 -12 -6 0 0 -3 -4 -4
1532179869642879 -1 1 -1 -1 -1 1 1 4
1532179869687800 2 17 7 0 0 1 1 0
1532179869777913 0 11 2 1 1 0 -2 -2
1532179869792874 -1 2 1 0 -2 -1 0 -1
1532179869830784 1 16 5 -15 -7 -4 1 -1
1532179869845732 -2 0 -1 0 2 0 1 -2
1532179869875652 -3 4 -4 -4 -2 -3 -1 -1
1532179869897593 -5 -50 -11 0 -1 0 1 -3
1532179869927513 6 -20 -8 -3 -1 1 -1 1
1532179869942473 2 -3 -3 0 2 0 0 -2
1532179869980371 1 3 2 -1 0 1 -1 0
1532179870010292 3 3 0 2 2 1 -1 0
1532179870048191 2 11 4 0 0 -2 -1 -2
1532179870085092 -2 8 -1 1 -1 -5 -1 0
1532179870115013 3 15 4 -1 -1 -1 1 1
1532179870168066 -3 -24 -8 -3 0 -2 -5 -5
1532179870219928 -9 27 1 2 -1 0 -2 -2
1532179870265805 -16 -71 -13 -4 0 1 -2 -3
1532179870287746 -5 -19 9 7 5 19 7 6
1532179870310684 -2 -33 3 -2 -7 84 -36 -67
1532179870332627 11 73 5 -4 -3 13 12 1
1532179870392467 0 57 71 1 4 -16 5 3
1532179870422387 -5 57 5 -16 -11 -4 -13 -12
1532179870445325 -2 -30 -39 9 5 5 1 3
1532179870460285 0 -18 25 0 2 -5 1 1
1532179870498184 -4 15 35 3 0 -4 0 2
1532179870535085 5 -3 29 60 13 4 3 4
1532179870550045 -6 7 20 -9 -5 -3 -2 -4
1532179870587943 -3 -6 -8 -13 -6 -2 -2 -1
1532179870602921 0 -4 -5 -13 -3 0 -3 -2
1532179870624845 -3 -9 -11 -7 -1 -1 2 -2
1532179870655762 1 1 -1 -6 2 3 0 -3
1532179870670722 15 -5 -13 -6 -3 -4 -4 -2
1532179870685682 1 -12 5 -3 -5 -3 -1 -1
1532179870722583 -1 -8 -15 4 2 -1 -1 5
1532179870752504 -9 4 15 11 1 -3 0 -7
1532179870767464 10 4 -4 -13 -6 -2 -2 0
1532179870782424 -15 -5 -2 -1 2 2 -1 -3
1532179870820322 3 -5 -7 -8 1 0 1 -1
1532179870850241 -4 -7 -25 17 3 -2 -1 1
1532179870880179 -8 -4 18 -11 -2 -1 -1 -2
1532179870895122 -2 5 8 -6 -5 -2 -1 -1
1532179870918060 1 13 1 1 0 0 0 -3
1532179870940002 -3 -3 6 2 -1 -2 -1 -3
1532179870962941 -1 -1 -40 2 -4 -3 0 0
1532179870984882 2 -29 -35 -16 -7 -2 -2 2
1532179871000839 2 4 32 6 0 -1 -1 -4
1532179871037741 -3 2 13 8 1 0 -1 -4
1532179871052700 -1 -10 1 -2 2 2 -1 -1
1532179871067661 3 -28 26 -7 0 1 1 2
1532179871105559 1 12 26 1 -2 -2 -1 1
1532179871127500 0 -3 19 2 2 0 0 0
1532179871150439 -2 -1 3 -6 -4 -3 0 -1
1532179871188338 4 7 -1 -3 -3 -2 -1 0
1532179871210279 -11 4 -6 1 0 -1 -2 -4
1532179871240199 3 26 9 -3 -1 0 1 1
1532179871263137 -3 2 -11 7 0 1 0 -2
1532179871278098 -5 -20 -37 -4 -2 -2 0 -4
1532179871308018 8 1 1 3 1 -1 -2 1
1532179871329959 4 -8 11 -11 -1 1 1 5
1532179871344920 -7 -5 -17 13 1 -3 -1 -2
1532179871375837 3 17 8 4 -4 -4 0 0
1532179871397777 -2 -5 4 -3 -2 -1 -1 0
1532179871412738 1 5 9 -1 -3 -2 0 1
1532179871435676 8 11 7 3 -1 -3 -1 1
1532179871457618 3 -16 4 0 -2 -3 1 1
1532179871472578 -6 -21 -2 -13 -1 -1 -1 -4
1532179871495517 0 -17 9 -2 -1 0 -1 -2
1532179871517458 1 -14 6 11 1 1 -1 -5
1532179871532418 -12 -9 -9 -8 -4 -2 0 -9
1532179871555357 13 6 -4 -3 0 0 0 1
1532179871585277 -12 5 -9 1 -1 -1 -4 -11
1532179871600236 1 8 -3 -3 -2 -2 -1 3
1532179871630157 11 11 -5 -7 -2 -1 2 4
1532179871645116 3 -33 19 4 -1 -2 -2 -3
1532179871668055 7 19 25 -2 -1 0 -1 -3
1532179871683015 21 -9 53 3 2 3 2 6
1532179871704957 14 -1 -15 2 3 1 2 5
1532179871735873 -6 -16 -19 -4 -1 0 -2 -4
1532179871757815 9 6 -46 14 5 1 2 4
1532179871772775 -5 -10 -52 2 0 1 1 2
1532179871795713 8 10 36 2 0 1 -1 -1
1532179871817655 -5 15 -5 -3 -1 1 3 4
1532179871840594 -5 17 -11 0 2 0 -1 -3
1532179871862535 -11 -10 -28 0 -2 0 -2 -4
1532179871900434 -2 -34 -16 -7 -4 -1 5 4
1532179871915394 -1 13 8 1 2 0 -3 -3
1532179871945313 6 -20 -4 -2 0 -2 -5 -16
1532179871983212 2 17 13 -3 -2 0 0 1
1532179872005154 5 -1 -4 -1 0 0 0 2
1532179872035083 4 -8 -5 0 2 -1 -9 -25
1532179872058012 21 13 9 0 -1 2 4 9
1532179872094914 7 8 -1 -1 0 0 -2 6
1532179872109874 19 3 -4 1 -1 0 3 10
1532179872132813 5 -5 -7 -8 1 0 0 3
1532179872155751 3 13 13 15 4 2 2 0
1532179872185685 1 10 2 -6 -1 -1 -2 -2
1532179872215591 0 -8 -4 -6 0 -2 -1 -2
1532179872230551 -12 -3 5 -1 1 1 2 -3
1532179872252501 11 -10 3 -7 -1 0 0 1
1532179872282412 -1 5 -6 -6 -3 -3 -2 -4
1532179872335271 -8 -7 2 -5 0 1 -4 -12
1532179872350231 3 0 4 5 0 -1 0 -3
1532179872373170 -1 1 4 -5 -3 -1 -1 -3
1532179872410071 7 17 -3 -3 0 0 0 -9
1532179872454971 -11 -18 -3 -1 -1 0 -4 -14
1532179872477909 6 18 1 1 -2 -1 -2 -1
1532179872492870 -1 7 -5 3 -2 -1 -2 -4
1532179872515808 0 -3 -1 -2 -3 -2 -3 1
1532179872537749 2 4 2 2 -1 2 -1 -4
1532179872552710 8 -4 0 1 -2 -1 0 -3
1532179872590608 0 1 0 -1 0 -1 0 -1
1532179872620527 -3 12 2 0 -2 -1 -2 2
1532179872642469 1 36 2 -1 -1 -1 1 2
1532179872672389 0 -13 -2 0 0 -2 -6 -2
1532179872703307 1 -32 -12 3 8 8 1 4
1532179872725248 9 37 15 1 -2 -10 -4 1
1532179872748186 4 40 9 -3 -6 -7 -2 1
1532179872800048 -4 41 18 -2 0 -2 1 -1
1532179872815008 -2 -10 19 -3 -4 0 -1 -1
1532179872829968 0 -34 8 -3 -3 -5 -2 2
1532179872852907 3 22 -2 21 11 4 2 0
1532179872890820 -1 4 11 -7 -6 -15 -3 0
1532179872912746 -4 -12 -2 -13 -3 -2 -2 -1
1532179872942667 -3 5 5 21 4 0 -2 -1
1532179872972587 -8 -61 -18 1 4 4 1 -1
1532179872995526 0 23 -5 3 1 -1 -3 -1
1532179873010485 0 25 2 15 2 0 -1 0
1532179873032426 -1 -3 1 -12 -1 6 2 0
1532179873063343 -13 -42 7 -6 -3 -2 0 -2
1532179873085285 -8 -11 -5 -7 -1 12 2 0
1532179873100245 -2 24 11 -6 -2 -2 -2 -2
1532179873130165 7 -15 -6 0 -1 -3 0 2
1532179873145125 -6 -12 -18 -14 -4 -2 -4 -2
1532179873168064 -2 13 -6 -7 0 -2 -2 -2
1532179873183023 -5 -12 -3 1 0 10 2 -3
1532179873212944 6 -4 0 17 0 3 0 0
1532179873250843 2 40 -1 2 3 2 2 1
1532179873280763 -2 -9 -12 5 -2 -2 2 3
1532179873295722 -2 -12 12 -1 -2 -6 3 -1
1532179873325642 3 -23 -23 2 2 3 3 2
1532179873370522 6 -16 -5 -10 -2 2 -1 3
1532179873415403 0 3 -2 -4 -1 4 0 1
1532179873445322 5 -5 4 1 -1 -8 -2 2
1532179873490203 -9 5 -3 -3 0 0 -1 1
1532179873528101 11 -1 -5 0 -2 -2 2 1
1532179873558021 -2 20 15 2 0 1 -2 -3
1532179873587941 5 -11 -14 -5 -1 -4 1 5
1532179873647781 11 12 3 -6 -5 3 -1 3
1532179873662741 -32 32 11 -5 1 -1 0 -6
1532179873715599 13 2 3 11 0 -4 -1 0
1532179873730559 15 -18 -17 12 -2 -4 -3 1
1532179873760479 -19 13 0 2 3 -1 1 -3
1532179873790400 5 -16 -7 -6 -3 -3 0 5
1532179873813338 9 5 -5 -5 -3 -1 -1 0
1532179873843259 -15 -2 -3 2 0 2 1 -2
1532179873918059 10 -6 -5 -5 -3 -3 0 7
1532179873933018 -1 -20 -3 -5 -1 -2 -3 -4
1532179873947978 10 -23 13 -3 -6 -5 -3 -2
1532179874007818 2 14 4 7 4 0 1 4
1532179874037738 6 -4 -6 -3 0 0 -1 -6
1532179874060677 -15 12 4 0 2 0 -1 -4
1532179874082631 -7 6 -3 -1 -2 -2 -1 1
1532179874112539 -1 12 5 -1 -3 -1 -1 0
1532179874135486 3 -6 1 -3 0 -2 3 10
1532179874157418 10 -2 -3 0 -3 -3 -2 -4
1532179874203295 -5 23 6 2 0 -1 -2 -5
1532179874248175 3 -2 -1 1 1 -1 0 0
1532179874263136 -10 -5 -1 1 2 2 -1 -2
1532179874293055 -1 5 17 0 2 0 0 -2
1532179874359877 2 4 1 -2 -3 -2 -2 0
1532179874375834 -4 1 -4 2 0 1 0 -3
1532179874390794 4 7 -3 -2 -1 -2 4 7
1532179874413733 5 -20 -4 -4 -4 -2 -11 -1
1532179874435681 -2 -25 -7 -4 -2 0 0 -2
1532179874472575 1 -28 1 -4 -3 -1 -1 -3
1532179874487536 -4 18 4 -1 0 -1 5 0
1532179874510475 14 -5 -9 2 1 0 -5 -1
1532179874563333 0 6 5 -2 -3 -3 0 1
1532179874600234 0 4 -12 11 4 1 -2 -1
1532179874683013 0 6 15 3 0 0 0 1
1532179874712933 3 6 1 9 2 4 -39 -1
1532179874750831 -5 -4 -37 1 3 4 -32 -4
1532179874832613 -18 -8 43 11 -3 -1 2 0
1532179874870512 0 -9 -21 7 -1 2 -39 0
1532179874907412 7 15 12 0 0 4 8 6
1532179874931348 1 14 12 -3 -2 -3 13 -2
1532179874953290 -2 -8 -17 -13 -1 -1 14 -3
1532179874998169 -2 -7 0 -2 -2 0 22 -3
1532179875028090 0 5 5 0 -2 -3 -1 2
1532179875043051 4 -3 -13 -7 -4 1 -1 1
1532179875072970 2 -5 -1 4 -1 1 49 3
1532179875110868 4 1 6 2 -3 -5 -48 -5
1532179875132811 21 18 17 10 6 7 0 -4
1532179875155749 -4 -9 -2 -1 3 2 10 -3
1532179875177690 -10 9 7 19 6 0 1 0
1532179875192650 -2 -1 8 11 4 1 -2 -4
1532179875215589 -14 -11 -36 -35 -9 -5 -8 -6
1532179875237529 -9 -37 1 -8 -6 -3 2 -1
1532179875275429 18 23 1 4 -1 0 -2 1
1532179875297369 3 -5 -4 -34 -12 -4 46 1
1532179875320308 -6 -29 18 10 0 -1 4 4
1532179875343247 10 12 18 6 0 2 -9 -2
1532179875380149 9 29 7 5 0 3 -39 -48
1532179875395108 -24 -10 24 13 11 14 42 31
1532179875439988 8 32 9 2 -2 -3 -9 7
1532179875462927 1 -8 4 2 2 1 50 15
1532179875492847 7 -8 4 60 13 9 13 7
1532179875516783 2 -15 -5 -10 0 -3 -3 3
1532179875567647 3 -1 -7 -9 -2 0 -4 4
1532179875627487 2 -4 -8 -14 -10 -5 -5 0
1532179875673364 1 1 -12 -7 -9 -5 44 2
1532179875695306 -9 5 2 -4 -3 -1 27 -10
1532179875748165 -3 1 -18 -18 -6 -5 -24 6
1532179875785066 11 2 42 35 4 1 -9 17
1532179875965583 9 13 16 -2 -1 -4 16 -14
1532179876063322 14 8 -14 13 12 8 1 7
1532179876093241 -8 -16 -2 -11 1 1 -9 -1
1532179876115183 -13 -11 13 6 -1 -3 4 2
1532179876153082 2 -19 19 27 12 7 -1 -1
1532179876175023 0 25 21 -11 -7 -3 25 2
1532179876227881 10 21 11 3 2 0 11 59
1532179876250821 -10 7 -11 -4 -5 -5 -38 -22
1532179876310660 -11 -5 2 -4 -1 1 24 12
1532179876362521 -4 5 -9 -11 1 0 -3 0
1532179876407402 4 4 -3 -12 -9 -5 -33 -1
1532179876423359 -16 -14 -14 -20 -3 -1 -10 -4
1532179876505140 4 -12 -16 4 4 5 7 -2
1532179876557999 1 8 1 -17 -4 -3 -1 2
1532179876579940 6 0 1 1 1 0 2 0
1532179876596895 -13 -17 -17 0 0 1 0 -2
1532179876617838 12 15 9 5 -1 0 -1 3
1532179876662719 1 -33 -12 3 2 0 1 2
1532179876692639 -1 -13 -14 0 -2 -1 0 -1
1532179876722559 -1 -3 4 1 -2 -1 -1 0
1532179876745497 1 -18 -1 1 1 0 -1 -1
1532179876775418 -3 -27 -18 -7 -1 1 0 0
1532179876790378 2 30 15 -7 -2 -3 -2 -3
1532179876835257 -1 15 5 -3 -2 1 2 0
1532179876865178 3 -2 -2 -5 -3 -5 1 1
1532179876895098 0 2 -14 -12 -2 -4 1 -2
1532179876910058 0 -5 -3 0 -1 0 -1 0
1532179876947956 14 -6 -26 0 -1 0 -1 4
1532179876962917 3 -11 1 -3 -2 0 1 -1
1532179876977883 2 -22 -15 -4 -2 -2 -1 0
1532179877015774 2 13 3 3 -1 -4 -2 0
1532179877037716 2 16 20 19 1 0 0 1
1532179877060655 -1 -24 -5 33 6 1 1 0
1532179877082596 -19 24 8 -17 -4 -2 -1 -6
1532179877097556 5 -3 45 -6 -1 0 0 0
1532179877120494 10 11 -5 -10 -2 0 0 2
1532179877180334 -4 24 -25 -7 -2 -1 -2 0
1532179877218233 12 4 8 -7 -2 0 1 5
1532179877248154 -24 -34 -2 -11 -13 -10 4 -47
1532179877278073 -10 -28 -6 -7 -6 -23 -17 -21

1532179877314974 -6 -22 91 -2 0 4 5 -4
1532179877337913 -1 -24 -52 -2 5 4 -4 7
1532179877352873 2 -12 -35 4 3 2 -2 6
1532179877367833 6 36 -21 -3 -5 -3 -2 2
1532179877389881 2 19 -2 -5 -4 -3 -3 -6
1532179877412803 -3 30 -6 3 0 1 -3 4
1532179877427764 5 19 22 -7 -5 -6 -2 4
1532179877450702 5 2 -9 -1 -1 -2 -4 -8
1532179877472643 -2 21 14 2 3 -2 -2 3
1532179877503131 0 10 11 -3 -1 -2 -2 -3
1532179877525072 2 1 -8 -1 -3 2 -1 -4
1532179877554992 0 1 -3 0 0 1 4 6
1532179877569952 -1 1 10 -6 -2 1 0 0
1532179877592890 0 10 0 1 0 0 -3 -3
1532179877607850 5 -4 -1 0 -1 -2 -1 -1
1532179877637771 2 -1 1 -1 -3 -1 3 6
1532179877660709 -4 -16 -17 -3 -1 -2 -2 -2
1532179877675680 -2 18 2 11 0 -2 -3 -3
1532179877697610 1 -13 -7 1 0 1 -1 -1
1532179877720549 -2 -1 -1 -3 -2 0 0 -1
1532179877735509 0 -13 -7 1 2 -1 0 1
1532179877780389 -2 2 -5 -2 0 0 -1 -3
1532179877818288 2 12 -1 -2 -1 0 -1 -4
1532179877840253 0 12 7 -3 -1 -1 -1 1
1532179877863192 1 3 2 1 0 -1 1 1
1532179877885133 -2 -3 5 -2 -3 1 -3 -1
1532179877908072 -3 -26 -13 0 1 -2 -1 -3
1532179877923050 -1 9 5 0 -4 0 -2 -3
1532179877944991 -3 -3 2 -1 -2 -1 -3 -4
1532179877974911 3 4 4 2 0 -1 0 1
1532179877989871 0 10 -2 1 0 0 -2 2
1532179878012810 2 -3 -3 -2 -2 0 -3 0
1532179878050709 -1 4 -4 1 1 0 2 1
1532179878095588 -2 -12 -4 -3 0 -1 0 0
1532179878162410 -1 11 4 3 -2 -1 -4 -3
1532179878230229 -1 -23 -4 -1 2 0 0 0
1532179878260148 -3 0 -1 -1 -3 0 6 5
1532179878298047 -2 3 6 -1 2 5 1 0
1532179878313007 0 -18 -9 -2 0 -2 0 0
1532179878335358 1 12 10 1 -2 -1 -5 -1
1532179878365278 1 -4 5 -3 1 0 4 5
1532179878395198 3 34 10 -1 -1 -1 1 0
1532179878410158 0 4 3 0 -2 -1 -1 -1
1532179878425118 -3 -13 -7 -2 1 -2 -2 -2
1532179878440078 2 8 -2 -3 -3 -1 0 0
1532179878469998 1 6 2 -1 -1 1 -1 -1
1532179878484957 -3 -5 0 0 0 1 -1 -2
1532179878522857 3 0 4 0 1 0 7 6
1532179878545796 0 18 12 -1 -2 -2 -2 -3
1532179878582558 1 0 -5 -1 -1 -1 -2 -2
1532179878620456 -4 -19 -11 -1 -1 1 -2 -4
1532179878665336 -2 -20 -6 0 0 0 -2 -1
1532179878695255 2 -10 -10 -1 1 2 5 5
1532179878733161 -5 12 12 -1 -1 -2 -2 -3
1532179878755102 1 0 -6 -2 -1 -1 -2 -1
1532179878785022 2 20 3 -1 0 -2 -1 -3
1532179878799982 -2 -29 -9 -1 -2 -1 -1 -1
1532179878814942 0 1 -5 0 -1 -2 -1 -1
1532179878837881 5 1 2 1 -1 -1 3 4
1532179878867801 0 6 10 1 0 0 -1 -1
1532179878920660 -3 7 -3 -1 -1 0 0 -2
1532179878957561 1 -4 -5 -3 -1 0 0 0
1532179878995459 3 -2 -9 -2 -1 0 -1 0
1532179879033358 -1 -1 -4 1 0 0 4 4
1532179879048334 -2 -29 6 0 -2 -1 -2 -4
1532179879063278 6 24 7 -2 1 1 0 1
1532179879115139 0 -5 -2 -1 -3 -1 -2 0
1532179879160261 5 14 1 2 -2 0 -1 1
1532179879175232 2 0 1 0 0 -1 -1 1
1532179879250021 1 8 4 -1 1 2 0 0
1532179879287920 -3 -15 -3 -1 -1 0 -1 -2
1532179879317840 1 0 3 0 -1 0 -1 0
1532179879355738 0 -14 -1 0 -1 -1 -1 -1
1532179879392640 3 -7 -5 6 2 -1 3 4
1532179879415577 -2 -10 -7 -5 -2 -8 -3 -2
1532179879437519 -1 -3 30 -1 -3 -7 -1 -4
1532179879467439 -4 28 15 0 -1 -11 -2 -22
1532179879498356 -14 26 10 0 3 0 3 3
1532179879535258 -6 11 4 -1 -15 -38 -13 -69
1532179879558197 11 47 -11 0 -1 -19 0 -2
1532179879580138 -7 -8 -4 -3 -3 -5 10 21
1532179879610058 6 -70 -15 -1 5 2 6 14
1532179879639978 -6 -50 -13 -13 -1 6 3 0
1532179879662917 0 16 18 -14 -4 -3 0 -10
1532179879685945 3 15 -3 61 17 4 4 10
1532179879722848 2 17 -14 -6 -3 0 -2 3
1532179879737808 0 -11 15 16 3 0 -1 -1
1532179879775707 3 16 10 6 3 -1 -3 0
1532179879797648 -2 2 1 -4 0 1 0 -1
1532179879812608 1 0 9 9 2 0 0 0
1532179879880427 -2 -7 -26 -12 -4 -2 -2 -2
1532179879895387 -5 -16 -19 6 2 -2 -2 -5
1532179879940267 -1 19 -2 2 0 0 -2 -4
1532179879970187 15 18 -2 0 1 -2 -2 1
1532179879985147 28 5 0 -3 -3 -4 1 11
1532179880015067 -11 5 4 4 2 1 -2 -6
1532179880038006 2 -8 5 5 3 -1 -2 1
1532179880067925 2 -11 2 2 2 -2 1 0
1532179880089867 5 8 7 18 5 3 0 1
1532179880112806 -3 -6 -12 -16 -7 -2 -1 -2
1532179880142725 1 9 -5 -6 -4 -2 0 0
1532179880157686 3 4 -7 -12 -6 -1 -1 -1
1532179880202599 1 2 10 -5 0 -1 0 0
1532179880232486 -1 1 -8 5 -2 -2 -2 -3
1532179880270384 -4 -30 -9 -4 -2 -2 -3 -1
1532179880300304 -4 0 2 14 4 1 0 2
1532179880338203 0 -5 -3 12 3 1 0 0
1532179880353165 1 -3 -9 -17 -8 -4 -3 -1
1532179880368136 1 12 -6 -10 2 2 0 -1
1532179880390064 -2 4 -21 -4 1 -2 -2 -2
1532179880413002 1 15 -6 -12 -6 -3 0 -1
1532179880449904 3 4 22 -6 -2 -1 -1 0
1532179880472843 -2 2 12 18 7 3 0 0
1532179880487802 -3 -21 -7 -11 -1 -2 -2 -1
1532179880510741 -3 -3 19 -6 -1 0 0 1
1532179880547643 8 -34 -9 -7 -1 -6 -1 1
1532179880562603 1 6 6 1 0 2 1 3
1532179880577563 3 10 2 -6 0 16 0 3
1532179880600501 2 39 9 5 1 -2 0 1
1532179880622442 -17 -31 -5 -1 -2 -2 -1 -2
1532179880653360 3 9 1 1 -1 0 2 -1
1532179880675302 4 11 9 -1 1 -3 -1 4
1532179880728160 7 14 4 8 0 -9 -1 6
1532179880743120 -11 -28 -51 -3 -2 -5 -9 -4
1532179880794981 7 5 -4 1 1 9 7 14
1532179880824901 -5 -20 -2 10 5 2 -1 17
1532179880855819 -7 -15 1 -7 -1 1 5 0
1532179880870778 13 -1 -5 -14 -5 -4 3 33
1532179880909675 -12 33 5 -7 -3 0 -3 -19
1532179880930619 -11 -7 -5 3 0 -1 -7 -11
1532179880952560 -26 1 -1 8 4 0 0 0
1532179880990458 -16 11 -1 2 1 0 8 -9
1532179881020379 7 5 3 -1 -3 -2 -5 -10
1532179881050298 -5 -30 -10 -2 -1 -1 -6 15
1532179881110143 -15 -7 -1 3 2 2 5 6
1532179881148038 -4 17 14 3 2 2 4 7
1532179881169979 10 0 -3 -3 -1 -1 -1 1
1532179881192917 3 -3 -2 0 -2 -1 -3 -4
1532179881214859 -26 6 18 3 4 -6 -1 -3
1532179881230816 40 3 -29 -5 -3 2 -8 15
1532179881260735 -4 -25 6 -2 -2 0 -13 -11
1532179881275716 -26 3 -1 1 1 2 6 -10
1532179881297637 15 11 8 -5 -3 1 1 11
1532179881320576 -21 -13 -27 -4 -2 -3 4 2
1532179881342518 -15 17 27 6 4 4 -2 -7
1532179881380416 -5 0 17 -1 0 -7 -2 -11
1532179881425296 6 -2 -1 2 1 0 0 13
1532179881440256 8 -8 -25 0 0 -1 4 5
1532179881470175 -27 -19 -2 5 1 0 12 -8
1532179881500096 18 16 6 1 -1 0 -1 -4
1532179881552955 -15 -8 1 1 2 0 -2 -11
1532179881582874 -18 -11 -1 -3 -2 -4 -6 -4
1532179881659669 0 -3 -1 0 -2 -1 3 2
1532179881687595 0 1 0 0 0 0 -4 -4
1532179881740453 0 -14 -18 -1 1 -1 1 1
1532179881777354 2 -15 6 -3 -4 -4 1 2
1532179881808272 -17 -59 -3 -5 -2 -17 -3 -9
1532179881838192 7 63 18 3 1 11 2 1
1532179881853152 -2 14 -3 -6 -3 -5 -2 0
1532179881898032 5 4 12 0 -2 1 -3 0
1532179881919973 -4 -14 -20 -18 -3 2 6 5
1532179881934933 3 22 29 5 -2 -1 -2 -2
1532179881949892 12 -16 -23 -4 1 1 -1 2
1532179881987792 4 -6 -22 -9 -6 -4 -1 1
1532179882010730 -5 10 22 34 12 3 0 -1
1532179882025691 -4 -37 -42 6 2 3 -1 -3
1532179882070571 4 15 -11 -34 -8 -2 -8 -4
1532179882092512 -1 -8 -7 -14 -5 -4 -1 -5
1532179882122431 8 40 7 2 -1 -2 -2 5
1532179882138389 -2 -5 0 24 1 -1 0 -1
1532179882168309 1 12 7 -7 -1 1 -1 -8
1532179882198228 -4 40 26 11 1 1 -2 -5
1532179882243109 5 18 -7 -1 1 4 1 0
1532179882273029 0 -20 -6 10 5 0 2 2
1532179882294970 -2 -30 -1 -8 7 4 1 1
1532179882340858 -2 7 -6 0 -2 1 3 2
1532179882362789 -5 15 5 -4 -1 2 4 2
1532179882407669 10 -10 -2 -2 -2 -2 0 4
1532179882437588 8 5 -2 -12 -7 -3 -2 1
1532179882497429 -21 35 28 -10 -5 0 3 8
1532179882603163 14 -27 -15 -19 -9 -2 -2 -7
1532179882633066 2 15 12 9 6 0 1 5
1532179882669968 3 -15 -2 0 5 2 0 -2
1532179882700885 -12 -7 4 12 2 1 -3 -8
1532179882745765 4 11 -2 -7 -2 -1 -2 -4
1532179882790645 11 10 3 -7 -3 -1 0 -1
1532179882880405 -12 3 -4 -2 -2 0 0 0
1532179882910325 -8 19 1 3 1 -1 -1 -1
1532179882948223 1 -5 8 -4 -2 -2 -1 -1
1532179883008063 -8 -5 -9 2 0 -1 1 -2
1532179883044965 -4 -4 -2 0 0 0 2 2
1532179883059925 -12 -5 1 -1 0 0 0 0
1532179883157673 0 -1 -3 -7 1 -1 0 -2
1532179883278341 2 8 4 2 1 0 -1 1
1532179883308261 0 8 -10 -8 0 0 4 0
1532179883330202 5 8 3 6 0 -1 -9 2
1532179883353141 -3 -11 3 2 2 3 2 1
1532179883368101 8 9 14 7 0 5 53 14
1532179883383060 14 3 5 -8 -2 1 28 3
1532179883405002 -16 -7 4 -9 -7 -5 -32 -5
1532179883419962 -7 -10 -4 -4 -7 -2 -10 -7
1532179883442900 -14 -4 -19 3 -3 0 65 -5
1532179883480799 -16 -14 -32 -12 -5 -3 -19 -2
1532179883525679 -7 -20 2 -6 -1 1 47 -5
1532179883547621 -11 6 14 9 3 -1 -7 3
1532179883562580 -3 -13 2 -4 -2 -1 0 4
1532179883602474 -6 -9 -17 11 8 3 -1 3
1532179883615439 8 -1 -5 -1 -1 -2 -12 3
1532179883637380 14 12 4 2 1 -5 -19 -4
1532179883683257 -7 -24 -9 0 3 0 -20 -5
1532179883721190 3 -2 8 -2 -4 0 -10 1
1532179883743121 -4 13 7 4 1 1 -5 -1
1532179883780023 16 34 3 6 3 1 -14 -15
1532179883794983 -7 -16 0 1 -1 -1 16 68
1532179883832882 -10 -16 10 9 -2 -9 -32 4
1532179883855820 15 -11 4 23 2 1 -19 -5
1532179883892721 -4 5 13 3 6 2 -12 6
1532179883930620 14 -11 -47 -41 -10 -6 -14 7
1532179883967521 -13 -4 15 37 12 2 -29 -3
1532179883982481 11 5 22 11 -2 -4 9 5
1532179883997442 -1 -2 -9 11 5 3 0 5
1532179884020380 -10 11 16 -14 -2 -3 -7 -45
1532179884043319 -20 -26 -12 -7 -6 -1 10 -28
1532179884073239 -8 -11 10 5 11 18 35 29
1532179884088198 -2 5 20 -2 -7 -5 10 20
1532179884110140 -3 13 -3 -7 -3 -1 13 7
1532179884125100 9 15 -10 -7 -5 -2 -2 6
1532179884140060 -1 -18 -17 21 4 1 -4 -6
1532179884155020 -5 -11 47 -2 -2 -5 -9 -11
1532179884169980 26 46 -8 -19 -6 10 2 9
1532179884192918 -11 -12 29 -12 -3 -2 -2 0
1532179884222838 3 8 15 -4 -4 -1 -14 2
1532179884297639 1 21 24 11 -1 0 3 -3
1532179884320577 -10 8 12 0 -1 -1 2 -3
1532179884359474 8 7 -1 4 5 6 37 26
1532179884387398 1 -1 -4 1 8 18 14 19
1532179884410337 -3 -10 7 1 -5 -15 -46 -5
1532179884433276 -1 5 -39 -27 -4 22 21 -11
1532179884470177 20 -3 -36 3 -1 -4 2 7
1532179884485137 -12 -40 -25 -22 -7 9 2 -4
1532179884500097 -2 -17 -11 -20 0 22 16 2
1532179884523036 9 9 12 -1 3 24 49 3
1532179884537996 5 -1 2 13 4 -6 -1 -2
1532179884567916 3 -60 -25 -13 -2 2 -4 2
1532179884582876 0 -41 21 -13 -3 0 -4 -1
1532179884597836 0 48 18 -4 -1 -3 12 15
1532179884620774 3 35 -14 -2 1 0 -14 -2
1532179884635735 -17 -10 -38 -2 -1 -8 -29 -12
1532179884657676 9 3 15 2 7 4 -13 -18
1532179884695574 -7 -13 3 -3 -1 25 15 2
1532179884717516 -2 -11 -15 -6 0 -6 14 16
1532179884740454 -3 0 -39 -26 -9 -5 -2 4
1532179884755414 -20 -28 11 14 -1 1 5 -3
1532179884785335 3 2 -8 9 4 1 -6 4
1532179884808273 5 -11 -16 5 3 3 1 4
1532179884830214 13 5 -46 -16 -3 -5 0 4
1532179884845175 3 7 -10 8 5 3 -3 -1
1532179884868114 3 -3 -15 -4 2 2 3 1
1532179884883073 -11 -19 -11 0 -3 5 3 -4
1532179884898034 7 -32 -22 6 -1 -5 -5 1
1532179884942913 -18 -4 -5 -9 -4 -2 4 43
1532179884965852 19 -41 -7 -17 -7 -7 -24 -12
1532179885010731 -11 6 -3 -17 -10 -4 2 10
1532179885025691 -4 -1 -5 7 3 4 -7 -7
1532179885070572 10 3 15 -13 -4 -2 -3 5
1532179885100492 6 12 8 6 2 0 -2 0
1532179885122433 -9 -18 -24 -9 -4 -4 7 0
1532179885138391 8 20 -23 -13 0 1 4 0
1532179885168310 24 -30 36 -11 -13 -10 -5 -5
1532179885198230 13 -38 3 4 -3 -4 -9 -6
1532179885235132 -1 48 8 11 5 8 41 10
1532179885258070 10 8 3 -4 -1 7 47 -1
1532179885287990 13 14 9 10 10 5 -12 -1
1532179885317910 3 -25 6 -16 -8 -11 -36 4
1532179885332870 -16 -16 -9 -6 0 1 -3 -4
1532179885370769 14 0 -18 -3 -3 -3 -9 0
1532179885392711 2 -14 -2 2 2 1 -9 1
1532179885430609 -16 -23 -17 -5 -2 0 0 -5
1532179885445569 -11 -19 -72 -14 -4 -3 -2 -2
1532179885520369 -9 -32 -4 -1 4 5 0 -5
1532179885543307 1 -8 3 5 2 1 1 0
1532179885565249 -4 32 3 6 2 -1 2 1
1532179885580209 3 -6 11 2 2 2 0 2
1532179885595169 -8 -15 -5 2 -2 -1 0 -2
1532179885610129 3 3 10 2 -1 -3 -1 1
1532179885648027 4 11 0 -5 -2 -1 -1 1
1532179885677947 -1 -29 -14 -9 -2 -1 0 -1
1532179885692908 3 -85 -2 3 1 1 1 0
1532179885707868 3 18 10 3 2 2 1 0
1532179885737787 -6 -4 11 -8 -2 -3 -3 -2
1532179885760726 0 6 -4 -7 -1 3 -4 -4
1532179885805606 -1 36 -2 6 7 9 2 0
1532179885820566 8 27 7 -1 -6 -9 0 3
1532179885835537 2 2 14 1 1 2 1 0
1532179885850486 6 -15 -7 -3 -2 -5 -2 3
1532179885880406 -3 -12 -11 -18 -4 2 2 -1
1532179885940246 6 4 -2 -9 -3 12 -2 -5
1532179885955206 -11 -7 -4 2 0 7 0 -2
1532179885993105 4 23 -6 -16 -6 -6 -4 -4
1532179886023024 -10 4 9 -15 -8 -1 0 -2
1532179886037985 0 -6 -23 0 -1 1 0 0
1532179886067905 15 -31 46 3 1 0 -2 -5
1532179886097824 -3 30 3 7 3 -27 0 2
1532179886112785 2 33 -46 -1 1 38 3 30
1532179886150684 -27 -20 15 6 -4 0 -27 -14
1532179886180604 -2 55 52 8 3 16 -3 10
1532179886195563 1 17 -55 -15 -6 10 3 6

1532179886210523 -4 -17 -79 -11 -5 6 -2 -3
1532179886247425 0 -8 -20 11 6 5 3 1
1532179886278341 -4 1 10 -3 -2 6 -3 -2
1532179886308262 13 17 5 5 -1 7 -3 -1
1532179886383062 7 -1 17 6 -1 -3 -1 2
1532179886435935 6 1 -2 -2 -3 0 -1 1
1532179886457862 -1 -3 -9 0 3 1 1 0
1532179886502742 0 -3 26 -1 0 -2 0 2
1532179886540667 -4 5 -15 2 1 1 1 -3
1532179886562608 -3 -38 -13 1 3 7 -2 -1
1532179886577568 4 0 1 -4 -3 -3 -5 -5
1532179886607502 0 2 8 -4 0 1 0 -3
1532179886690267 -3 -2 5 1 -3 0 -2 -2
1532179886743125 -1 32 15 4 1 1 -3 -4
1532179886788005 -3 -14 -14 -4 0 -1 -1 0
1532179886809947 -4 6 -12 -1 1 0 -3 -4
1532179886855824 0 27 2 3 0 -1 1 0
1532179886877613 1 -7 -35 -3 -2 -1 5 6
1532179886900552 -4 -11 3 -3 0 0 0 -2
1532179886930472 -3 2 17 -5 -3 -2 -2 -2
1532179886952426 -6 -6 -2 1 1 3 -1 -2
1532179886968370 -1 19 6 -1 -2 1 -1 -2
1532179887012464 2 -6 -19 2 1 -2 -4 -2
1532179887042383 -1 9 -12 0 0 2 -2 -2
1532179887073316 0 5 -44 -3 0 -2 -2 -3
1532179887095256 1 -8 21 3 -1 -2 0 -1
1532179887127172 1 -3 -43 -2 2 1 -1 -1
1532179887178036 8 1 8 -2 -1 2 -3 -2
1532179887207955 -4 -1 11 -2 -1 0 1 0
1532179887282756 -6 13 5 4 2 1 -2 -2
1532179887305694 4 -7 -1 -1 1 -2 1 1
1532179887387475 -3 -1 23 2 1 -2 0 -1
1532179887417396 -2 -5 -18 3 2 -2 -5 -3
1532179887478233 1 0 5 0 -1 1 1 2
1532179887500174 -1 -21 -24 -2 -1 -2 -1 -1
1532179887538072 -2 -15 11 1 -2 -2 1 -2
1532179887560014 2 14 9 -2 0 -1 -1 -1
1532179887589934 0 7 17 2 1 0 -1 0
1532179887635819 -6 13 37 2 0 2 -1 -1
1532179887657753 0 17 3 -3 0 -3 -1 -2
1532179887672713 -5 -21 -18 1 0 2 0 2
1532179887687673 -17 31 -5 0 -2 -1 -2 0
1532179887733343 -3 12 5 0 0 -2 0 -3
1532179887763263 -3 10 10 -2 -2 -1 1 3
1532179887838070 3 19 9 -1 -1 0 -2 -2
1532179887860012 4 -7 -6 -1 -1 1 1 2
1532179887890421 1 -4 8 2 1 4 2 0
1532179887935300 1 0 36 1 -2 -1 -4 -3
1532179888018079 -6 -4 24 7 6 2 4 -1
1532179888077919 -6 43 -8 -1 4 85 0 -10
1532179888122824 5 8 9 5 4 -1 4 55
1532179888160723 2 -47 -66 -2 -1 15 -6 -50
1532179888190643 0 52 -72 5 -3 -9 4 -15
1532179888212584 4 -27 58 1 5 8 9 -9
1532179888235524 1 8 47 3 -2 2 -3 -14
1532179888265443 -1 -7 7 8 -2 -3 1 -4
1532179888303346 3 11 24 -1 -1 -1 1 -2
1532179888348222 1 7 3 -6 -5 -1 0 0
1532179888385123 -9 -2 12 10 -1 -2 0 -3
1532179888452942 2 2 -2 1 2 1 1 1
1532179888482862 2 3 -11 -14 -7 -1 -2 -2
1532179888514776 3 3 11 2 -4 -4 -2 -2
1532179888565640 1 -4 19 0 0 -4 -1 1
1532179888580600 -1 -1 -2 -1 0 1 -1 0
1532179888610520 -1 -12 6 7 4 -2 2 0
1532179888640440 -3 -8 -9 -3 -4 -2 0 -1
1532179888663379 1 2 -2 -1 0 -2 -2 0
1532179888685332 1 3 1 3 1 1 0 0
1532179888715240 0 -3 1 -8 -4 -2 2 -1
1532179888760120 1 -2 -5 -6 3 -1 -2 0
1532179888798019 0 0 1 0 6 25 15 1
1532179888836915 -1 3 4 -5 -2 -8 -7 -1
1532179888872819 -2 1 -7 -4 -3 -2 -4 0
1532179888917699 0 2 -9 -12 -3 -2 -2 -1
1532179888940638 1 6 -7 6 -4 -4 -3 0
1532179888977539 -1 -1 0 4 -2 -3 -1 -1
1532179889007459 -1 -7 -15 -19 1 1 0 -1
1532179889038376 -2 -14 -4 -6 -3 -4 -1 -1
1532179889054334 0 3 14 -7 4 -1 0 1
1532179889113176 1 3 -1 -13 -1 1 0 -1
1532179889165037 0 12 4 7 -2 -1 0 -2
1532179889179997 4 15 6 -2 -2 0 0 1
1532179889209917 -4 -6 -18 -8 1 -1 -1 -2
1532179889240835 4 0 -6 -4 -2 -1 0 3
1532179889255795 0 -19 1 -1 1 -1 0 -1
1532179889277736 -1 -59 -12 -5 0 0 0 2
1532179889300674 -9 5 0 -1 -1 1 2 -2
1532179889315635 -1 -10 -5 -4 1 1 1 -3
1532179889337576 3 16 4 0 -2 4 -4 -16
1532179889352536 17 18 9 4 5 8 8 17
1532179889375475 -7 -1 9 5 -2 -15 -7 9
1532179889405395 28 -28 -5 1 1 1 2 8
1532179889435319 30 6 10 -1 -1 3 0 -5
1532179889488173 -55 -20 6 1 -4 -1 -6 -19
1532179889503138 12 29 -2 2 0 0 -1 5
1532179889525074 -16 -40 -5 -8 -3 0 0 -3
1532179889569955 37 13 -1 4 3 7 11 -3
1532179889615832 -10 -1 -17 -5 -2 -3 -4 -8
1532179889637773 63 13 16 3 -1 -2 3 17
1532179889690632 -21 -2 3 0 -2 -1 -4 1
1532179889712573 -34 -12 -18 2 1 2 1 -15
1532179889742493 -9 2 9 0 -1 -9 0 -6
1532179889765432 -44 -5 1 -3 -6 -9 -6 -32
1532179889788370 -14 10 16 4 1 7 -3 4
1532179889855192 -17 8 12 0 0 0 3 -2
1532179889885112 -17 -8 -4 2 -1 1 2 7
1532179889929992 26 8 -2 -2 0 1 1 5
1532179889959912 -20 -20 -8 -1 0 0 0 4
1532179889975870 15 2 -2 1 1 2 4 10
1532179889990829 44 12 7 2 1 0 2 19
1532179890020749 2 -6 6 -3 -1 1 4 -7
1532179890042691 -7 -3 -4 -2 -2 -2 -3 2
1532179890065629 -2 22 19 5 0 -2 -1 -9
1532179890095549 -3 -9 -7 -2 -1 -3 1 -8
1532179890117491 28 11 7 2 1 1 3 20
1532179890140429 -10 -5 -5 -1 0 1 -1 -9
1532179890178328 17 -6 -2 1 -2 -1 0 8
1532179890200269 -10 -1 1 -2 2 -1 -9 -14
1532179890215229 -5 -2 -2 -2 -1 1 3 2
1532179890260109 -18 -8 1 -1 -1 0 -1 -6
1532179890283048 2 -7 -1 -1 2 1 1 3
1532179890298008 -1 -2 1 -1 -2 1 -2 -1
1532179890312968 -8 4 -11 -10 -6 -2 -4 0
1532179890334909 -1 -22 -7 0 -1 11 1 1
1532179890372808 6 29 22 6 0 -13 -2 -4
1532179890387768 0 -4 -9 -2 2 3 6 3
1532179890402743 2 -20 -15 -1 -1 -1 -1 3
1532179890425666 1 -5 4 -2 0 4 2 0
1532179890440626 6 40 11 -2 0 8 -1 -1
1532179890462568 3 20 5 5 2 -1 1 3
1532179890477528 -4 12 7 -3 -4 -5 -1 -3
1532179890500466 -1 16 0 -10 -4 -3 2 -1
1532179890538364 -3 5 -2 -2 1 -1 -1 -3
1532179890575266 4 3 9 -3 2 1 1 3
1532179890622141 -2 -33 4 -16 -6 -3 -2 0
1532179890643085 -2 28 -39 5 0 -2 -2 -2
1532179890658045 2 22 9 2 2 4 0 -1
1532179890673005 -5 -13 1 10 2 2 2 -1
1532179890702925 -2 -1 -28 -3 -3 -6 -9 -5
1532179890740823 4 46 14 6 -1 3 7 8
1532179890770744 -14 -1 13 -12 -5 -6 -1 2
1532179890800664 -4 -9 2 1 -4 1 -5 -6
1532179890830583 2 3 13 -13 -4 -1 -1 -1
1532179890860504 9 -18 -2 1 1 7 5 2
1532179890912365 -3 3 4 7 6 6 1 0
1532179890935303 4 -14 -8 -3 -3 -4 3 7
1532179890958243 -6 11 23 10 2 0 -2 -5
1532179890973202 -10 -2 2 -5 -2 -2 3 2
1532179890995144 -3 -16 0 -3 -2 -1 -3 -4
1532179891048002 2 13 25 5 5 2 0 -1
1532179891084904 8 11 -6 -9 -3 -1 -1 0
1532179891115821 10 -16 -21 3 2 1 1 3
1532179891152722 2 -6 -7 -1 0 0 7 4
1532179891190621 -4 -12 9 2 3 2 0 1
1532179891257442 -4 -13 -9 0 -1 0 -3 -7
1532179891288362 10 0 -4 20 5 1 -4 1
1532179891325261 6 -13 0 1 1 -2 -4 1
1532179891355181 -3 -11 1 0 -4 -3 -4 0
1532179891378120 -34 29 8 -14 -4 -2 1 -6
1532179891429997 1 -9 -10 -1 -1 -2 -3 -7
1532179891452932 12 6 11 6 1 1 0 5
1532179891482839 11 -22 7 -6 -3 -1 -1 1
1532179891527719 -4 -9 -3 0 0 -1 -1 0
1532179891580578 -4 -1 1 -2 0 1 -1 0
1532179891602519 -38 17 7 4 2 0 -5 -26
1532179891617479 -8 14 7 2 -1 1 0 7
1532179891655378 4 -1 -1 0 -1 1 1 7
1532179891670338 9 16 -3 3 1 0 0 5
1532179891685297 2 11 -31 1 0 1 0 -2
1532179891715218 -11 -24 -9 -10 -3 -2 0 -6
1532179891738157 -1 -17 -9 1 1 1 0 0
1532179891753130 8 34 0 8 0 0 1 2
1532179891775058 1 11 -8 2 -2 -2 2 1
1532179891797996 -2 -6 16 5 -2 -1 -1 -1
1532179891819938 8 6 15 11 3 2 3 6
1532179891842877 2 7 -1 3 3 0 0 1
1532179891857836 -6 7 1 -10 -5 0 0 -1
1532179891880775 10 20 47 7 -1 2 1 4
1532179891895735 -12 16 11 7 3 -1 1 3
1532179891910695 -18 -9 -60 -4 -1 1 2 -1
1532179891932636 1 -6 -103 6 0 0 11 7
1532179891947597 6 15 22 2 0 -1 -8 1
1532179891977517 -13 3 -15 -4 -2 1 -9 -4
1532179892000455 -6 8 56 -8 -8 -9 33 -16
1532179892038354 1 9 20 1 0 -3 -4 -5
1532179892068274 5 -14 -3 1 2 -3 4 3
1532179892083234 9 13 21 4 2 0 -7 1
1532179892120135 -16 -29 -67 -18 -4 19 18 -4
1532179892137089 3 22 19 1 1 3 0 2
1532179892150055 -11 -4 -18 -14 -7 1 42 -3
1532179892172994 -3 -8 10 -11 -4 0 -14 -2
1532179892187954 4 -4 -53 -14 -1 -8 -27 -1
1532179892217874 1 -3 17 2 0 -5 17 3
1532179892270732 -6 8 -1 -4 0 -4 2 -3
1532179892285693 -6 -9 41 12 1 0 -6 -3
1532179892300653 0 -1 18 -2 1 -5 -29 -1
1532179892352513 -4 4 16 0 -1 -2 -6 -3
1532179892375452 -9 -6 0 -9 -4 -3 -6 -2
1532179892397393 -4 10 4 4 -1 -5 66 4
1532179892413351 10 11 0 -3 -2 0 2 3
1532179892435292 12 23 7 0 -1 0 -4 0
1532179892466210 -2 -5 -1 2 1 4 11 -2
1532179892488151 -33 -28 -17 -44 -4 2 -4 -7
1532179892518071 -4 -3 20 17 2 1 -12 -3
1532179892533031 -8 -9 -15 0 -2 -3 7 -2
1532179892547991 -1 6 -5 -3 -2 0 5 0
1532179892569932 -23 -18 -7 -33 -9 -3 -7 -3
1532179892599876 8 31 -24 -10 -5 -4 -8 1
1532179892622814 -2 22 19 2 6 3 -8 -4
1532179892645753 1 15 46 9 3 2 10 3
1532179892675673 7 26 18 -4 1 0 11 5
1532179892697614 2 -9 12 4 5 5 4 -2
1532179892712574 -13 -24 -12 -10 -5 -3 -12 -12
1532179892735512 3 -21 -5 -2 1 -3 -40 -7
1532179892757454 -11 -22 7 3 5 3 -10 -5
1532179892788371 5 6 20 20 2 -2 11 0
1532179892803331 0 -4 -17 -14 -3 -4 3 -2
1532179892825272 1 -16 27 37 4 2 -6 -4
1532179892863171 -3 14 34 12 0 -2 -5 -5
1532179892893091 3 2 -7 -5 -3 3 -1 6
1532179892915037 -3 5 56 0 -3 -3 1 0
1532179892929992 -3 -15 -48 -13 -6 -4 2 -2
1532179892959913 1 54 34 -1 -3 -2 -7 -3
1532179892982851 2 -4 -8 -3 -5 -6 -4 0
1532179893012771 -2 -19 -13 5 4 3 19 13
1532179893042691 -11 -8 -6 -5 -5 -11 17 -45
1532179893065630 -16 -15 -7 -4 -2 -3 0 -21
1532179893102532 12 13 8 20 4 2 -10 5
1532179893125470 -1 2 -29 -16 -7 -4 -2 -5
1532179893140430 4 -1 1 8 1 2 11 -6
1532179893162371 2 19 26 15 1 0 1 4
1532179893193288 -1 -10 -12 -17 -4 -1 -1 -2
1532179893208248 -4 4 5 -15 -7 -5 -2 -2
1532179893230190 1 -47 -61 -6 -2 -1 0 -2
1532179893253129 -5 -38 -74 -8 -6 -4 3 -4
1532179893275070 4 35 7 3 2 -4 -4 21
1532179893290030 0 -34 -6 -2 1 2 2 50
1532179893312968 1 -2 1 5 -3 -7 11 18
1532179893342888 -4 -18 -7 3 5 4 -4 -9
1532179893372808 -4 17 13 4 4 2 -20 2
1532179893395747 3 11 0 1 -2 -3 -12 2
1532179893425667 1 11 10 11 4 2 31 0
1532179893447608 -3 14 -9 4 5 4 7 -7
1532179893470547 8 17 38 3 0 -2 4 2
1532179893492488 10 -13 -20 -7 -6 -4 -4 -7
1532179893515427 10 20 -13 -8 -1 -2 -6 2
1532179893530387 4 57 20 16 10 9 7 -4
1532179893553326 -2 -44 -24 -6 1 4 9 0
1532179893583246 3 -3 -6 1 0 1 -2 3
1532179893605187 3 -1 -14 1 -1 0 0 -8
1532179893620147 -1 11 -2 6 9 10 19 -16
1532179893635107 0 -8 -2 0 1 -1 -10 17
1532179893650067 -11 -11 1 5 2 1 -12 19
1532179893673006 14 21 -29 -11 -6 -5 6 3
1532179893694947 -3 7 -10 -12 -8 -6 -8 -16
1532179893717886 -5 0 -2 -12 -5 -5 -10 5
1532179893732846 0 1 21 -35 -6 -3 -6 -10
1532179893755784 -5 -12 -30 -19 -6 -4 -11 -5
1532179893777726 -16 -11 3 4 -2 -1 -10 -6
1532179893792686 -22 -27 -16 0 -4 -1 39 -5
1532179893815624 16 22 8 14 4 0 -16 0
1532179893837566 8 -3 31 9 5 1 -15 3
1532179893852526 -6 -10 -14 7 5 2 -7 -1
1532179893875468 -13 1 -18 -13 -4 0 -6 -3
1532179893905384 -4 -29 -7 -8 -1 1 -2 0
1532179893928323 0 39 -11 -1 0 1 -1 0
1532179893950264 5 -10 -8 1 1 -1 1 2
1532179893988163 3 48 11 1 0 -1 1 -1
1532179894003123 -1 -5 7 -4 -2 -2 -4 -2
1532179894033043 -10 -12 -16 -6 -1 -1 -1 -2
1532179894048003 -5 -49 -4 -3 -3 -1 -3 -3
1532179894062963 -3 13 6 0 -1 -1 -2 0
1532179894092883 -4 -21 -5 -3 -3 -2 -1 -2
1532179894122803 1 22 1 -2 -3 -1 0 -1
1532179894145741 0 -2 -1 -2 -1 -1 0 0
1532179894167683 4 18 19 -1 -1 -3 -1 3
1532179894182642 -6 3 -4 -3 -3 -3 -2 -1
1532179894197602 6 -27 -7 0 1 0 -1 2
1532179894220541 -2 -38 -15 3 2 0 -2 -2
1532179894242483 3 2 -2 -5 -2 1 -2 1
1532179894273400 6 -8 -8 -1 -2 -4 -1 0
1532179894310302 11 -17 -17 4 0 0 -1 1
1532179894333240 -7 -19 -19 -3 -2 0 -1 0
1532179894348200 0 12 27 3 1 -1 1 0
1532179894385102 4 27 -24 1 -2 -4 -4 -1
1532179894415022 -3 -55 -25 -4 -1 -4 -4 -45
1532179894437960 3 12 -50 -5 -3 2 -1 -8
1532179894452920 2 -13 -44 -1 -1 0 1 18
1532179894475868 -1 15 53 3 1 -3 5 19
1532179894497800 5 0 18 0 0 -2 0 16
1532179894512759 3 -7 7 -3 -2 0 1 -16
1532179894557640 -3 -32 -6 -2 0 -6 -2 49
1532179894572600 -16 -39 -3 -8 -4 63 -2 -91
1532179894587560 19 56 5 -4 -14 -66 28 -3
1532179894617480 -9 -5 -78 -5 -1 7 1 9

1532179894632440 5 -34 127 -45 -12 -13 -4 -2
1532179894655379 3 42 27 1 2 -12 -9 17
1532179894700259 6 -5 -28 1 0 3 0 8
1532179894723197 -17 1 11 5 2 -3 -6 -1
1532179894805224 6 -32 51 75 15 5 -1 1
1532179894850103 -1 -7 -24 -4 0 -1 -2 4
1532179894888002 -2 5 -8 -13 -1 2 -2 -8
1532179894932882 -4 -1 0 -2 -1 0 0 -1
1532179894962802 -1 -4 -1 -2 -1 0 3 2
1532179895007682 1 4 -1 -1 -1 -3 -1 -2
1532179895022642 1 13 2 -1 -1 -1 0 -2
1532179895097442 3 -5 -7 -1 -2 0 4 5
1532179895135340 -1 -3 -6 0 -1 -1 0 -1
1532179895173239 0 -7 5 3 1 -3 -1 -1
1532179895203172 -4 7 -1 0 -2 -1 -4 -10
1532179895242069 -2 -1 -10 3 2 -1 0 -3
1532179895337878 -2 22 22 -1 0 -1 -5 -5
1532179895375777 -1 -12 -5 0 0 0 0 0
1532179895397717 0 -29 -2 -1 0 -1 3 -3
1532179895457581 0 -26 -17 1 -1 2 1 0
1532179895563298 -3 8 -2 -1 0 -1 -1 -1
1532179895705049 -2 2 1 0 -1 -3 1 -1
1532179895742948 1 15 -4 -2 -3 -1 1 0
1532179895809961 -2 3 6 -3 1 -2 0 1
1532179895840894 -1 13 10 -1 -2 -1 -1 -1
1532179895877354 -2 -16 -14 1 0 0 -2 -5
1532179896035948 -3 -2 -2 -1 -3 -1 3 -1
1532179896088788 -4 -40 -4 -2 -3 -2 -2 0
1532179896102751 3 2 -5 2 3 -2 3 1
1532179896155610 1 4 -4 -2 -1 -2 0 1
1532179896177551 1 12 1 -1 -4 0 2 -1
1532179896237928 -5 -1 2 0 2 1 -1 -4
1532179896320707 1 -18 -7 -3 -4 -4 0 1
1532179896365587 2 -13 -6 -3 -2 -2 -5 -5
1532179896515199 -5 -14 -6 -1 -1 -1 -2 -2
1532179896597995 -8 -2 0 -1 1 -1 -2 -1
1532179896650852 1 1 -1 -1 -1 -1 -2 0
1532179896702714 1 10 0 2 2 3 -2 -3
1532179896717674 3 1 6 2 0 0 0 0
1532179896785492 0 -20 -3 -1 1 0 0 1
1532179896815413 0 14 7 2 2 0 2 -2
1532179896837539 -4 7 3 -1 1 -2 -1 -1
1532179896875438 3 13 1 0 0 0 1 2
1532179896890398 0 -8 2 -1 0 1 1 0
1532179896920318 1 5 0 -1 0 0 -1 -2
1532179896950238 -3 -3 -2 0 2 1 -2 -2
1532179896988137 -1 -46 2 1 2 0 2 0
1532179897003096 -3 -10 2 0 -1 -1 1 1
1532179897077930 -2 -8 -5 -1 0 -2 -2 -2
1532179897100869 4 8 -1 -2 -2 1 -1 0
1532179897152730 1 -11 -3 0 1 1 -1 0
1532179897237566 4 -6 1 1 1 -1 3 2
1532179897265491 3 7 -3 -1 -1 0 -1 -3
1532179897289427 1 -12 -2 1 0 -2 0 1
1532179897348321 -17 9 -1 -1 1 -3 2 -1
1532179897378224 1 14 -1 0 -2 0 -2 -1
1532179897408157 3 -21 -10 -1 0 0 0 0
1532179897453025 3 -3 0 -2 -3 0 2 3
1532179897489927 -2 1 -1 0 1 1 0 -2
1532179897513863 -3 -16 -8 -1 0 0 -2 -2
1532179897572706 0 0 37 3 -2 -2 5 4
1532179897602625 1 0 31 -2 -3 -2 -3 -2
1532179897625564 4 -29 -101 -3 0 3 0 3
1532179897655484 8 21 -86 5 1 -5 1 2
1532179897685406 -6 10 5 0 15 -28 -4 -46
1532179897723356 18 41 11 6 0 -67 -5 -6
1532179897753276 -6 40 -11 -2 -4 10 -10 -6
1532179897798156 -14 37 73 0 -5 -19 -1 -16
1532179897843036 -7 -28 -5 -1 3 8 5 1
1532179897895911 -7 -7 8 -7 1 -2 -1 -7
1532179897925815 -3 -6 13 0 0 2 2 2
1532179897962717 0 4 12 -6 1 0 1 0
1532179898001612 4 18 -8 4 -1 0 0 1
1532179898037516 0 1 0 17 4 2 -2 1
1532179898069434 3 -6 7 17 8 3 1 0
1532179898098353 -2 -1 -5 -14 -8 -2 -1 -1
1532179898135255 -1 -29 -16 -1 -2 3 1 1
1532179898158193 1 6 6 -3 -2 -2 1 -1
1532179898188114 -6 5 2 -4 -1 -1 -5 -4
1532179898225015 -1 2 6 5 -1 0 1 -1
1532179898241969 5 31 2 -3 2 -2 0 1
1532179898262913 1 35 1 0 -3 -4 -2 -1
1532179898277874 -6 -14 2 -1 -2 1 -1 1
1532179898292833 8 6 5 -1 -2 0 0 2
1532179898322753 5 25 -3 -12 -1 -1 -1 0
1532179898352673 -8 -66 -4 4 0 -1 -1 -4
1532179898390572 -2 -10 -4 -6 -1 -2 -1 -1
1532179898420492 8 5 -7 -2 -4 -2 0 1
1532179898437447 0 -3 5 17 5 1 0 0
1532179898473357 1 5 -1 2 4 2 0 2
1532179898503270 -2 -28 1 -4 -2 0 -2 -1
1532179898518231 -1 6 -4 -14 -1 -1 1 -2
1532179898540172 -5 -3 -20 -3 -1 -2 -1 -1
1532179898578071 6 33 15 0 -4 -2 -2 0
1532179898593031 2 19 -10 2 0 0 1 0
1532179898652871 -9 -7 0 -1 0 -2 0 0
1532179898675810 5 20 -8 -1 2 0 1 2
1532179898712710 -3 -10 -40 1 -1 -1 0 -1
1532179898735649 -9 11 4 2 -1 0 0 -2
1532179898765570 3 1 4 -2 -2 0 -1 -2
1532179898796487 -5 12 4 0 -2 0 0 1
1532179898841367 -5 15 -3 -1 -1 1 -1 -2
1532179898863308 1 14 36 4 1 -2 -1 -3
1532179898878268 2 21 3 -1 1 -1 -1 -1
1532179898917164 -12 3 9 -3 -1 -1 -1 -3
1532179898945090 5 3 -83 -3 -2 0 0 -5
1532179898989969 -12 -10 2 -3 -2 -1 -4 -6
1532179899042840 18 1 84 9 -2 -1 5 18
1532179899072749 -50 -23 48 13 7 3 10 33
1532179899117627 4 7 15 -2 -1 4 7 18
1532179899147548 -55 4 29 3 1 2 -3 -1
1532179899178465 3 10 -9 -1 1 -2 -6 -8
1532179899224343 -37 -16 -6 -9 -4 0 16 8
1532179899260247 -52 -7 -15 -3 -4 -1 1 4
1532179899283185 -71 -8 11 -5 -3 -4 -15 -74
1532179899328065 12 8 -3 6 2 1 15 28
1532179899343025 25 -11 4 0 2 0 4 3
1532179899364967 -5 -3 16 2 0 -2 -23 -47
1532179899379927 21 -12 -4 0 -2 -5 -8 -1
1532179899394886 20 9 21 4 2 2 0 -12
1532179899425804 32 4 8 0 -3 1 20 16
1532179899455724 21 5 9 -1 0 0 -2 5
1532179899477665 1 4 -5 -1 -3 0 0 -6
1532179899500604 12 -2 0 0 -3 -3 0 -5
1532179899539499 9 12 -4 -3 -1 1 4 14
1532179899552465 -21 11 11 0 1 -1 -1 -3
1532179899590364 0 7 -2 0 1 -1 -1 0
1532179899613302 -4 1 2 2 -1 -1 0 -4
1532179899650216 0 23 -6 -5 -4 -1 2 -2
1532179899680124 -4 1 7 -3 -5 -5 -3 -2
1532179899703062 3 22 -5 -5 -2 1 -1 3
1532179899762902 -2 -21 -1 0 -1 0 0 0
1532179899785841 -3 -19 -8 1 4 2 -2 -3
1532179899852663 3 60 -12 6 2 1 2 1
1532179899867622 -9 -30 -30 -9 -4 -3 3 3
1532179899897542 -3 -17 4 -5 2 1 0 -3
1532179899950401 -2 -10 17 -21 -6 -3 -4 -4
1532179899995281 -3 22 -2 -12 -4 -1 0 -1
1532179900033180 -2 -19 -13 -5 -4 -4 -7 -7
1532179900063100 -2 8 20 -12 -4 0 -2 -1
1532179900093019 8 8 7 -14 -3 7 1 2
1532179900107979 10 41 1 3 0 -7 -4 6
1532179900144881 -4 -46 -3 4 1 2 3 0
1532179900183777 -10 -37 -6 -3 0 0 0 -4
1532179900212699 -3 -21 3 -12 -7 -7 -2 1
1532179900227660 -5 8 -28 -9 5 -1 -2 0
1532179900250597 4 -21 28 17 -2 -3 -1 -2
1532179900287499 -9 9 2 -14 0 0 0 -2
1532179900332379 6 16 4 -4 0 1 6 4
1532179900371276 1 -20 -12 -1 5 1 -1 -3
1532179900415158 -2 5 12 3 -3 -3 -8 -8
1532179900460038 8 -23 -11 -1 -1 -5 -2 1
1532179900557776 -15 20 2 21 2 0 -2 -1
1532179900610642 2 -30 -15 -13 -5 0 -1 -2
1532179900670481 -2 11 9 0 1 0 1 3
1532179900707383 9 31 -4 -13 -5 -4 -3 -1
1532179900730321 -9 -20 -2 2 0 0 1 1
1532179900760241 -4 28 3 -4 -1 2 0 2
1532179900775201 -12 19 7 5 5 2 0 -1
1532179900820081 -4 -38 -17 0 0 0 -1 1
1532179900843020 5 0 4 -1 -2 -3 1 4
1532179900887900 -6 50 13 3 2 1 -4 -2
1532179900926796 2 -10 -1 -1 -1 0 2 -2
1532179900947740 4 -23 -4 -2 -2 -2 -2 -3
1532179901030518 -10 9 2 0 -1 -1 -3 2
1532179901045479 4 -5 -1 -1 -3 -1 -1 0
1532179901082380 10 16 -2 2 -3 -2 -1 0
1532179901120278 -14 15 -3 -2 -2 0 -2 -2
1532179901180119 -9 7 2 1 -2 -2 -1 0
1532179901232977 2 9 7 -2 -1 -1 -17 0
1532179901277866 1 9 3 1 -1 1 42 9
1532179901292817 -13 -9 7 -2 0 -2 -12 -5
1532179901315755 -26 3 9 -10 -8 -10 4 -14
1532179901337697 7 0 -19 2 -5 0 -2 -3
1532179901367617 7 13 -2 8 0 1 5 2
1532179901399532 18 -3 -3 3 4 2 -2 3
1532179901473334 -15 12 19 1 1 2 -17 0
1532179901488294 13 3 -29 -3 -1 -1 7 4
1532179901518215 0 3 16 14 4 0 -25 1
1532179901533174 -18 -16 -3 -11 -6 -2 -7 -2
1532179901585035 5 26 -2 3 0 2 18 2
1532179901615953 -4 -14 -2 4 0 0 -1 0
1532179901645886 1 23 18 1 -3 -18 -6 -3
1532179901667814 2 -2 0 10 -2 2 15 -3
1532179901712694 -3 0 -1 -4 -2 5 1 -1
1532179901750593 18 31 22 15 7 17 -10 4
1532179901765553 6 7 -5 -11 -5 -7 -2 -2
1532179901802466 -10 -40 -16 -14 -6 -5 -39 -5
1532179901840353 5 18 -22 24 6 1 9 4
1532179901863291 1 33 45 5 2 -3 4 -1
1532179901894209 -14 21 -22 -19 -14 -10 0 -5
1532179901923148 14 -9 -10 -11 -7 -9 2 3
1532179901945073 1 27 44 -3 -1 1 2 -2
1532179901960033 4 -18 -5 3 6 9 -2 -11
1532179901982973 6 -2 3 4 -1 -3 1 21
1532179901997932 -2 3 4 -1 0 -3 -18 5
1532179902027852 -1 -22 -1 -1 1 1 -2 -9
1532179902057771 -3 -2 -4 -1 1 0 13 1
1532179902117612 -1 11 15 9 2 0 4 4
1532179902238289 8 20 2 -6 0 -2 -13 19
1532179902320071 -4 -6 1 8 7 14 23 -17
1532179902395867 -3 0 32 66 12 2 9 -1
1532179902433766 -12 -11 -17 -4 0 1 8 -4
1532179902455707 -1 -21 22 -14 -4 -2 11 -3
1532179902485630 -6 -64 -36 -8 8 9 0 0
1532179902507568 -8 11 15 6 -1 -2 -3 -4
1532179902560427 -10 -75 -4 -2 -6 -7 -7 -26
1532179902613286 5 22 8 3 -2 -2 -4 21
1532179902665148 -7 24 -16 -10 -3 -1 -10 -14
1532179902695067 8 8 -3 -28 -8 -8 -13 -17
1532179902748924 -3 -11 12 16 7 6 5 -4
1532179902762886 -1 -24 -14 0 -1 -1 3 4
1532179902830704 2 8 8 2 1 0 1 -2
1532179902920465 -3 8 -15 1 5 7 -1 -24
1532179902942406 4 11 15 4 1 -3 4 9
1532179902980305 -2 -17 -8 -8 -3 -2 -5 4
1532179903033164 9 -8 -7 26 7 2 -5 7
1532179903063083 1 9 -21 -1 -3 -3 -10 0
1532179903114945 2 -11 -4 12 3 0 -4 4
1532179903160822 1 21 19 6 0 2 -1 1
1532179903175782 1 18 -9 -2 0 -1 -3 -1
1532179903212684 1 14 -42 5 3 1 9 4
1532179903257563 16 -20 -35 -6 -2 -2 -10 26
1532179903295462 -8 -11 1 -9 -3 -3 -5 3
1532179903310421 2 -9 -19 -11 -5 -2 10 6
1532179903363280 16 7 26 21 8 0 -9 8
1532179903393201 26 36 -1 -6 -6 0 -15 3
1532179903430101 8 17 25 9 4 2 -11 5
1532179903453041 1 9 -7 -8 -5 -2 -8 1
1532179903475979 3 2 -14 8 1 2 -2 -2
1532179903497920 3 6 -7 -8 -1 1 -4 2
1532179903535820 0 -8 7 5 1 -1 -1 1
1532179903565740 -3 7 5 -7 -4 0 2 -1
1532179903611617 5 5 2 1 -1 0 -3 -1
1532179903632560 -1 13 3 1 2 -1 -1 0
1532179903647521 -4 -8 -7 -9 -3 -1 -1 -2
1532179903700379 1 16 -1 0 -1 0 0 1
1532179903730299 1 -14 3 3 0 0 -1 3
1532179903745260 4 4 22 -3 -1 0 0 0
1532179903775193 -4 -29 4 -6 -3 -1 -2 0
1532179903790148 -1 7 12 2 0 -2 1 1
1532179903820059 -14 -32 -22 14 3 0 -1 -5
1532179903864939 3 19 -1 -2 0 5 0 2
1532179903887877 -2 16 2 6 1 12 0 0
1532179903917798 7 41 28 -7 -3 -4 -1 2
1532179903947717 -4 -18 -4 12 5 2 2 0
1532179903985629 3 -1 -14 -1 -2 0 -1 -3
1532179904000576 6 -50 9 -6 -3 6 -1 2
1532179904030497 1 1 -9 -7 -1 0 -1 1
1532179904060416 -7 0 -33 -12 -2 -3 -2 -1
1532179904113275 -11 -34 -48 -1 -3 -2 -4 -4
1532179904143195 -2 -13 -7 -7 1 1 1 -1
1532179904165136 5 -81 -35 -8 -2 -11 2 15
1532179904217995 0 56 -31 -12 -9 61 16 -68
1532179904239936 6 -9 -15 -6 -5 32 -1 67

1532179904300896 3 -7 75 -18 -8 6 1 2
1532179904331815 2 19 57 59 18 3 0 3
1532179904375698 -4 -8 -32 -15 -5 -3 -3 -11
1532179904427559 4 -12 -4 -2 1 -3 -2 2
1532179904457480 -1 -5 -7 4 3 3 -3 -3
1532179904503357 7 20 -5 -9 -4 0 -4 -5
1532179904518316 1 -8 5 5 1 0 0 -2
1532179904563197 -4 -1 1 0 -1 -1 -2 -2
1532179904578157 -5 -1 -5 -3 -2 -1 -1 -1
1532179904623037 -2 9 4 3 1 -1 0 0
1532179904652957 -6 -10 -10 1 -1 0 -7 -8
1532179904690856 2 4 4 4 2 0 0 2
1532179904735736 -4 -9 4 1 0 0 2 5
1532179904780615 2 -16 -8 2 -1 1 -4 -3
1532179904802556 -5 -12 -8 3 -1 -4 -1 -1
1532179904825496 2 -11 7 -1 0 -2 1 2
1532179904847437 -2 0 1 -2 0 -1 -2 -2
1532179904885336 -3 5 1 -3 1 -1 2 -1
1532179904953154 2 -10 -3 -2 -1 -2 0 1
1532179904983074 0 3 -2 -1 -2 -2 1 0
1532179905050892 0 2 -1 0 -1 -1 -2 -1
1532179905065853 0 4 -11 -7 -2 0 -2 -1
1532179905087794 -2 3 1 -2 -1 0 -1 1
1532179905102754 -3 -1 3 0 -1 -1 0 0
1532179905125693 -1 -11 -3 -1 0 1 1 2
1532179905155613 -3 16 1 2 2 -1 1 -1
1532179905179549 0 -4 -6 0 0 0 -1 1
1532179905200492 -5 -30 -9 1 1 0 -1 -3
1532179905222435 4 16 3 -3 -1 -1 0 2
1532179905237394 1 0 2 -1 -2 -1 -1 2
1532179905283271 1 -23 -5 -2 -1 -1 2 1
1532179905305212 -3 6 2 -3 -2 -1 -2 -2
1532179905343111 -2 12 7 3 1 -2 -3 -3
1532179905373031 -3 5 -5 1 2 0 0 -3
1532179905394973 0 12 -5 -2 -2 -2 2 0
1532179905409933 -4 -14 0 -2 1 -1 -1 -2
1532179905425890 2 -12 -8 -3 -1 -1 0 -1
1532179905447831 -6 -12 -6 7 0 -1 0 -2
1532179905470778 4 -9 -2 -4 -2 -3 1 -1
1532179905500698 -4 -12 -3 0 -1 0 -1 0
1532179905522639 1 5 6 0 0 1 0 -1
1532179905561536 -3 -1 2 -1 -2 -1 -4 -4
1532179905590458 0 -7 -3 -2 -3 -2 1 0
1532179905605417 1 2 -1 -4 -2 -1 -1 1
1532179905643317 8 0 7 -1 0 -1 0 1
1532179905673237 -1 -17 -13 -1 -2 0 0 2
1532179905695178 -1 17 0 -1 -1 0 -1 -1
1532179905740057 -2 1 5 -2 1 -2 1 -2
1532179905762997 -3 -11 -4 2 -1 -2 -1 -1
1532179905792917 -4 7 -1 0 0 1 -1 -1
1532179905807877 -1 6 0 0 0 1 0 -2
1532179905830815 3 -7 -2 -2 0 -1 0 1
1532179905845776 0 0 -7 -2 0 -1 4 4
1532179905867716 0 2 -5 -2 -1 0 -2 -3
1532179905890655 2 1 2 -4 -4 2 2 -2
1532179905920575 -1 -37 -5 0 -3 2 -2 -1
1532179905935534 1 -9 -1 -3 -2 -3 -1 1
1532179905957477 4 -12 -4 -2 0 -1 0 2
1532179905988404 -9 22 9 -3 -1 0 -3 -3
1532179906003356 1 0 2 0 -2 1 0 0
1532179906025295 3 2 -5 2 2 -1 1 2
1532179906063194 0 -32 -10 -3 -2 0 0 0
1532179906085135 3 -4 -2 -1 1 0 0 -1
1532179906100095 0 3 6 0 -2 0 -1 -3
1532179906130015 -5 -5 -3 1 1 1 -1 -2
1532179906152966 3 19 9 -2 -2 0 1 1
1532179906197834 5 2 5 -1 -2 -1 0 -2
1532179906227754 3 -2 8 -1 -1 -1 -3 -2
1532179906257674 1 -8 -5 0 1 0 0 -1
1532179906302554 -2 4 1 0 -2 -1 -3 0
1532179906332474 0 -10 -6 -1 -1 0 1 1
1532179906362394 -1 -8 -1 0 -2 0 -1 -1
1532179906408271 -2 7 6 0 0 -1 0 -3
1532179906453151 3 10 5 -2 -1 -1 0 1
1532179906468110 1 7 -3 -4 -1 2 0 1
1532179906505012 -2 -14 -16 -2 -1 -1 0 1
1532179906534932 -2 -8 -6 -2 -2 -1 -1 0
1532179906565850 -4 -2 0 2 -1 1 -1 -2
1532179906587790 -1 -5 0 -3 -1 1 -2 -1
1532179906633013 -11 7 4 4 0 0 -1 -3
1532179906671909 0 -6 -7 -6 -1 -1 -1 2
1532179906730265 0 0 0 1 2 2 1 0
1532179906745225 0 -4 4 -1 -1 -2 -1 0
1532179906760184 2 -2 -7 -2 -2 1 0 0
1532179906783123 -2 -16 2 -3 -1 -1 1 1
1532179906798083 1 -7 2 12 3 -2 1 0
1532179906820025 -4 1 6 -8 -4 -3 -1 -1
1532179906842963 0 3 -4 -1 0 -1 -1 -2
1532179906864905 -10 30 2 -5 -3 0 -2 -3
1532179906880861 5 -8 -6 -4 -1 2 2 4
1532179906895822 -4 -2 -1 2 0 0 -2 -3
1532179906947683 5 -16 -5 -1 0 -1 -1 -1
1532179906970879 -3 6 3 0 1 0 0 0
1532179906985826 2 4 -1 0 -1 -2 -1 -1
1532179907022726 -3 -3 -6 -5 -2 -2 -1 1
1532179907052646 1 -11 1 1 -2 0 -1 0
1532179907075585 -1 22 13 0 0 0 -1 -1
1532179907112486 0 1 0 0 0 0 0 0
1532179907135424 0 4 -8 1 1 -1 0 -3
1532179907165345 3 -8 2 -2 -3 0 0 0
1532179907195265 -4 3 1 -4 -3 -1 -1 -2
1532179907225185 -1 13 3 1 0 0 -1 1
1532179907248124 -1 1 -4 0 -1 0 0 -2
1532179907285025 2 -30 -5 0 0 0 -1 1
1532179907314944 1 2 6 -1 -1 -2 -2 -1
1532179907337883 -2 17 6 0 0 0 0 -2
1532179907382763 0 -21 -13 0 -1 -1 -1 -2
1532179907427644 -2 -6 -3 -2 -3 -2 1 -2
1532179907450582 -1 18 0 -2 0 -1 -2 1
1532179907465542 -5 6 2 0 -2 0 -1 -2
1532179907480502 4 -2 2 -1 -1 1 2 0
1532179907510421 -2 6 7 0 -2 -1 1 -1
1532179907533377 -3 17 5 -3 -2 -3 -3 -2
1532179907548320 2 -7 -3 -2 0 0 -1 2
1532179907578241 0 2 0 -1 0 -1 0 1
1532179907600181 -1 7 2 -1 -1 0 0 -1
1532179907623121 -3 -1 -4 -1 -1 0 -2 -2
1532179907668000 0 -15 -1 2 1 0 4 5
1532179907683958 0 -6 3 -1 -2 -2 -3 -3
1532179907697921 1 -6 -7 2 1 2 1 1
1532179907742801 -2 -14 -3 3 2 0 -1 0
1532179907765740 -6 9 3 0 -1 0 1 -2
1532179907795659 1 -4 -4 0 0 -1 1 -1
1532179907810619 1 -23 -3 -2 -3 -2 -4 -3
1532179907832561 -2 -8 -3 0 0 0 0 -3
1532179907855500 -1 21 3 -3 -1 0 -1 1
1532179907877441 -1 -27 -8 -2 -4 1 -1 -2
1532179907923318 1 -10 0 1 0 1 -1 -2
1532179907945259 1 5 -1 1 1 1 -1 -1
1532179907975179 -1 -6 0 -1 -1 -1 2 2
1532179907990139 1 -4 -4 0 -1 -2 0 -2
1532179908028037 1 -1 -1 -2 -1 -1 0 1
1532179908057958 -1 14 5 0 0 -1 -2 0
1532179908087877 -2 -16 -3 -2 0 0 1 -1
1532179908103835 -1 13 2 -3 1 -1 1 -1
1532179908125785 -1 -7 0 -1 -1 -2 1 0
1532179908140736 1 -1 3 2 -1 -3 0 1
1532179908170656 0 -4 -3 1 0 0 -1 -1
1532179908200576 -1 1 0 -1 -1 -1 0 0
1532179908222518 -1 -13 -1 0 0 0 0 -1
1532179908237478 1 18 -4 -2 -2 -1 -1 -1
1532179908252437 0 -5 -2 0 -3 -1 -1 0
1532179908283355 -4 -11 -8 -2 0 0 1 0
1532179908312404 -3 -10 -4 -2 -1 0 -2 -2
1532179908328361 4 1 1 0 0 -14 1 2
1532179908350302 -7 9 3 1 0 5 0 -2
1532179908380223 3 -10 -7 -4 -3 0 2 0
1532179908395182 0 -26 -8 -1 2 -6 0 2
1532179908418127 -2 4 5 1 0 6 0 -1
1532179908440063 4 6 1 1 0 1 -1 0
1532179908462638 -1 -2 -3 -1 -1 -1 -2 -1
1532179908492558 -1 -22 -5 -3 0 1 0 -1
1532179908507518 -6 -13 -9 -2 1 -5 -2 0
1532179908537438 1 -4 5 -1 0 -2 1 1
1532179908552437 4 20 2 2 -2 -1 0 0
1532179908568378 -1 17 4 0 0 3 -1 -1
1532179908583338 0 -12 -7 0 0 0 -1 0
1532179908613258 -1 4 5 -3 -3 -1 -1 -3
1532179908628226 1 -5 -3 2 0 1 3 2
1532179908650167 -1 -18 -4 -1 -1 0 -2 -4
1532179908665127 -4 -10 -7 -3 -2 1 -1 0
1532179908688065 -5 26 10 0 -2 -2 0 -1
1532179908717985 1 9 1 0 0 -2 0 0
1532179908739927 -3 1 3 -1 -2 -1 -3 -4
1532179908785820 1 -9 3 3 1 1 0 -1
1532179908830684 1 -15 -12 -2 -1 0 -3 -4
1532179908852634 -1 22 0 0 0 0 -2 -2
1532179908890532 1 -8 -5 -2 -1 -1 1 1
1532179908920452 1 2 -4 -4 -2 -2 -1 0
1532179908950372 -2 -18 -11 -2 1 1 2 0
1532179909010212 -1 -3 -1 0 -1 0 -3 0
1532179909033151 2 11 -2 -1 2 1 3 6
1532179909070052 -1 -13 0 0 0 -1 -3 -2
1532179909122911 -4 -33 -6 0 0 0 -2 -2
1532179909160810 0 12 -1 0 0 -1 -1 -1
1532179909190042 -5 -24 -8 0 -3 -5 -1 -4
1532179909257860 0 23 -1 0 0 -2 1 -1
1532179909273817 3 5 2 -1 0 -1 -1 -1
1532179909325680 0 -11 -3 -3 0 -1 -2 -1
1532179909385519 -2 -5 -4 1 1 0 1 1
1532179909415440 -1 -13 -8 -2 1 0 -1 -1
1532179909438378 -1 21 6 -2 -2 0 -1 2
1532179909550835 -1 25 5 -4 -3 -2 -1 -2
1532179909610676 -2 5 -4 -4 1 1 -1 -1
1532179909677497 1 -3 4 1 -2 0 -2 0
1532179909723389 -2 -6 -3 -1 0 -1 -3 -1
1532179909768255 0 14 6 -1 -2 -1 1 -2
1532179909790196 -1 -10 -2 -1 -2 1 0 -2
1532179909835042 -3 -28 -12 -2 -1 0 -1 -2
1532179909857981 -2 20 8 2 0 -1 0 0
1532179909992622 0 3 1 0 0 0 -2 -1
1532179910044994 -2 -6 -1 0 0 -2 -2 0
1532179910082892 1 -5 -6 0 1 2 -1 -1
1532179910120791 -1 -5 -2 -1 0 0 1 0
1532179910150711 -2 -7 -8 -2 -1 -3 -2 -1
1532179910172652 1 4 -1 0 0 -1 0 1
1532179910202586 1 8 3 -2 -2 1 0 -1
1532179910225511 -1 -11 -7 -1 1 0 0 -2
1532179910255431 8 1 0 -1 -2 -1 0 0
1532179910278370 -4 -7 -5 2 2 1 0 -2
1532179910300310 -3 14 4 0 0 -2 -1 -1
1532179910315271 -4 -3 4 0 0 1 -1 1
1532179910338209 -1 7 7 -1 -2 -2 0 -2
1532179910360151 1 0 -1 0 -1 0 0 1
1532179910375111 0 9 -2 -3 -2 -3 -1 1
1532179910405031 -1 0 4 1 0 0 -2 -2
1532179910427970 5 11 3 2 0 1 1 0
1532179910442929 -1 -6 -4 -1 2 -2 -1 0
1532179910464896 -1 17 2 -1 -2 -2 -1 -1
1532179910487836 2 0 5 2 0 -3 -1 -1
1532179910510774 -3 12 1 -2 0 0 0 -1
1532179910525734 -1 -26 -7 0 0 -2 0 -1
1532179910547676 0 0 -4 -2 -3 -1 -1 0
1532179910562635 0 -11 -3 -4 -4 -2 0 2
1532179910592556 -1 0 0 -1 1 0 -1 -1
1532179910637481 0 -7 -2 3 -1 2 -1 -2
1532179910660420 2 3 2 -1 0 -2 -2 1
1532179910675379 -1 16 0 -1 -2 -1 -2 -1
1532179910698318 -6 4 -5 -1 -1 0 -1 0
1532179910720260 -1 -2 -2 0 0 -2 0 1
1532179910735220 1 4 2 -1 1 1 1 1
1532179910758158 -1 -15 -11 0 -2 0 -2 1
1532179910788078 -2 5 2 0 -1 0 -2 -3
1532179910803039 2 -5 2 -2 0 -2 -3 -2
1532179910824980 -1 1 -2 -2 -1 -2 -1 -2
1532179910839940 1 -4 -3 0 -3 -1 -1 1
1532179910862878 1 -21 -8 -4 -4 -2 -2 -3
1532179910885823 -1 5 2 -3 0 1 0 0
1532179910915743 -1 -7 -5 0 2 0 0 0
1532179910937684 -1 8 5 -1 -3 -2 0 -1
1532179910952644 4 6 3 1 0 -1 0 0
1532179910967604 -2 -7 -3 0 -1 -1 -2 -1
1532179910997524 -5 -14 -10 -1 -1 1 1 0
1532179911020463 1 5 2 2 0 0 -1 0
1532179911043402 -5 -4 -1 0 0 0 0 -3
1532179911058362 -1 -3 -1 -1 0 0 0 -2
1532179911096260 1 11 7 -1 0 -2 -1 -1
1532179911110223 -6 -52 -18 -3 0 0 -3 -2
1532179911148127 -3 10 2 -2 -1 -4 -2 0
1532179911185028 -1 2 2 0 -2 0 0 0
1532179911199988 1 -2 -4 1 2 0 -1 0
1532179911267806 1 4 -3 0 -1 -1 -1 0
1532179911298339 0 1 -3 -1 1 -1 -1 2
1532179911328259 0 -5 -3 -2 -2 -2 0 -1
1532179911373139 0 -7 2 1 1 1 -1 0
1532179911388099 0 -11 1 0 0 -1 -1 -2
1532179911410573 -3 -24 -9 -1 0 -1 0 -1
1532179911440499 0 -3 3 1 0 1 0 -2
1532179911470419 2 5 6 2 1 0 -1 0
1532179911493358 -3 -5 -5 -3 0 -2 -1 -1
1532179911514897 -3 8 10 -2 -2 -1 0 -1
1532179911552797 1 5 -2 0 -1 2 1 1
1532179911567757 -3 -16 -3 -2 -2 2 -1 0
1532179911612636 0 0 0 1 0 -1 0 -1
1532179911635576 1 -5 -5 0 -1 -1 0 0
1532179911665495 1 -18 -8 -3 -1 -1 0 2
1532179911687436 0 -20 -2 1 -1 0 1 0
1532179911718354 -3 -12 -2 -2 1 -2 0 -1
1532179911755261 0 -8 3 -1 -1 -2 2 1
1532179911830529 1 2 -2 0 0 1 -1 -1
1532179911883387 2 21 11 1 -2 0 -1 -1
1532179911898348 0 -11 -6 -2 -1 -2 -1 0
1532179911920289 0 6 -1 -1 -1 -1 -1 0
1532179911943278 0 5 4 1 -1 -1 -2 -1
1532179911973199 0 -4 4 -1 1 0 -1 1
1532179912003118 -1 14 0 1 -2 -1 0 -1
1532179912033039 -2 -26 -9 1 -1 -2 -2 0
1532179912069940 -4 -15 -4 -1 -4 -2 1 0
1532179912100857 -1 -1 -3 -2 -1 1 0 -2
1532179912115825 2 -10 -4 0 1 -1 0 0
1532179912153715 1 13 -1 1 0 -1 -2 -1
1532179912167678 0 -5 1 0 0 -2 -1 -2
1532179912212470 0 14 7 -3 -1 0 0 0
1532179912235416 -2 -7 -1 -1 0 -1 0 -1
1532179912265329 -1 16 -1 -1 -1 -2 0 -2
1532179912310209 0 6 -1 -2 0 0 -1 1
1532179912340129 -1 -8 -8 2 -1 -1 -1 0
1532179912355090 0 -8 -4 1 -1 -1 0 -1
1532179912385009 -1 -10 -1 -2 -2 -1 1 -1
1532179912407948 0 -6 3 -2 0 1 1 0
1532179912422908 -1 10 3 2 -1 -1 -1 -1
1532179912437868 1 5 0 0 1 -2 0 0
1532179912467796 0 2 3 2 1 0 -1 0
1532179912497707 -2 1 -5 -2 1 1 -2 -2
1532179912512667 -2 -2 -1 -1 -1 -3 1 0
1532179912572508 -2 -11 0 -1 -2 -1 0 0
1532179912587468 2 -27 -6 -1 -1 -1 0 0
1532179912610592 2 8 1 0 1 -2 1 -1
1532179912625552 -2 0 7 0 0 0 0 1
1532179912655472 1 0 1 -2 -2 1 -1 -1
1532179912670448 0 8 3 -2 -1 0 2 2
1532179912708331 0 -2 -5 1 1 0 -1 -1
1532179912723297 1 8 -1 -1 -2 -1 0 1
1532179912738257 0 2 1 -1 1 0 -2 1
1532179912768177 -1 -12 1 0 0 -2 -1 -1
1532179912782437 0 -8 -3 0 1 1 1 -1
1532179912813822 -1 -1 -2 0 -2 -2 -1 -2
1532179912827784 -2 -5 -5 0 -1 0 -1 -1
1532179912857704 -1 4 -1 -2 -1 1 -1 -1
1532179912887623 0 2 0 -1 -1 0 0 1
1532179912902584 -3 -11 -2 -1 -1 -1 0 0
1532179912932504 -1 -15 0 -2 -1 1 1 -3
1532179912963427 -1 -7 -3 0 0 0 0 0
1532179913008410 0 5 -2 0 2 0 -1 1
1532179913045313 -1 2 11 2 0 0 2 -1
1532179913075233 2 8 -2 -1 -2 -1 -1 0
1532179913128092 0 -5 -12 -3 -1 0 -1 0
1532179913164993 1 -4 0 -1 0 -1 -1 1
1532179913187932 2 -2 2 0 -1 -1 -2 -1
1532179913217852 0 0 1 -2 -1 -1 0 1
1532179913262738 -3 -25 -10 -1 -1 1 -1 -2
1532179913300637 -1 1 3 0 -1 -1 -2 -1
1532179913322577 2 9 -1 3 1 -1 -1 1
1532179913337538 -1 -4 -3 0 0 -1 0 -1
1532179913360475 -1 -6 2 -2 -1 3 -1 -1
1532179913405355 1 2 1 -1 0 -1 0 0
1532179913428295 -6 -13 -8 0 3 2 -1 -3
1532179913458214 -2 -8 2 -1 -3 0 1 -2
1532179913488135 -1 4 -1 0 -2 0 0 0
1532179913533014 -1 -23 -6 0 1 -1 0 0
1532179913585561 0 -6 -4 -1 0 0 -1 0
1532179913615468 1 29 10 0 -1 -1 -1 -1
1532179913653367 3 -7 -3 -2 -2 -1 -1 1
1532179913676306 -2 -21 3 1 -2 -4 -1 -1
1532179913690269 -1 10 3 1 1 0 0 1
1532179913713206 -2 -21 -14 -2 1 1 0 0
1532179913734954 -1 13 6 1 1 0 0 -1
1532179913765871 -4 -28 -9 -1 -3 0 -1 -1
1532179913795791 -10 7 4 1 1 0 -1 -1
1532179913825711 0 18 9 1 1 -2 -1 1
1532179913877573 3 -11 -1 3 2 0 1 0
1532179913937569 2 15 0 -1 -1 2 0 -2
1532179913975467 0 3 0 1 0 0 -1 -2
1532179914005388 0 3 -1 -2 0 -4 -2 -2
1532179914020347 1 -18 -11 -1 -3 -1 0 1
1532179914050291 1 5 1 1 2 -1 0 -1
1532179914080210 1 18 4 -4 -1 -2 -1 1
1532179914127085 -1 -5 3 1 -2 -2 1 -1
1532179914155011 1 14 7 0 -2 3 1 -1
1532179914252749 0 4 -4 0 -1 -2 -1 -2
1532179914297666 -5 6 -4 -1 1 0 -1 -1
1532179914336563 2 10 2 -2 -2 -1 0 1
1532179914403401 -1 -16 -7 0 -2 -2 -2 -1
1532179914441282 0 2 2 0 0 -2 -2 0
1532179914492749 -1 -4 7 1 1 2 -1 -2
1532179914530647 2 -5 0 -2 0 0 2 1
1532179914575528 2 10 -2 -1 0 0 0 1
1532179914605448 1 6 4 2 1 -2 -1 -1
1532179914635382 -2 -23 -7 -1 0 0 -2 -4
1532179914682243 0 20 4 1 0 -2 -1 2
1532179914718931 -3 17 1 -3 -1 -1 0 -1
1532179914771790 -1 -2 0 -1 1 2 -2 -2
1532179914807694 1 -4 1 0 -2 1 0 0
1532179914845592 0 1 -2 -2 -2 -2 1 1
1532179914882494 -1 2 4 -2 1 -1 0 0
1532179914912913 -2 -10 -3 0 -3 -1 0 0
1532179914950812 1 -5 -2 -3 0 3 -1 0
1532179914995691 -2 -24 -5 -1 0 0 0 0
1532179915025612 0 -3 -2 3 0 -1 1 0
1532179915047552 -2 3 -1 1 2 0 -1 -1
1532179915100435 1 19 -1 0 -1 -6 -2 0
1532179915115395 0 7 1 0 1 1 0 0
1532179915138349 0 -22 -13 -1 0 1 -1 1
1532179915153294 -1 -7 5 2 0 0 1 -1
1532179915183214 3 -3 -3 -1 0 2 0 1
1532179915220115 4 22 7 -1 -3 -1 -2 1
1532179915258014 -5 -33 5 -1 2 -1 -1 -1
1532179915317865 -1 3 7 0 1 1 1 1
1532179915385684 -2 7 -6 -2 -1 -1 -3 -3
1532179915430564 -5 5 2 0 -1 0 -3 -1
1532179915461482 0 -3 1 0 -1 -2 -3 -1
1532179915498393 -1 -7 -3 -1 -2 -1 3 2
1532179915542906 0 5 4 -1 0 0 -2 1
1532179915565845 -2 14 3 -1 0 0 0 -1
1532179915617706 -1 3 0 -2 -1 1 -1 -2
1532179915738396 1 11 3 0 -1 -1 0 0
1532179915768304 0 12 3 0 -3 -1 -2 0
1532179915790245 0 -9 -9 -3 -1 2 1 2
1532179915828144 0 1 6 1 1 -2 -1 -2
1532179915850085 0 37 12 -1 -1 -1 1 0
1532179915894964 -1 -8 0 -2 -3 -1 0 0
1532179915917904 -1 -12 -16 -2 0 -1 -2 -2
1532179915955802 1 0 4 1 0 0 -1 0
1532179915977743 0 6 2 -2 -1 -3 -1 -1
1532179916007663 0 -11 3 0 0 1 0 -1
1532179916046563 -1 -9 -7 -2 0 -1 -1 -1
1532179916075496 0 15 11 -2 -2 -1 -1 0
1532179916107410 1 -9 -2 0 1 3 0 0
1532179916150295 -1 -3 0 0 2 -1 1 -1
1532179916203153 0 -14 -4 2 -1 1 0 -1
1532179916225095 1 -2 3 -1 0 0 -1 0
1532179916338229 1 -7 -1 -1 -1 0 -2 -1
1532179916405572 -2 -2 0 1 0 3 1 0
1532179916510292 0 4 -1 0 -2 1 0 2
1532179916555172 0 6 2 1 1 -2 -1 0
1532179916608031 -1 -2 -7 0 -2 -2 -1 -1
1532179916644932 1 -4 -1 -2 -2 -2 0 0
1532179916675850 0 7 1 -4 -2 -2 -1 1
1532179916804507 0 5 -1 -1 -1 1 1 -1
1532179916855370 -2 9 2 -2 0 1 0 0
1532179916885320 1 -7 2 1 0 -1 -2 -2
1532179916900280 0 0 0 0 1 1 0 2
1532179916916238 1 15 0 -1 0 0 1 -1
1532179916938179 1 -13 -4 0 -1 0 0 -1
1532179916998019 0 3 -2 -2 -4 -3 2 -1
1532179917027939 1 1 3 0 1 -2 -1 -1
1532179917058856 -1 -10 -1 1 0 1 0 -1
1532179917095758 0 0 -7 -1 -1 0 -1 -1
1532179917140638 2 4 -2 2 -1 0 -1 0
1532179917185518 0 7 -1 0 1 0 -2 -1
1532179917245357 1 4 5 -1 -2 -3 0 -1
1532179917275278 0 -11 -1 0 2 -1 -1 0
1532179917298216 -3 0 2 0 1 -1 0 0
1532179917328136 0 -5 -5 -1 -2 -1 -1 0
1532179917358056 -3 12 0 0 -1 0 0 1
1532179917379998 2 -14 -1 1 -2 2 -1 -1
1532179917409925 -1 -5 -10 -3 -1 -1 -1 0
1532179917440842 -5 -58 -13 -2 0 -2 0 -2
1532179917477929 -1 -8 -4 1 0 -1 1 -1
1532179917492636 2 7 -3 0 -2 -1 1 -1
1532179917522556 1 12 -2 -2 -1 -1 1 1
1532179917575415 -2 -18 -7 0 1 0 -1 0
1532179917620315 -2 15 4 -3 1 0 0 -1
1532179917650234 -1 -3 0 0 -1 1 0 0
1532179917673173 -1 -6 2 1 0 0 0 0
1532179917688140 1 -5 0 -1 -2 0 1 -1
1532179917725041 0 -1 -2 0 -1 0 0 1
1532179917740022 0 -7 -5 -2 0 -1 -1 0
1532179917762960 0 13 2 0 1 0 0 0
1532179917777921 -1 25 5 -2 -1 -2 1 -1
1532179917807840 -1 0 1 -2 -2 -2 -1 -1
1532179917845750 -1 -7 -3 0 0 0 0 0
1532179917875840 -2 -3 -1 1 0 -1 -3 1
1532179917905761 0 -6 -4 -1 0 -1 0 -1
1532179917965601 1 7 4 0 -1 -3 -3 -1
1532179918002509 1 2 1 -1 0 -1 1 2
1532179918032429 -2 28 12 -1 0 2 -1 -2
1532179918047611 -4 -29 -3 -2 -3 -2 -2 -3
1532179918092501 0 -4 8 2 0 0 -2 -1
1532179918123409 -1 1 -6 -1 0 -2 -1 -1
1532179918145350 1 -10 -5 1 -1 -2 -1 1
1532179918168289 0 -15 -10 0 -2 0 -1 0
1532179918191227 -2 -15 -3 -2 -2 0 1 0
1532179918250886 0 -1 5 -2 0 -1 0 -2
1532179918273827 -1 -3 -4 1 0 -1 -1 0
1532179918325424 -2 22 -1 -2 -1 0 -2 -2
1532179918348846 0 -5 1 -1 -2 0 -2 0
1532179918385746 -3 16 5 1 -1 0 -1 -1
1532179918407687 0 6 8 -1 0 -1 0 1
1532179918445586 0 0 -10 -2 -2 1 0 0
1532179918490466 -2 -31 -7 -2 -2 0 -1 1
1532179918512433 2 -3 3 -1 0 -1 0 0
1532179918543352 1 15 1 0 -1 0 1 1
1532179918564929 -1 -8 -5 -1 0 -1 -1 -1
1532179918579926 -2 3 -47 -2 -3 -1 -1 -1
1532179918595883 -1 -23 10 0 1 0 -1 0
1532179918625802 1 8 1 2 0 -2 0 1
1532179918648180 -3 -2 5 -3 -1 -1 -1 -2
1532179918678100 1 4 37 1 -1 -1 -2 -1
1532179918708019 -1 -20 -9 0 2 -1 0 -1
1532179918729961 1 -11 -4 0 -2 1 -2 -1
1532179918768857 0 -10 -9 -2 1 -1 -1 -1
1532179918790798 -2 5 2 0 0 -2 -1 1
1532179918812740 -2 11 3 2 1 0 0 1
1532179918842664 2 6 3 2 0 0 1 1
1532179918865598 2 1 -25 0 0 -2 2 0
1532179918902500 0 -2 5 -2 -1 0 -1 0
1532179918925439 -3 -17 -4 -4 0 -2 0 -2
1532179918940399 -2 -14 -2 0 -2 1 -2 0
1532179918985279 -2 -14 -3 -2 0 -1 1 0
1532179919008217 -1 5 30 4 0 2 0 -2
1532179919038137 -1 1 -1 0 -1 -1 -1 -1
1532179919053109 -2 -19 -16 -2 -1 -1 0 0
1532179919083017 -2 -3 -6 -1 0 0 0 -1
1532179919112937 -1 -7 -1 0 -1 -1 -1 -1
1532179919157818 -1 19 5 0 -3 -3 -1 -2
1532179919195715 1 -1 -12 -1 -1 0 -1 1
1532179919217657 0 -6 -9 -2 -1 0 1 -2
1532179919270516 0 8 36 0 -2 -1 0 -1
1532179919300450 2 9 3 1 0 0 -1 0
1532179919315410 0 7 -14 -4 -1 -1 -1 -2
1532179919353309 0 -2 3 0 0 -1 -1 -3
1532179919383228 -1 -9 -6 1 0 -1 -1 0
1532179919405176 0 6 4 1 1 0 1 -1
1532179919428114 -1 18 2 0 0 0 -1 -1
1532179919443087 -1 -1 -34 -3 0 -1 -2 -2
1532179919479988 1 3 4 0 1 0 1 0
1532179919502942 0 -21 -11 0 1 0 1 0
1532179919525874 2 -14 -5 0 -3 -1 -1 -1
1532179919547806 -3 -3 0 -4 -1 0 1 0
1532179919562766 -3 -8 3 1 2 1 -1 -2
1532179919577727 -2 -3 -1 0 -2 -1 0 0
1532179919607647 0 11 0 -1 0 -3 0 2
1532179919630586 -1 -1 -7 -1 -2 0 -2 -1
1532179919660505 -1 12 -7 0 -1 1 -1 -1
1532179919682446 0 -2 -6 -1 -1 -1 0 -1
1532179919713364 1 -6 -9 -2 -1 0 0 0
1532179919735305 -2 -12 -17 -2 -1 0 -1 -1
1532179919758244 0 -7 6 0 0 0 -1 -1
1532179919795146 -2 -2 -1 0 -1 -2 0 0
1532179919818084 1 2 -1 -1 -1 -1 -1 0
1532179919900863 1 13 -2 0 -1 -1 -1 -1
1532179919952740 -3 -22 -17 -1 0 0 -1 -1
1532179919990639 1 8 2 -1 2 -2 -1 0
1532179920027540 0 3 -6 0 -1 0 -1 0
1532179920042499 1 5 10 -3 -1 -1 0 -1
1532179920065439 0 4 -2 -1 1 1 -1 -1
1532179920103338 -1 -12 -10 0 1 0 3 0
1532179920133258 0 -14 -5 0 0 -1 0 -1
1532179920157194 -4 -13 -5 -1 -1 -2 -1 1
1532179920178137 -1 5 -3 0 0 0 -2 -1
1532179920193097 1 14 4 -1 0 -1 0 -1
1532179920223017 0 4 2 0 -1 -1 1 -1
1532179920237977 -1 -17 -12 -3 -1 0 -1 -1
1532179920267897 0 31 9 0 -1 0 1 -2
1532179920282858 1 -3 0 -1 -1 -1 -1 0
1532179920305796 -2 -37 -14 -6 0 0 0 0
1532179920320761 -1 -11 1 -1 1 0 0 0
1532179920342698 0 -4 -4 -1 -2 0 0 0
1532179920365636 0 -2 -5 -1 -1 -3 -1 0
1532179920380596 0 -10 -1 2 -1 1 0 1
1532179920410516 -1 -1 11 -2 1 0 -1 0
1532179920432457 0 13 7 2 1 -1 0 0
1532179920447417 0 -5 -10 0 -1 -2 1 -1
1532179920485316 -1 -4 -2 -2 -1 0 0 -1
1532179920515236 -1 -4 -11 0 -2 0 0 0
1532179920538175 2 -6 -2 -2 0 0 -1 0
1532179920568118 0 7 -2 -1 -2 1 -1 0
1532179920590060 1 6 2 -2 -2 0 -1 -1
1532179920612999 3 -10 -3 -1 0 -3 -1 1
1532179920627958 -1 -11 -2 0 -1 -1 1 -1
1532179920650897 -2 -23 -22 -2 0 1 -2 -1
1532179920672905 -1 -3 -3 -1 0 -2 0 -1
1532179920702830 -1 10 -1 0 0 -1 0 -2
1532179920717785 1 2 -3 -2 -1 -2 -1 -1
1532179920777808 0 6 -2 0 2 -1 -1 -1
1532179920815814 0 -1 1 1 0 -1 -2 -1
1532179920837756 1 -1 -4 0 1 -1 -1 -1
1532179920875660 -1 3 -1 -1 0 -1 0 0
1532179920905575 -2 -1 6 -1 -2 0 -1 -1
1532179920927516 -2 -17 -2 -1 -2 0 0 0
1532179920950454 -1 -34 -6 -1 -2 -1 -1 0
1532179920965414 2 -10 -17 0 1 1 -1 1
1532179920995334 -2 -22 -15 -4 -3 -1 0 -1
1532179921018273 1 11 14 3 -1 1 0 0
1532179921048193 1 2 -33 -2 -1 0 1 0
1532179921063153 0 -13 6 1 1 0 -1 -1
1532179921093073 2 15 14 -1 -1 -3 -2 -1
1532179921115015 -1 19 2 1 0 -1 0 -1
1532179921129974 0 21 9 0 -2 1 -2 -1
1532179921144934 2 2 -1 -2 -1 1 -1 0
1532179921160892 -1 0 1 1 3 -1 -2 -3
1532179921182833 -1 5 0 0 -1 0 0 -1
1532179921220732 -1 -20 -42 -4 0 0 -2 -1
1532179921242673 0 6 7 0 -2 -3 0 1
1532179921265612 1 14 18 1 0 0 0 -2
1532179921295532 0 -14 2 2 0 1 1 0
1532179921310491 0 7 -33 -1 1 1 -1 -2
1532179921325452 1 -4 -2 0 -1 -2 -1 -1
1532179921378310 0 4 8 -3 -1 0 -2 0
1532179921400252 1 -14 -2 1 -1 -1 -1 2
1532179921437967 -3 -23 -1 0 1 0 -1 -1
1532179921467887 2 13 7 1 0 -1 0 0
1532179921490826 -4 2 -8 -2 -1 -1 1 -1
1532179921527727 1 -13 4 0 0 0 -2 0
1532179921542688 0 -14 -11 -2 -1 -2 -1 -1
1532179921557647 -1 2 -1 0 -2 0 0 -2
1532179921580586 -1 10 2 0 1 -2 -2 -2
1532179921595546 1 -13 -1 0 -1 -1 0 1
1532179921617487 3 15 5 -2 -1 0 0 -2
1532179921648404 -1 -7 -11 1 0 0 -2 -1
1532179921670346 -2 37 4 -1 0 0 1 -1
1532179921700581 -2 -23 -3 -1 1 1 0 0
1532179921715541 -1 -17 -5 1 0 0 -1 -1
1532179921745461 -1 -2 -4 -1 0 -1 0 -2
1532179921767402 3 -5 2 -2 -2 -2 -1 -1
1532179921782362 -2 1 -11 -1 -1 0 0 -2
1532179921813280 -1 -29 -4 -1 0 1 1 -1
1532179921828240 -1 9 -2 1 -1 -3 0 2
1532179921850181 2 29 1 -2 -1 -1 -1 -1
1532179921895071 1 -4 -28 -2 -2 -1 -1 0
1532179921924981 -1 -3 -11 -1 0 1 0 -1
1532179921939941 2 -11 13 1 -1 -2 0 1
1532179921954912 -2 -7 14 -1 -1 0 2 0
1532179921978837 1 1 5 1 1 0 1 0
1532179922007759 0 4 -29 -2 -2 -1 0 0
1532179922045658 -2 -15 -1 0 0 0 -1 0
1532179922060618 0 -2 3 1 0 -2 -1 0
1532179922127439 -1 -4 2 -1 0 0 -1 -1
1532179922240138 1 5 3 0 1 0 0 1
1532179922285018 0 12 12 1 0 1 0 -1
1532179922352847 0 6 3 -2 -2 0 0 0
1532179922382757 -2 -13 -24 0 0 -1 -1 0
1532179922427637 -2 -13 -26 0 -1 -1 -2 -2
1532179922487477 2 15 17 4 2 0 -1 -1
1532179922502437 -1 -11 -8 0 0 0 2 0
1532179922563274 1 0 -10 2 1 2 0 1
1532179922630096 1 25 7 -2 1 -2 -1 0
1532179922705893 2 0 13 2 -1 0 1 0
1532179922727835 -2 -13 -3 1 1 1 -1 0
1532179922787829 -4 5 8 -1 1 1 1 -2
1532179922817748 1 -21 -3 0 -2 0 -2 -2
1532179922855647 0 0 -5 0 0 0 0 -1
1532179922907524 -3 -18 -5 -1 -1 -2 0 -1
1532179922930451 0 -1 2 3 0 0 0 1
1532179922968349 -2 -5 0 2 0 0 -2 0
1532179923035170 0 15 -3 0 0 0 -1 -1
1532179923065090 -1 -14 14 -2 -1 -1 2 1
1532179923207973 2 -7 -4 1 0 0 -1 1
1532179923230923 -2 -25 -10 -2 -1 3 -1 0
1532179923275793 -1 7 6 0 -1 -1 0 -1
1532179923312694 -2 3 -4 -2 -2 -3 0 1
1532179923327653 1 4 -1 1 0 -2 3 -6
1532179923395507 -1 5 7 1 -2 -1 -1 2
1532179923440446 -2 -41 -15 -3 -1 0 1 -2
1532179923455406 0 8 -8 0 -2 -2 -2 1
1532179923515246 0 -20 0 1 -1 -1 0 -1
1532179923560363 -4 -9 11 -2 -2 0 0 -1
1532179923575323 1 19 3 1 1 1 1 2
1532179923598261 -1 0 -3 -2 0 -1 -3 -5
1532179923643141 -2 2 0 0 1 0 -2 0
1532179923673061 -1 -18 -1 2 -2 0 0 0
1532179923717941 -1 24 29 -1 -1 -1 -1 -3
1532179923739884 -1 9 -8 0 -1 2 0 0
1532179923785760 0 -28 -7 0 1 -2 0 0
1532179923807878 -1 10 0 -2 -2 -2 -1 0
1532179923860736 -2 -11 0 2 -1 1 0 0
1532179923875697 -1 0 7 2 -2 -1 0 -3
1532179923905617 -3 -13 -41 -4 -2 -4 -1 -3
1532179923927558 1 5 15 2 -1 -1 -1 1
1532179923957478 -1 -7 6 0 0 -2 1 0
1532179923980417 -1 -5 -3 -1 -1 0 0 0
1532179924032488 -2 -11 -1 -1 -1 -3 -4 1
1532179924063405 -1 -8 -25 -1 -1 0 -1 1
1532179924078365 1 47 8 2 1 -1 1 -1
1532179924115267 1 -2 -1 0 -2 0 -1 -2
1532179924160161 -4 -35 0 -1 -1 1 0 -1
1532179924175110 0 -4 7 -1 -1 -1 2 1
1532179924205027 -3 -12 5 -3 0 -3 -2 -1
1532179924242926 0 25 4 0 1 -1 0 0
1532179924280824 2 13 3 1 0 0 1 -1
1532179924340665 1 -27 21 2 -1 -2 1 -1
1532179924362606 0 4 -3 -1 0 -1 -4 -1
1532179924392525 2 -5 -1 0 -1 -1 -4 -2
1532179924432419 1 18 4 -3 -1 1 2 1
1532179924475305 -2 -6 -10 -4 0 0 -3 1
1532179924535159 -2 -6 1 -4 -1 -1 0 -2
1532179924558098 0 -2 5 -1 -1 1 0 0
1532179924588018 0 6 5 -1 -1 0 -1 -1
1532179924624925 0 0 3 0 1 0 0 -2
1532179924655898 1 -4 4 -1 0 0 -2 -1
1532179924685819 -3 -4 -23 -3 -2 -3 -1 -1
1532179924722738 2 -8 -7 0 -2 0 1 -1
1532179924752659 -2 2 1 0 -2 0 1 -1
1532179924797539 2 5 3 -2 1 -3 0 0
1532179924827458 -3 9 -9 -1 -1 -1 -1 -1
1532179924850397 -3 -25 5 -2 -1 1 0 0
1532179924903256 1 12 2 0 -2 0 0 0
1532179924933211 -1 2 -6 -1 -2 0 1 0
1532179924963130 1 0 -3 0 0 0 1 0
1532179924985072 -2 3 3 0 0 -2 -2 -2
1532179925022970 -2 -17 -7 -4 -1 1 -1 0
1532179925044912 -1 17 3 -1 -1 -1 0 -2
1532179925090789 1 7 -1 -2 0 0 1 -1
1532179925112730 2 2 1 2 -1 -3 -2 0
1532179925142650 -1 4 -10 0 0 0 -1 2
1532179925172570 0 37 6 0 -1 -2 -3 -1
1532179925202491 0 -10 18 1 1 1 -2 -2
1532179925233407 0 1 10 -2 0 -2 0 1
1532179925263328 -1 -7 -3 -1 0 0 1 1
1532179925285268 -1 1 2 1 1 -1 0 1
1532179925308208 -2 -9 -6 -1 -1 1 -2 1
1532179925330149 -1 -1 -7 0 -3 1 7 -1
1532179925345125 -1 -7 2 -2 0 -1 -1 -2
1532179925375029 -1 -11 5 1 1 0 -5 -3
1532179925397968 -3 -1 3 -1 0 0 -1 -2
1532179925435871 1 -4 0 1 1 -1 0 -2
1532179925450826 -1 16 12 -1 0 1 -1 -1
1532179925502687 -2 1 -8 0 0 0 1 -1
1532179925517648 -2 -51 5 -2 -2 0 -1 -1
1532179925540585 0 -12 -13 -1 0 0 -2 1
1532179925585938 -1 -1 5 0 -1 -1 -1 -2
1532179925600899 -3 -12 -6 -1 0 1 0 -3
1532179925652762 -1 -5 0 -2 -3 -1 -1 0
1532179925667721 0 11 2 -1 -1 -2 -2 0
1532179925705620 -3 4 -2 -4 -3 0 -1 0
1532179925727590 -3 6 -7 -2 -2 -1 1 -2
1532179925750529 0 -2 -1 1 1 -1 0 -1
1532179925765509 1 5 -7 -1 -2 0 -1 0
1532179925825349 -2 -2 -4 2 1 1 -1 0
1532179925847944 0 3 -32 -4 -1 -3 -1 -1
1532179925892825 -1 -8 3 -1 0 -1 0 1
1532179925915763 -3 -23 -5 -1 -1 -2 0 -2
1532179925937705 0 -2 -21 0 1 0 -1 0
1532179925983199 0 8 -6 -1 -2 0 -1 0
1532179926013118 1 12 -1 -1 0 1 0 0
1532179926043038 -2 8 -9 -3 -1 1 -1 0
1532179926064979 -2 -8 14 2 0 0 0 -1
1532179926087918 1 -16 -29 -2 -2 0 0 -2
1532179926110857 -1 -21 -2 -2 -1 1 -1 -2
1532179926171694 2 3 1 -1 0 -1 0 0
1532179926200909 2 -4 3 0 -2 -1 1 1
1532179926215871 -2 -17 -5 2 2 -1 0 0
1532179926260751 -2 33 18 -2 -3 -3 -1 -2
1532179926275711 -1 -18 6 -1 0 -1 -1 2
1532179926305631 -1 -23 6 0 0 -4 1 -1
1532179926342532 -2 0 8 0 -1 1 -2 -2
1532179926380430 -1 -23 -3 -1 -2 1 -2 0
1532179926410351 -1 -19 -51 -4 -1 1 -1 -2
1532179926448257 1 49 19 -1 -1 -2 0 0
1532179926493137 1 -3 7 -2 0 -1 -2 1
1532179926515078 -3 -13 6 -1 -1 -1 1 -1
1532179926559958 0 11 -8 -3 -1 -1 1 1
1532179926620519 3 1 2 -1 -1 0 2 -1
1532179926635479 1 -3 -2 3 1 -1 1 1
1532179926658420 3 -3 -9 1 0 0 1 -2
1532179926695319 2 -8 -3 -1 -2 -2 -1 -1
1532179926725240 2 -8 -1 1 0 0 0 0
1532179926740198 1 18 5 -1 -2 0 0 0
1532179926770119 -1 -1 6 1 1 -1 -1 0
1532179926808017 -2 -20 -1 -1 0 1 0 -2
1532179926845916 0 -5 3 -2 -1 -3 -1 0
1532179926860876 -2 10 -18 3 0 0 -2 -1
1532179926875838 -1 -13 6 0 0 -1 -1 0
1532179926905756 0 13 5 -2 -2 0 0 0
1532179926928695 0 0 -4 -1 1 -3 -1 -1
1532179926980556 -3 0 8 -1 0 1 0 0
1532179927017470 -2 -18 -24 -1 -3 1 1 1
1532179927085289 -1 -6 4 0 1 0 0 0
1532179927100249 -1 6 0 -1 -3 -1 0 0
1532179927123188 0 11 8 -1 1 -1 -2 -2
1532179927168143 0 -8 -24 -3 -2 -1 -1 2
1532179927198063 -1 11 2 -1 -2 1 -2 1
1532179927221998 0 -37 -4 1 -2 1 -1 0
1532179927242943 1 10 2 -1 0 0 0 -1
1532179927287823 -2 6 -4 0 -1 -1 1 1
1532179927302784 -1 -17 2 3 2 1 0 -1
1532179927317743 -1 -6 1 0 1 -1 1 -1
1532179927362622 0 8 -3 -2 0 -1 0 0
1532179927384951 -1 -7 23 2 -1 -1 -1 -1
1532179927407891 -1 -1 10 0 1 -2 1 -3
1532179927430829 0 -1 0 -1 0 -2 -1 0
1532179927467730 -3 -10 6 2 1 -1 -2 -2
1532179927483346 2 0 6 0 1 -2 -2 0
1532179927513266 -2 -39 -17 -2 0 -2 0 -1
1532179927528226 0 7 7 -1 -2 0 -1 0
1532179927565182 1 9 -16 -1 -1 1 2 -1
1532179927588121 0 12 11 -1 0 1 -1 0
1532179927603091 -1 10 17 1 -2 -4 -1 -3
1532179927639998 2 5 -9 0 1 0 1 1
1532179927662937 0 -1 -9 0 -1 -1 -1 0
1532179927684878 -2 -23 -16 -1 0 0 -2 -2
1532179927700835 -1 28 3 -3 -1 -1 0 0
1532179927722777 3 -12 5 -1 1 0 0 -1
1532179927745715 0 8 13 1 0 0 0 1
1532179927760675 -3 -12 -12 -2 -1 -1 0 0
1532179927790595 2 9 -1 0 0 -1 1 0
1532179927812536 1 3 1 1 -1 0 0 -1
1532179927835475 0 9 -32 -2 -2 -3 -2 1
1532179927865395 2 -14 -10 -1 0 -1 0 -1
1532179927888333 -2 -15 15 0 -1 -1 -1 -1
1532179927903293 -2 -1 0 1 0 -1 -1 0
1532179927918254 1 3 15 0 0 0 -2 -1
1532179927933214 0 11 3 1 -1 -1 0 -1
1532179928000035 -2 -9 -6 -1 0 -1 -1 -3
1532179928029955 0 11 2 1 1 -1 1 -1
1532179928044915 -2 -16 -9 -2 -1 -1 0 -1
1532179928090792 -3 -60 -6 -7 -2 -1 -2 -2
1532179928127693 1 23 2 2 -1 -3 -1 0
1532179928165592 0 13 9 2 0 1 -1 -2
1532179928187534 -3 24 13 1 -1 -2 -2 -1
1532179928202494 1 -16 -5 0 1 -1 1 -1
1532179928232414 -1 -5 -9 -1 -2 1 0 -1
1532179928248371 0 15 22 1 0 -2 0 -1
1532179928270313 0 1 7 1 -1 0 0 -1
1532179928293260 -3 -18 3 0 1 -1 -2 -1
1532179928315225 0 29 -2 -1 -1 0 0 -2
1532179928362100 0 3 -11 0 -1 0 -1 -1
1532179928398004 -1 6 0 -1 -2 0 1 1
1532179928420959 2 -2 -8 -2 -1 0 0 0
1532179928434906 -1 -4 -15 0 -1 0 -2 -1
1532179928472836 1 2 -14 -3 0 -1 -1 1
1532179928504741 -1 -24 -16 0 0 0 0 0
1532179928532666 0 -19 9 2 1 1 0 -1
1532179928570565 1 -5 5 0 1 0 0 0
1532179928600485 -2 -2 -10 0 3 0 -3 -2
1532179928645365 -1 -1 -5 -2 -1 -1 -1 0
1532179928660324 0 -5 -5 -2 -4 -1 -1 1
1532179928705204 1 7 3 -1 -1 -1 0 -1
1532179928750084 -1 -2 11 0 -2 -2 -1 0
1532179928765052 3 -2 -7 2 1 0 -1 0
1532179928802943 0 -1 12 -1 1 -1 0 1
1532179928818010 0 2 -10 -1 -2 -1 -3 -2
1532179928862597 -2 2 4 -1 -2 1 1 0
1532179928885536 -1 2 -4 1 0 -1 0 0
1532179928923434 -2 -7 -10 -1 0 -1 -2 -1
1532179928945376 -1 -16 -3 -2 0 0 1 0
1532179928975296 -1 15 9 1 0 -1 0 -2
1532179928998234 2 12 7 -1 -2 -1 -2 -1
1532179929035135 1 3 6 2 1 1 -1 0
1532179929065056 -1 -1 2 -1 -1 -3 -1 -1
1532179929102954 0 2 -4 0 1 1 -1 -1
1532179929117914 -1 -6 -37 -3 -2 -1 1 -1
1532179929178292 0 -39 -34 -3 -1 -1 -1 -2
1532179929200633 -2 6 15 1 -1 0 0 0
1532179929252558 -1 4 -2 -1 -1 1 1 0
1532179929290416 0 3 0 -1 -1 0 0 -1
1532179929305377 1 -7 -2 0 0 0 7 1
1532179929343275 0 -4 -2 -1 -1 0 -3 0
1532179929365217 -1 4 -2 -1 0 -1 -2 0
1532179929395136 -1 14 3 0 2 0 1 -2
1532179929426073 -1 -14 -2 1 -1 -1 -1 0
1532179929469955 2 0 -1 -1 -1 0 0 0
1532179929485912 1 4 -28 -3 -1 2 0 -1
1532179929545859 -2 -4 -2 0 -1 -1 2 0
1532179929597720 -2 -10 -1 -1 0 0 1 1
1532179929635671 -1 16 7 -1 -1 0 0 -1
1532179929665590 0 3 0 1 0 0 -2 0
1532179929710470 -2 -17 -7 1 2 1 0 1
1532179929786268 -1 13 3 -1 -3 -2 -1 0
1532179929830150 0 -11 3 1 -1 0 0 -1
1532179929845111 0 19 3 -2 -1 1 -1 -2
1532179929905567 -2 -14 1 1 2 1 0 0
1532179929942469 -1 0 -1 -2 -2 -1 0 -1
1532179929973421 0 -11 -6 0 1 1 -2 -1
1532179930025283 0 2 -1 -1 -2 -4 -1 1
1532179930102078 -2 -5 -2 0 -1 1 -2 0
1532179930144963 -4 -4 -2 -1 -1 1 0 -2
1532179930197821 0 -2 -1 1 0 -1 -1 -1
1532179930220760 -1 -7 -4 2 -1 -2 0 0
1532179930242702 -1 -5 -4 2 0 1 -3 0
1532179930257662 -5 0 0 -1 1 -1 0 0
1532179930272622 -1 -38 -11 -2 -1 0 2 -1
1532179930287582 -1 -2 -1 -1 -1 1 0 -2
1532179930310520 1 11 8 2 0 0 -1 -2
1532179930332462 -1 8 5 -1 0 -1 -2 0
1532179930347422 -2 -21 -12 -5 -3 -2 -1 -1
1532179930378339 -1 -37 -6 0 0 1 -2 -2
1532179930400280 0 3 0 -1 0 1 0 -1
1532179930423218 0 9 4 1 0 -1 -2 0
1532179930438179 2 13 1 -4 -3 -2 0 0
1532179930453138 -4 -10 0 0 -2 -1 0 -3
1532179930468099 0 25 7 0 -1 -1 -1 0
1532179930498019 -1 -4 0 1 -1 -1 0 -2
1532179930519961 -1 -2 -1 -2 0 1 -1 -2
1532179930542899 -1 -5 -7 1 1 0 -2 0
1532179930557859 -3 -63 -19 -3 -1 -2 2 -1
1532179930580822 2 5 6 0 0 -1 0 1
1532179930602763 2 -2 5 1 -2 1 0 1
1532179930617723 1 -7 -6 -2 -2 -2 0 1
1532179930670582 -1 -20 4 0 -1 -1 -2 0
1532179930685575 0 -20 -3 -2 0 -2 1 -1
1532179930707516 -3 16 3 -1 -1 -1 -1 0
1532179930737436 2 31 6 -1 -1 -1 0 1
1532179930760375 -4 -4 -6 0 1 0 -2 -3
1532179930783314 -1 -16 -6 -1 -2 -2 1 -1
1532179930805255 -2 -8 -5 -2 -1 0 -1 -2
1532179930828194 -2 2 4 -1 2 1 -2 -1
1532179930880086 -3 8 -10 -1 0 0 1 -1
1532179930895045 2 -5 -2 -1 0 -2 0 -1
1532179930924965 1 -16 -4 -1 0 1 0 0
1532179930962863 -1 1 1 -1 -2 0 -1 0
1532179930985803 0 14 -12 -2 -1 2 1 -3
1532179931007744 -1 36 15 -3 -2 -2 -1 -2
1532179931037663 -9 -29 21 -2 -3 1 0 -4
1532179931090538 -3 -44 -22 -3 -1 -1 1 -1
1532179931112480 2 21 -7 2 -1 1 0 1
1532179931127439 -11 -11 3 -1 -1 0 0 -2
1532179931143397 3 17 5 0 -2 0 -1 -2
1532179931188277 1 4 7 0 -2 -1 -4 -2
1532179931203237 2 4 0 -2 -3 -1 1 2
1532179931240138 -7 3 -1 2 -2 -1 0 -1
1532179931270058 0 -4 -5 -2 1 -1 -2 0
1532179931299978 -3 9 -8 -3 0 -3 -2 -1
1532179931322917 2 16 2 2 0 0 3 1
1532179931360816 0 9 2 1 0 -2 -1 1
1532179931382757 -1 -12 0 0 -3 -1 -1 -1
1532179931412677 1 32 9 1 0 -1 0 1
1532179931427638 -1 -1 -10 -4 -1 1 -2 -2
1532179931457557 -2 -14 -6 -2 -1 -3 -2 -1
1532179931487477 -2 19 1 2 2 0 1 -1
1532179931510415 0 16 5 -1 1 -1 0 0
1532179931533368 -4 -64 -7 -4 -2 -1 -1 -1
1532179931555296 1 -19 -6 -1 -1 0 0 -1
1532179931578234 -1 -20 -7 -1 -1 -4 -2 0
1532179931608154 1 22 4 0 -1 1 -1 1
1532179931623114 -1 -6 -5 0 -1 0 -1 0
1532179931638074 -3 1 -7 -1 0 -2 -2 -3
1532179931667994 2 4 4 0 -1 0 -1 0
1532179931697914 0 -40 9 0 0 -1 -2 0
1532179931727833 -2 -6 2 -1 -1 0 0 1
1532179931742794 -1 -19 -7 -2 -1 -1 -1 -1
1532179931765733 -1 -27 -17 -2 0 -1 0 -1
1532179931795652 1 38 14 1 -3 -2 -1 0
1532179931810613 3 17 -12 2 1 1 0 -1
1532179931832557 0 -5 18 1 0 -1 -1 -2
1532179931847514 -4 0 -6 -2 -1 -1 2 1
1532179931862474 0 -14 15 0 0 -5 -5 -1
1532179931877434 -2 -20 6 5 4 2 -6 -8
1532179931893391 4 55 -42 3 1 4 2 0
1532179931938271 1 14 4 1 -1 4 -1 -1
1532179931968192 -5 28 32 0 0 -22 -6 -36
1532179932005093 0 -20 -5 -5 1 6 -8 -25
1532179932043001 -1 -67 -5 -8 1 21 11 13
1532179932057951 -34 -18 6 -2 -12 -86 -4 -58
1532179932096847 4 4 -2 -2 2 11 -1 21
1532179932132773 14 -3 28 -34 -9 7 -1 15
1532179932147732 6 24 68 -1 -5 1 -5 10
1532179932200592 -1 -10 -26 -7 -2 -4 1 1
1532179932230535 -1 12 21 -4 -2 -2 -2 -1
1532179932260431 1 21 -6 3 -1 -2 0 1
1532179932275414 0 24 0 -4 0 -1 0 1
1532179932290351 0 11 9 -1 -1 0 1 -1
1532179932313290 0 -12 -1 -16 -5 -2 -2 -1
1532179932335231 1 -3 -12 5 -1 1 -2 0
1532179932388090 2 -18 -21 20 7 0 0 2
1532179932410031 3 -8 10 -2 -3 1 0 0
1532179932424991 -2 -8 0 1 0 0 -3 0
1532179932448927 -4 14 16 -7 -3 -3 0 -1
1532179932485828 -1 -16 -46 -6 -3 -1 -2 -2
1532179932500789 -5 -13 -3 -3 -3 0 -1 -2
1532179932522730 3 4 8 -8 -4 -2 -2 2
1532179932560628 0 -1 16 -2 -4 -1 -1 -2
1532179932582569 1 -5 15 4 -1 0 -1 -1
1532179932597530 0 12 -7 12 10 1 -1 -1
1532179932620468 -1 53 3 -2 -1 0 0 2
1532179932635428 -8 -49 -3 -7 -1 -3 -5 -3
1532179932665349 6 -24 -7 -13 5 -3 0 -1
1532179932688303 2 3 14 8 5 4 -1 0
1532179932718207 -2 29 2 -1 -5 -4 -1 -1
1532179932755108 4 -9 13 -13 -8 -3 -2 0
1532179932770068 -3 -21 10 -2 -1 0 0 -1
1532179932785028 0 15 9 -4 -9 -3 -1 -1
1532179932822927 0 -1 1 3 1 -12 -5 1
1532179932845866 -6 -10 -16 -7 -5 -3 -4 -3
1532179932875786 -1 10 1 -2 1 9 4 -1
1532179932891743 2 12 -1 4 1 7 4 -4
1532179932905706 -4 14 2 -1 -1 -4 -1 -2
1532179932935626 3 -8 -3 -1 -3 -1 1 2
1532179932957567 -2 13 7 4 -2 0 -2 1
1532179932980506 0 -3 -5 -2 -3 0 1 1
1532179932995465 11 -2 4 3 0 -1 2 5
1532179933018404 -7 16 4 1 0 1 0 -7
1532179933040345 3 -9 -4 -4 -1 -2 -1 1
1532179933070266 12 4 -4 -1 -2 -2 -2 1
1532179933100186 8 5 10 -4 -2 -2 -3 -1
1532179933145066 7 -20 7 4 0 1 -5 -3
1532179933174985 -6 -14 -19 -6 -2 -6 -9 -5
1532179933204906 11 2 12 3 0 -3 4 8
1532179933235823 4 15 -7 -13 -4 -4 -2 8
1532179933257764 7 -22 -13 -1 0 -1 1 3
1532179933272724 -2 -56 -4 -3 -2 0 3 8
1532179933302644 -7 -44 2 -5 -4 -4 -4 -4
1532179933317604 1 -24 -3 2 1 0 0 3
1532179933340543 31 23 3 1 3 2 -28 -4
1532179933355503 -31 6 3 2 -1 -4 -6 -10
1532179933377444 -8 -17 -33 0 -2 -11 -66 -21
1532179933400383 51 28 -11 -6 0 -2 31 50
1532179933415343 55 17 -17 -6 0 10 15 18
1532179933438281 35 6 7 2 0 -3 39 38
1532179933460223 8 -4 -3 -1 0 6 -1 -5
1532179933483161 55 61 43 15 2 -1 3 7
1532179933505102 10 2 -26 -6 -1 0 16 32
1532179933535022 41 16 5 -2 -6 -4 -15 42
1532179933564942 29 0 8 2 2 -1 -9 -6
1532179933587882 12 -37 -31 -10 -4 2 22 16
1532179933610820 3 26 12 2 0 -2 21 10
1532179933632761 -43 -1 -15 -6 -3 -1 7 -10
1532179933647721 26 19 16 2 -1 2 -20 3
1532179933692601 6 -44 -9 -2 0 0 0 0
1532179933715540 -4 -45 -21 -4 -3 -2 -2 -5
1532179933737481 9 6 2 0 2 0 0 4
1532179933752442 2 18 2 3 0 -1 -2 1
1532179933775380 0 -27 10 -3 -2 -1 1 -1
1532179933813279 0 -19 -10 6 3 0 -1 0
1532179933843199 4 -57 -2 6 3 2 0 2
1532179933865146 0 18 24 -6 -6 -1 1 -2
1532179933888079 0 2 -31 3 10 2 -2 2
1532179933910020 2 21 -16 -8 -9 -6 1 2
1532179933992798 -3 -1 -3 -4 -4 0 0 -1
1532179934007759 -1 -1 -10 4 2 -1 -1 -2
1532179934030697 0 4 12 2 0 0 1 -2
1532179934082558 3 1 -4 7 4 2 2 0
1532179934136415 -1 -29 -18 -8 -6 -14 -7 0
1532179934150377 3 24 16 -7 -2 12 7 0
1532179934188276 -3 -40 -15 18 8 7 7 0
1532179934203236 -7 -4 -11 0 -5 20 11 -1
1532179934225177 9 0 -10 7 -3 -9 -6 0
1532179934255097 -8 7 0 2 6 -12 -1 -2
1532179934278036 -4 2 0 -2 1 -7 -7 -3
1532179934307956 -1 -9 3 2 -4 0 1 -1
1532179934360814 -4 8 -2 -3 2 7 2 0
1532179934382756 0 30 -3 -7 -2 7 1 -1
1532179934435614 -6 -7 -6 -12 -1 -1 1 -2
1532179934450574 0 -11 2 -5 0 4 3 -1
1532179934495454 -4 -5 -7 6 -3 5 8 0
1532179934525375 -3 11 -5 -2 -1 5 2 -1
1532179934548313 -11 12 14 2 4 -7 -5 -1
1532179934563272 -3 8 -4 -3 -5 -4 3 -5
1532179934585214 1 13 7 -2 0 -2 -8 -4
1532179934623113 -3 12 6 6 0 -1 1 1
1532179934674974 -13 -17 4 -2 0 -4 1 0
1532179934697913 -4 0 -3 2 0 2 -3 -1
1532179934750772 1 2 4 0 0 5 -3 -4
1532179934787672 -2 -4 -3 3 2 -3 1 0
1532179934810611 -12 -2 2 -2 0 0 0 -3
1532179934840531 -4 2 -1 0 0 -2 0 1
1532179934864468 5 -5 0 -2 -1 -3 0 -1
1532179934915332 -11 4 2 2 -3 0 0 -1
1532179934938270 2 3 1 1 1 1 0 -3
1532179934975171 -11 -10 -5 -3 1 -1 -1 -4
1532179935005091 -2 4 7 -2 1 -1 0 -1
1532179935080890 -9 6 16 4 0 0 1 0
1532179935095849 3 22 8 4 3 0 -32 2
1532179935147710 8 1 -1 0 0 2 -7 -1
1532179935215529 -5 4 16 0 -1 -1 -4 2
1532179935252431 -3 3 -25 -1 -1 -3 39 1
1532179935305289 -31 -41 -26 -6 -3 -5 3 -21
1532179935365129 -22 -7 -11 1 -6 -12 -57 -5
1532179935432947 31 1 1 3 -1 -7 -19 6
1532179935522707 8 11 -20 2 3 13 0 3
1532179935537670 3 17 12 7 5 8 37 9
1532179935582548 1 0 2 -5 -2 -4 -10 0
1532179935614462 -6 16 31 2 -3 -5 -9 -5
1532179935635406 8 29 5 7 -3 -7 -44 -3
1532179935658345 0 10 -24 -3 -4 -5 -7 -2
1532179935703225 -3 14 21 7 7 10 0 4
1532179935725166 18 53 -6 -3 -2 -9 7 6
1532179935770046 -5 -17 -19 -13 -4 13 -17 -16
1532179935815928 -17 -23 26 -53 -16 -1 -5 -2
1532179935867784 -4 -8 20 -2 2 2 -5 1
1532179935950563 14 44 28 10 -3 -5 -10 6
1532179936010403 0 26 0 -6 -7 -14 -87 -49
1532179936048302 5 14 33 8 1 -7 -29 18
1532179936063262 5 14 48 -4 -7 -4 18 9
1532179936130083 -2 -7 -27 -10 0 5 2 0
1532179936167981 2 1 -23 11 0 1 2 3
1532179936197902 -2 10 -2 5 -1 -1 18 -4
1532179936317582 11 8 14 6 13 18 15 -42
1532179936355481 25 20 -18 -21 -8 -7 -35 8
1532179936408339 5 32 40 6 0 2 -10 11
1532179936430280 7 11 23 7 -1 5 14 8
1532179936475160 0 -27 8 6 -2 -7 -68 -3
1532179936520041 10 20 -13 -13 -10 -9 26 -15
1532179936542978 -2 -42 -31 5 9 13 40 23
1532179936617779 2 0 -9 -3 -4 -9 41 4
1532179936662659 7 16 -5 17 7 5 4 -1
1532179936692579 6 8 -3 14 3 1 -28 6
1532179936722499 3 -7 -7 8 -1 0 2 -2
1532179936737459 -15 -1 -11 -7 1 -3 0 -4
1532179936760398 -10 -11 -15 -5 1 2 -22 0
1532179936775363 -5 -9 12 9 3 3 -3 0
1532179936790318 9 20 -9 -7 1 2 1 3
1532179936813256 -5 6 0 -1 4 4 25 -3
1532179936843176 16 7 -2 1 -6 -7 1 11
1532179936880077 44 12 9 5 -1 5 -14 -15
1532179936895038 -8 -1 -2 1 -2 -4 -32 3
1532179936932936 -14 -9 28 27 10 3 -4 -9
1532179936947895 8 -11 -11 -4 2 8 6 -3
1532179936977817 3 10 -13 -11 -6 -3 -2 1
1532179937000755 0 -2 -3 -23 -2 -1 18 -3
1532179937022696 6 8 -1 -17 -3 1 -12 2
1532179937045635 -25 -18 -9 5 6 7 28 -1
1532179937067577 0 -3 24 7 -5 -7 -3 -4
1532179937082536 13 10 -17 -10 -7 -6 3 5
1532179937112456 -1 8 7 -4 0 -2 -4 -2
1532179937135395 6 3 -15 -1 3 3 2 2
1532179937158334 2 7 0 -16 -7 -2 4 -2
1532179937180275 3 -7 22 2 -1 -1 13 0
1532179937195234 -5 3 2 -8 0 -2 -1 -3
1532179937240126 0 -1 -7 -9 -1 1 3 3
1532179937284995 -2 -1 0 -3 -3 -1 4 -2
1532179937330871 -2 -4 5 3 0 -2 1 0
1532179937352814 3 12 -9 -4 -1 1 -3 1
1532179937382734 -3 -23 2 1 0 1 0 1
1532179937397694 1 9 1 0 1 0 0 0
1532179937427613 -2 -10 -3 -4 -2 -1 -2 -2
1532179937450552 0 -16 -5 2 2 0 1 -1
1532179937480487 2 21 -3 0 1 0 -2 0
1532179937503411 -6 -75 -14 -7 -3 -1 -1 0
1532179937563251 -4 -44 -1 -12 -3 -1 0 -2
1532179937593171 -3 8 3 -2 -1 0 0 -1
1532179937630072 2 26 10 -7 -1 2 1 0
1532179937653011 9 -15 -10 7 0 0 -1 1
1532179937674952 -4 -2 -17 -1 -1 0 -1 -2
1532179937697891 -3 15 -4 -3 0 5 -1 -3
1532179937735790 2 -20 -1 -1 -2 -4 0 0
1532179937750749 0 -1 -7 -10 -2 -2 0 -1
1532179937795629 3 -21 8 -8 -5 -3 2 2
1532179937840509 -1 6 -2 -10 -2 -2 0 2
1532179937877411 2 -10 -7 1 -1 -1 -1 1
1532179937900349 4 7 8 -1 -1 0 0 2
1532179937923288 9 -12 -7 -9 -6 1 0 1
1532179937945230 0 -6 -12 2 2 -1 0 1
1532179937990109 -25 -5 -1 -3 2 0 -1 -3
1532179938020029 2 -40 -18 9 0 -1 0 2
1532179938057928 1 -28 -41 -4 -2 2 1 7
1532179938080867 14 79 -16 -5 -4 6 10 39
1532179938110787 13 -30 -6 -7 -2 -6 7 37
1532179938140708 -14 -10 -18 -9 -14 16 14 -6
1532179938155667 15 15 27 6 6 -18 -17 24
1532179938185587 -4 -20 5 0 6 10 -2 -14

1532179938207528 -6 -77 -103 -28 -5 2 -6 2
1532179938230467 -7 6 23 -5 -5 -5 -4 -5
1532179938260387 -2 27 2 2 -1 -3 -4 5
1532179938298285 4 15 32 9 0 2 -1 -1
1532179938313245 2 12 12 -1 0 -1 5 12
1532179938382061 1 -3 -7 -9 -4 -2 -3 -1
1532179938403005 -3 -17 5 9 4 2 -1 -1
1532179938455863 8 -8 2 4 0 0 3 0
1532179938492781 12 14 -1 0 -1 1 1 4
1532179938515719 -7 11 3 -2 -2 -2 -2 -5
1532179938530680 -5 4 -4 -3 -1 -6 -1 0
1532179938552622 -3 -13 -5 -3 -2 0 1 0
1532179938575559 0 -3 1 0 0 2 0 -1
1532179938590520 1 18 17 -2 -3 -1 0 -2
1532179938620439 2 -6 -4 -2 0 -1 2 0
1532179938643378 1 0 -4 -4 -2 1 0 1
1532179938665321 -1 22 0 1 1 2 -4 -4
1532179938688258 0 -11 7 2 -1 -3 0 0
1532179938718178 1 -6 -5 3 0 0 1 1
1532179938741132 1 6 3 0 -3 -1 5 4
1532179938778018 -2 12 2 -4 -1 0 -1 -1
1532179938814919 0 -8 1 3 1 0 -1 -2
1532179938830888 -6 0 5 9 3 3 1 1
1532179938860808 -3 1 4 -2 -3 -1 -1 -1
1532179938875768 3 -9 -15 -10 -4 -1 -3 1
1532179938906725 0 -3 3 1 0 0 2 -1
1532179938920671 -15 28 4 -10 -4 -2 -1 -3
1532179938980511 0 -6 -1 -2 -2 -3 -3 -4
1532179939002452 -3 -13 -1 1 2 0 -5 -6
1532179939017412 14 22 -1 0 -2 -1 -3 -2
1532179939048329 -5 13 9 0 -1 1 1 0
1532179939070271 1 -7 -5 -1 -1 -2 -1 -3
1532179939108169 6 5 3 2 0 -2 0 2
1532179939130111 1 4 -6 3 4 1 2 1
1532179939174991 -5 23 15 0 -1 -8 -5 -2
1532179939189951 -5 -45 0 -4 1 0 -3 -2
1532179939220867 2 0 -17 1 -1 -1 1 -1
1532179939257769 -1 -6 0 -2 -3 -3 -2 -1
1532179939287689 -5 15 0 0 0 -1 0 -2
1532179939332569 -1 -9 -7 -1 2 2 -2 -2
1532179939370468 2 5 1 2 0 0 0 -2
1532179939385437 0 2 0 1 -1 0 0 -1
1532179939416344 -8 3 -7 -1 -2 -3 0 0
1532179939445268 -1 3 1 1 0 0 -1 -2
1532179939485227 3 -8 2 -1 -1 -1 -1 0
1532179939498192 3 -4 6 -3 -2 0 0 -1
1532179939520133 0 17 -36 -1 0 -5 1 0
1532179939572992 5 -16 -45 1 1 -4 -2 -3
1532179939602926 -4 -29 19 3 0 -14 -4 -4
1532179939617872 4 56 23 1 -3 0 1 -2
1532179939655771 -3 -6 8 1 -5 -5 -3 -25
1532179939715611 -4 7 0 3 1 -3 3 -7
1532179939737552 -8 3 20 -5 -2 -9 -5 -4
1532179939775450 -1 -9 -55 -4 2 1 4 -8
1532179939813349 1 -13 51 41 15 7 3 1
1532179939828309 1 12 43 -22 -6 -4 -3 -2
1532179939858230 -2 -12 -31 4 1 -1 -1 -1
1532179939880171 3 11 -33 4 1 0 2 2
1532179939910091 -7 23 13 18 7 1 1 -1
1532179939940011 0 -6 27 -4 3 0 0 -2
1532179939977909 -4 -9 1 -4 4 3 0 -1
1532179939992869 3 4 23 4 -3 0 0 1
1532179940015808 2 -5 -6 -4 -3 -1 -2 -2
1532179940045728 -4 -5 4 -9 -5 -1 -1 -2
1532179940060688 -1 1 -15 -13 -6 0 1 -3
1532179940090608 2 3 0 -9 -5 -2 -1 0
1532179940105568 2 8 8 -4 -3 -4 -3 -1
1532179940142469 -9 -27 -27 -2 0 -1 0 -1
1532179940165408 5 1 2 -2 2 -2 -1 1
1532179940188359 -5 -18 -1 0 2 -1 1 -2
1532179940203307 -4 -2 5 -5 -2 -1 1 -1
1532179940248191 -2 -3 -8 7 -1 2 -1 -2
1532179940270128 3 -33 -5 -5 0 1 -1 -1
1532179940322986 6 4 -6 -4 -1 -4 -2 1
1532179940337947 -2 11 15 0 0 -1 -2 0
1532179940375845 0 2 2 5 3 0 -1 0
1532179940420725 6 -12 -1 -4 -2 -1 1 0
1532179940451642 -3 -46 -20 -1 1 -2 1 -1
1532179940465605 3 7 5 -2 -3 0 -1 -2
1532179940502521 0 -5 -6 -2 -1 -1 -1 2
1532179940525445 -1 4 0 -4 -2 1 1 -1
1532179940555365 1 -22 0 1 -2 -2 -2 2
1532179940593264 0 10 -7 -11 -1 -2 -2 -1
1532179940615205 -2 21 -4 -1 -1 -2 -1 -3
1532179940638144 -1 -4 0 2 -3 0 0 -3
1532179940653104 3 13 4 -1 -3 -1 -2 -3
1532179940668064 -6 -6 9 -2 0 -2 -1 -2
1532179940697984 -1 27 14 8 0 -3 -2 -5
1532179940720929 3 16 7 0 -3 -1 -1 4
1532179940735882 -1 1 -3 2 -2 0 -3 -5
1532179940757824 -6 -2 -4 -5 -2 0 -2 -3
1532179940780788 -3 20 -4 0 0 1 -3 -8
1532179940795748 -7 -5 -12 -3 -1 -1 0 -1
1532179940825668 4 5 2 5 1 3 5 19
1532179940847610 38 5 -2 -1 -1 -1 2 11
1532179940877547 -6 1 0 0 -2 3 3 -7
1532179940900468 -14 12 -6 -6 -2 -1 2 3
1532179940915428 30 -7 -1 1 2 -1 2 21
1532179940930388 18 51 12 1 2 2 2 3
1532179940945348 14 58 2 -1 0 1 -2 -2
1532179940968286 -4 -30 -11 -2 -2 -2 -1 -2
1532179940998207 16 -20 1 5 0 2 5 13
1532179941028127 -13 -16 -3 -3 -2 0 -2 -5
1532179941065028 36 -10 2 1 1 1 0 13
1532179941088999 2 -8 5 0 2 -1 -8 0
1532179941102953 -6 7 -5 -3 0 1 5 -9
1532179941117913 54 10 5 -1 -1 -1 -31 17
1532179941155811 -27 -15 -7 -3 -3 0 7 17
1532179941177753 -52 -39 -40 -10 -3 -3 4 5
1532179941200691 37 3 1 3 3 0 13 0
1532179941230611 9 14 8 4 0 -12 -23 4
1532179941245572 17 -22 -6 0 3 25 4 -4
1532179941282473 -51 4 5 1 0 -6 -8 2
1532179941305411 -22 -5 -9 -5 -2 -9 -7 -15
1532179941335331 56 21 0 0 -1 -8 -7 -1
1532179941365251 -46 -39 -1 -3 -2 -2 6 -20
1532179941388190 -10 -9 -7 -4 -3 -4 12 10
1532179941425091 1 9 1 -1 -2 -2 3 -5
1532179941448030 -8 12 14 2 1 -2 2 -1
1532179941477950 20 10 11 3 0 -2 -2 5
1532179941499891 -10 23 -6 -2 0 0 -2 1
1532179941537790 -4 12 0 1 0 0 0 -4
1532179941560728 -4 -4 2 2 -1 -3 0 -3
1532179941599625 -4 8 -5 1 1 -8 -4 3
1532179941620569 -6 -24 -1 -2 -2 1 5 2
1532179941650488 7 19 18 6 2 4 1 2
1532179941672430 -2 -46 -27 -9 -2 -4 -3 -3
1532179941763187 2 -22 33 7 0 0 0 -1
1532179941800088 4 40 12 4 -3 -4 0 -2
1532179941830009 -1 2 15 7 2 3 -2 -1
1532179941868904 -23 -10 9 -1 1 -1 -1 -3
1532179941882867 14 5 4 5 3 1 -3 3
1532179941912787 -5 25 5 -12 -8 -1 0 -3
1532179941995566 2 -7 -10 -16 -8 -4 -3 -3
1532179942025499 2 25 4 -8 -3 -7 -5 1
1532179942040446 -2 -9 -7 -2 2 -3 -1 -2
1532179942100285 -2 17 -2 -10 -3 20 13 2
1532179942160126 -2 -4 -6 14 5 -6 -1 1
1532179942175085 0 19 9 9 3 5 3 -1
1532179942198025 2 -4 -1 11 -1 -3 -3 -1
1532179942235939 -2 -25 1 -14 -5 -5 -3 -2
1532179942295763 -2 -9 -7 9 0 1 1 0
1532179942347624 3 7 -3 -2 1 0 -1 0
1532179942362584 -6 -2 3 0 1 0 -3 -1
1532179942407464 7 11 7 -5 0 -3 -3 0
1532179942445363 0 -25 -2 0 1 -4 0 -1
1532179942460323 1 12 -6 9 1 -2 0 0
1532179942498221 4 0 -3 -4 -1 -2 1 1
1532179942537118 13 -7 -1 0 -2 -4 -3 -1
1532179942573022 -5 -5 -5 1 2 1 -1 0
1532179942632861 -6 -13 6 -1 -1 8 1 0
1532179942662782 9 20 5 -3 -2 -6 -3 -4
1532179942745560 12 -22 1 1 1 -3 1 1
1532179942775480 -17 20 2 2 1 2 6 -7
1532179942805401 -10 10 0 3 3 1 1 3
1532179942835320 11 2 -7 2 -2 0 0 2
1532179942865240 -14 16 -4 6 1 1 0 1
1532179942880200 8 -15 -2 -7 -2 2 0 9
1532179942955000 7 -30 -2 -1 -2 -4 -3 0
1532179943022818 -10 1 -2 0 0 -2 -1 -1
1532179943082660 -10 -12 -1 2 -1 1 0 -1
1532179943135517 4 -19 4 -1 0 1 -2 0
1532179943172419 -12 21 4 0 0 0 1 -3
1532179943225278 2 4 -9 -1 -1 -2 -2 0
1532179943255198 0 -24 -6 -3 -1 0 1 -1
1532179943352936 0 0 3 8 0 -1 -3 -1
1532179943382855 6 -3 -6 -10 -4 -3 -1 -1
1532179943472616 14 -9 -24 -6 -2 -2 -7 -7
1532179943495555 -14 7 -11 -3 1 0 -3 -10
1532179943608253 53 3 -1 2 3 2 6 22
1532179943668093 -34 4 -6 -2 0 -2 0 -11
1532179943712973 -23 -4 -2 -1 -3 -4 -21 -14
1532179943744888 -28 3 -3 -6 -4 -2 -7 -8
1532179943787774 11 -7 -6 -1 0 1 11 -1
1532179943825672 -4 3 -8 -6 -2 2 3 0
1532179943856589 10 8 -1 -1 -1 -3 -23 -4
1532179943885512 14 -1 -3 12 4 5 -6 10
1532179943915432 -8 -23 7 6 3 -7 11 -4
1532179943938371 -8 -12 -20 -13 -4 2 40 -1
1532179943975272 -4 -7 10 2 -7 -23 -5 3
1532179943998211 1 14 17 -3 -5 -15 -11 0
1532179944020152 9 -9 -32 3 -2 -2 80 -1
1532179944035112 0 5 -2 -5 -4 -6 44 8
1532179944058051 -3 -23 2 -10 1 6 -17 1
1532179944079992 -6 -61 -38 -7 4 2 14 3
1532179944094952 1 13 -2 3 2 9 -49 -1
1532179944109912 -10 -15 4 0 -2 -5 1 6
1532179944132851 11 29 13 4 1 0 8 7
1532179944147810 1 -11 13 1 -2 -6 -46 -3
1532179944170749 0 5 3 -15 -1 -3 1 -2
1532179944185709 18 24 -9 11 2 2 13 6
1532179944207651 -8 4 -3 17 2 2 13 0
1532179944237570 6 1 -37 -4 0 -3 -15 1
1532179944260510 1 -35 -45 22 9 5 18 5
1532179944290428 14 -5 22 -17 -5 -4 2 4
1532179944320349 5 47 60 4 6 8 -13 -2
1532179944358248 -5 -13 1 1 0 2 104 -6
1532179944395148 -15 -12 -5 1 -1 -3 -4 10
1532179944425069 -18 -24 -5 -6 -4 -5 -11 -4
1532179944448016 28 34 -3 16 5 4 4 7
1532179944469949 11 -6 -13 38 13 8 44 12
1532179944485948 -9 -21 14 11 4 3 32 -3
1532179944507848 -10 -25 -26 -1 0 -1 -16 -4
1532179944530786 -9 2 11 27 3 0 -7 0
1532179944545746 -2 12 32 16 4 2 -1 -1
1532179944575666 6 -2 -33 -30 -5 -1 -5 -2
1532179944607582 -10 -59 -49 6 7 1 -9 -2
1532179944627528 22 57 61 8 -11 -8 -23 7
1532179944642488 -8 20 7 8 3 2 -7 2
1532179944657448 -1 24 -6 9 10 7 17 9
1532179944695346 1 1 22 8 2 2 -42 -4
1532179944710307 -4 -17 5 3 0 2 34 -1
1532179944733244 -2 21 2 5 2 1 32 9
1532179944755186 -4 7 -3 21 9 8 38 1
1532179944778125 4 8 5 -3 2 5 1 2
1532179944808045 -18 -22 -4 -7 -1 -4 -16 -6
1532179944823005 1 1 -18 -6 -2 -1 -19 -7
1532179944852925 -4 -16 -1 33 5 1 8 8
1532179944882845 -2 -26 -80 0 3 -1 -51 -5
1532179944920744 -8 -25 22 -4 -6 -3 -6 -5
1532179944935703 1 -38 -15 1 4 1 -17 16
1532179944950664 16 50 26 2 -5 0 31 5
1532179944972605 4 0 9 1 0 -3 16 -25
1532179944995544 -21 -23 1 -4 0 7 -40 15
1532179945017485 16 17 -15 -10 -3 1 -9 -6
1532179945048402 -2 9 -6 0 3 1 3 -3
1532179945063362 2 -14 27 7 3 1 21 1
1532179945085304 4 -2 -15 -6 4 1 -4 9
1532179945108242 -19 -38 -53 1 4 -3 -8 -7
1532179945138162 -16 -30 -16 -12 -1 -1 -21 -2
1532179945160104 -1 -8 15 -4 -1 1 12 -1
1532179945190024 3 -20 4 6 4 7 18 30
1532179945227922 11 -2 -5 -7 -7 -7 -86 33
1532179945242882 4 21 18 5 1 1 -23 -7
1532179945265821 10 28 17 9 3 1 56 -50
1532179945295740 -1 -1 -9 0 0 -1 -30 -12
1532179945325660 -4 -14 -5 10 0 -1 -15 -4
1532179945377523 6 7 2 -8 -4 -4 -8 -6
1532179945422402 -4 12 22 0 2 1 1 -1
1532179945453320 14 18 28 13 -1 -3 -41 -1
1532179945468279 -2 -22 23 14 3 7 10 3
1532179945490221 -5 10 -2 -2 0 -5 44 2
1532179945513160 -9 7 10 -5 -2 -2 19 -11
1532179945528119 -6 2 -5 -3 -3 0 -1 5
1532179945550060 7 23 2 3 2 -3 41 7
1532179945572999 -2 1 -7 -21 -3 -7 -7 -7
1532179945594941 1 4 -5 -10 -1 0 9 -10
1532179945617879 13 -21 -43 -27 -8 -6 -76 -4
1532179945640818 -19 -29 8 -3 5 9 0 -2
1532179945677719 -15 -16 16 -5 -5 -4 -19 -6
1532179945700658 8 12 -6 11 0 4 36 8
1532179945722599 14 29 18 5 1 -4 -20 0
1532179945737559 14 21 4 2 1 1 -9 0
1532179945760498 8 -7 -7 4 -2 -3 41 0
1532179945782440 -11 -21 -7 -5 0 0 -21 -6
1532179945798396 4 3 -6 -10 -3 -2 3 3
1532179945843276 -17 23 18 2 -3 -2 -4 -7
1532179945866215 1 -40 -2 3 0 0 0 0
1532179945910098 -1 30 5 2 1 1 -4 0
1532179945940018 -11 54 0 0 0 0 -3 -3
1532179945977917 5 10 10 1 -5 -7 0 2
1532179946000855 2 -63 -12 0 0 2 0 -2
1532179946030775 2 89 27 1 2 5 1 0
1532179946060695 5 41 21 8 2 0 1 -1
1532179946082636 -2 -25 -12 -4 1 0 -2 -3
1532179946112561 -4 14 -9 -4 -3 -10 -4 -2
1532179946165415 11 19 8 3 -2 1 2 1
1532179946188354 -9 -9 -9 3 2 -3 1 -2
1532179946218274 -1 -8 -6 -5 -2 5 -1 -4
1532179946240215 -19 14 17 2 -1 -2 -1 0
1532179946270135 -4 -28 -19 -5 0 2 -1 -3
1532179946322994 8 4 -29 -2 2 -6 -1 -1
1532179946344935 -8 -8 0 -2 1 1 0 0
1532179946375853 -3 -29 -6 -14 0 -1 0 2
1532179946405773 -7 40 -10 -2 -1 -2 -3 -1
1532179946427714 4 15 17 3 0 1 -3 -2
1532179946457634 -1 4 26 -2 -2 -2 1 0
1532179946480572 -1 37 5 2 0 1 -4 -3
1532179946510493 2 -28 -13 3 1 -2 1 11
1532179946525459 4 -11 -8 1 0 3 -10 59
1532179946540412 29 5 -16 -1 0 -5 -10 2
1532179946570333 -9 5 10 -1 3 -10 0 -24
1532179946623191 -5 -16 -6 0 2 -8 -3 2
1532179946653111 -4 12 11 4 2 -2 -1 -13

1532179946683031 -4 -4 -11 2 0 3 -2 -7
1532179946712950 -3 -13 -5 -18 -4 0 -2 -5
1532179946735913 -8 -13 -16 -11 -1 1 -1 -4
1532179946750849 3 -17 -31 7 -2 -4 0 4
1532179946795729 -2 -14 -21 -7 -3 -1 0 0
1532179946817670 4 -7 -2 -1 1 2 8 8
1532179946856567 -5 -13 -11 -2 -2 -4 -1 0
1532179946892471 -4 0 -6 2 0 0 0 0
1532179946907431 2 15 1 -1 0 0 1 0
1532179946952587 2 -4 2 -3 -2 -4 -1 1
1532179946997466 -4 -35 -6 0 2 1 0 -3
1532179947035365 -1 -6 -5 -3 -2 0 -1 2
1532179947080245 -2 7 -1 -1 -1 -1 -1 3
1532179947097199 -1 10 -1 -1 -1 1 1 1
1532179947118143 -2 -17 -12 1 0 0 2 1
1532179947133104 0 0 7 -1 1 -3 -1 -1
1532179947185562 0 -6 -1 -2 -1 0 0 0
1532179947230442 2 8 2 -5 0 -4 -2 0
1532179947253396 2 10 -8 -8 -3 -1 2 1
1532179947268340 0 -7 -2 0 -3 1 -1 0
1532179947290282 0 14 2 -3 -1 -2 2 2
1532179947320202 2 5 8 2 1 1 1 1
1532179947373073 -4 0 1 -1 1 -3 -1 -3
1532179947388021 -2 10 5 -1 -3 -3 -2 0
1532179947417941 4 -9 -6 0 1 2 3 0
1532179947439882 0 9 0 0 -1 0 0 2
1532179947470800 0 2 -1 0 0 -1 -2 1
1532179947500719 -1 4 2 -1 0 -1 0 2
1532179947515679 2 3 2 1 0 1 -2 0
1532179947545599 -1 8 5 1 -1 -3 1 1
1532179947582500 4 1 -1 -1 -1 -1 -2 0
1532179947605439 -1 6 4 0 -2 0 1 1
1532179947620400 -2 13 1 -1 -2 1 1 1
1532179947651317 1 -7 -9 -1 -1 -2 -1 0
1532179947673258 -3 -3 -2 0 -1 1 -1 -2
1532179947688217 -6 28 8 1 1 0 0 -2
1532179947703191 -2 -11 -1 0 1 0 1 -1
1532179947740079 -2 2 -2 -1 0 0 -1 0
1532179947777978 -5 -14 -6 -4 -2 -3 -2 -1
1532179947815877 0 3 6 -3 -2 -2 -2 0
1532179947852806 -2 -22 -16 -1 -1 -1 0 -3
1532179947882725 -10 13 -1 0 -1 0 -2 -1
1532179947927606 0 0 0 -2 -2 -1 0 -1
1532179947957525 -2 -12 -4 3 2 1 -1 -2
1532179947972486 -1 -11 -5 -2 0 1 0 0
1532179947987445 -1 4 1 0 0 -1 -1 -1
1532179948025344 1 12 3 -2 -2 0 -1 -3
1532179948072222 0 -3 -3 -1 -1 -1 2 1
1532179948100150 2 -17 -6 -2 -1 0 0 1
1532179948130069 2 13 0 -1 0 0 -1 1
1532179948159990 1 11 1 -1 -1 0 -1 2
1532179948182923 1 -4 -1 1 -1 -1 0 -1
1532179948205862 -2 -4 -9 -2 0 -1 0 -1
1532179948235987 0 24 -2 0 -1 -2 0 -1
1532179948264912 1 -16 2 0 -1 -1 -1 1
1532179948310789 -3 10 1 -1 -2 -3 -1 0
1532179948325614 1 -2 9 0 -2 0 2 1
1532179948355534 3 21 3 -2 -1 0 2 1
1532179948377476 -1 2 -9 6 1 1 -3 0
1532179948423357 1 -1 4 9 2 1 -1 1
1532179948445294 -4 8 -17 -6 -3 -2 1 0
1532179948475214 -3 -25 -8 3 -2 -1 2 -1
1532179948498153 -2 -44 -28 -1 1 -2 0 -1
1532179948535055 -1 -1 7 -1 2 -1 0 -1
1532179948550015 0 -6 2 -1 -2 32 3 1
1532179948587914 1 -7 -5 -2 -1 -4 10 16
1532179948610852 0 -31 -5 -2 -2 -8 -3 -2
1532179948655745 -1 2 1 0 1 -3 -1 0
1532179948692638 -3 0 1 3 2 -2 3 0
1532179948730538 -3 18 16 0 -2 -7 -2 -1
1532179948745498 -2 5 -16 -1 0 3 -1 -1
1532179948790391 3 4 3 0 1 5 -1 0
1532179948813329 -1 6 -9 -3 -2 -4 0 -2
1532179948843249 1 9 6 -1 -1 -7 1 0
