1532256958297618 -1 -26 0 10 3 2 0 0
1532256958400343 0 5 0 1 5 0 1 0
1532256958469160 -3 -12 -7 -2 -3 -3 -2 -2
1532256958534984 -1 2 1 0 1 1 0 1
1532256958580861 -3 -49 -6 0 2 0 0 -1
1532256958617775 -3 -11 2 -5 -2 -1 0 0
1532256958663640 0 -6 -3 12 7 1 1 -1
1532256958700541 -2 -4 -14 -3 -5 -3 -3 -1
1532256958722482 4 6 7 6 5 5 3 2
1532256958745421 3 18 11 -12 5 0 0 1
1532256958790301 2 -3 -1 9 7 3 0 0
1532256958851138 -1 0 -2 0 -4 -2 0 0
1532256958857122 -1 16 13 -5 -3 0 -1 -1
1532256958910978 -7 -43 5 -6 0 2 0 0
1532256958916962 9 -12 -20 2 2 -1 1 0
1532256958940898 4 8 11 5 0 1 -2 -1
1532256958970818 -8 13 -1 2 0 -4 -3 -3
1532256959067568 8 42 -11 1 -1 2 -2 -3
1532256959082520 -4 -22 17 -1 -3 4 21 -1
1532256959128397 -18 20 -27 -2 5 1 -3 1
1532256959180257 0 34 40 3 5 -1 -4 -1
1532256959202200 -8 1 -41 0 -2 4 -6 -7
1532256959301933 -2 -49 45 2 2 8 10 -7
1532256959332857 -24 -20 1 -14 -25 -90 -19 17
1532256959405662 26 -23 -60 -24 -9 -4 4 71
1532256959427604 5 36 127 13 -2 -6 -25 -45
1532256959510383 -3 8 81 16 10 6 5 -16
1532256959579197 -3 11 22 10 2 16 4 -1
1532256959625079 0 -1 31 3 -1 2 2 -4
1532256959647017 0 -36 -12 21 12 6 1 -3
1532256959668958 4 -10 17 6 -3 -1 -1 1
1532256959706857 -1 -24 -6 -5 0 1 -2 -1
1532256959741764 -3 7 18 5 -1 -2 3 3
1532256959795619 -17 -7 -3 -6 -7 -1 15 14
1532256959818570 -14 -7 -7 -10 0 -1 9 -1
1532256959879395 -12 2 -7 3 1 -3 0 -14
1532256959901337 -18 -37 -25 6 19 4 -15 -16
1532256959922281 20 -78 17 13 2 -2 9 -31
1532256959969156 6 53 20 4 5 25 72 3
1532256960027999 -15 39 -13 0 9 -17 -26 16
1532256960057918 16 11 9 0 -2 4 5 -4
1532256960124774 -31 -39 -36 -8 -9 -42 -32 -37
1532256960155691 -21 -44 -11 -4 -6 -23 -16 3
1532256960192592 12 -43 -11 8 1 -6 -26 47
1532256960230492 31 97 2 8 6 22 30 59
1532256960290331 -69 -43 -8 -7 -5 0 -2 -34
1532256960335222 -16 -32 10 -31 -9 10 14 33
1532256960364134 -65 -8 -8 -2 4 -3 12 5
1532256960410023 14 -10 -10 3 -2 -21 -23 -18
1532256960483826 -4 33 0 -3 -3 -7 0 -13
1532256960590541 -2 44 10 3 -1 -2 0 0
1532256960657362 -4 -27 -2 1 -1 1 1 -2
1532256960733159 -8 123 -15 -4 -4 -4 -4 -3
1532256960755101 -8 -101 -4 -1 2 0 -2 -7
1532256960784023 -5 -8 2 -1 -1 0 -23 -2
1532256960807959 5 24 7 2 1 -1 4 1
1532256960830898 -7 10 -18 2 1 1 3 -2
1532256960843863 0 6 4 2 1 -1 3 0
1532256960867826 -4 15 14 -4 -5 -1 5 -2
1532256960903703 -7 -8 -62 -2 1 -3 5 -4
1532256960972519 7 -23 6 -4 -1 1 0 -6
1532256961010417 -3 -42 -79 3 2 12 -5 12
1532256961154034 -12 -9 -71 -11 -2 -10 -1 -12
1532256961310616 -12 -40 -62 6 -4 0 -18 -7
1532256961513090 -4 24 5 6 1 -18 -59 -31
1532256961654711 5 29 35 -1 1 -5 36 6
1532256961814285 5 -21 -55 6 3 -6 6 0
1532256962022727 1 -15 5 -4 0 -1 -41 -4
1532256962134447 12 19 2 3 1 9 21 -24
1532256962413682 7 -3 -52 13 11 6 10 -1
1532256962563282 -4 2 11 0 -2 -4 23 0
1532256962794663 -5 20 1 -1 -2 -2 -1 -1
1532256962914343 0 -32 -10 -5 -1 -6 -3 -3
1532256962976178 -13 -4 6 0 -1 -6 -12 -4
1532256963012082 28 58 3 2 1 -27 -12 4
1532256963035020 10 -5 -1 -2 -6 0 -10 8
1532256963073916 -4 -28 -7 -4 -5 1 3 8
1532256963117800 -6 5 26 9 7 -5 -9 9
1532256963154709 -17 -75 -2 21 3 1 3 -33
1532256963239482 28 43 6 -4 -6 -11 -4 -25
1532256963254442 -24 10 -4 41 5 -2 -4 1
1532256963299322 77 -69 1 -11 -7 -13 8 20
1532256963320265 -104 -43 -11 -6 -4 -10 -12 -33
1532256963372126 -128 9 -15 -10 -9 -14 -9 -26
1532256963410060 45 30 24 0 -3 -8 18 87
1532256963418038 -35 -32 0 -3 -1 -2 -29 -60
1532256963448956 -24 60 3 -5 0 1 -33 -56
1532256963500817 32 13 24 38 1 -14 -3 -9
1532256963518791 26 32 -15 -15 -2 12 -33 -17
1532256963575618 34 88 -10 -20 -8 -4 27 57
1532256963620497 -39 -83 5 9 11 37 127 17
1532256963643436 84 -18 47 25 17 40 33 -37
1532256963672358 -108 -10 -2 -5 -12 -73 -59 -106
1532256963757132 127 46 23 2 2 -10 1 44
1532256963813980 17 -57 38 10 10 23 51 10
1532256963860855 13 30 8 13 14 12 -1 -10
1532256964040374 60 52 -31 -28 -22 -5 -14 -21
1532256964160055 7 -10 4 -4 -1 -2 -6 7
1532256964227873 -14 100 9 1 4 1 -8 -66
1532256964265776 0 -112 21 -1 2 1 0 9
1532256964296690 -2 14 8 2 0 1 3 7
1532256964400411 5 -128 -41 -6 0 -1 2 2
1532256964414374 -2 -117 35 -10 1 -2 -1 0
1532256964474214 0 -30 -33 5 1 0 2 1
1532256964520092 9 73 4 0 -3 2 -2 -2
1532256964557990 0 1 37 1 -2 -4 1 0
1532256964677670 0 20 3 1 -1 -3 0 0
1532256964684652 1 12 -23 -2 -2 -1 0 -1
1532256964713574 3 -13 -20 0 1 -2 0 2
1532256964736513 -6 4 -15 18 -1 -1 0 -2
1532256964820289 4 6 3 -5 -5 -1 -1 0
1532256964903067 -13 -22 -8 -2 0 -1 -1 -5
1532256964976870 -1 31 49 8 7 -7 9 87
1532256965043691 -3 14 4 2 5 7 -1 -24

1532256965066630 4 -29 -62 -5 -1 -7 2 -11
1532256965084582 0 13 41 4 4 -1 -4 -3
1532256965128473 -5 15 49 -5 -3 -2 1 -8
1532256965150405 -3 5 -22 -16 -5 2 0 -3
1532256965180325 -16 17 -6 13 1 11 3 -2
1532256965216236 0 3 -14 4 -3 -1 2 -1
1532256965263111 -1 -9 -5 2 1 -2 -1 -6
1532256965336914 5 6 0 -1 1 0 1 2
1532256965404732 2 -5 -6 2 4 1 0 -3
1532256965481527 -1 -9 1 -1 -1 -1 0 0
1532256965488508 0 -7 0 -1 -1 1 0 -1
1532256965540369 1 -14 -5 -2 0 0 -1 1
1532256965623148 1 -3 -1 -2 1 1 1 -2
1532256965654073 -3 7 5 -3 -3 -1 0 0
1532256965661047 -2 1 0 -1 -3 -2 1 0
1532256965735333 -5 1 -12 0 1 -1 0 -2
1532256965765252 7 37 -29 -11 -2 -3 -2 0
1532256965803151 -4 4 -16 3 0 0 0 0
1532256965862991 -17 29 7 -1 -16 -48 -17 -62
1532256965959733 11 18 8 -2 2 28 10 22
1532256966006607 0 -15 -1 -3 -11 -66 0 -10
1532256966042511 -2 -6 46 -11 -7 7 1 0
1532256966125289 -1 13 0 12 6 9 -1 -5
1532256966244970 0 -9 0 3 1 1 0 -1
1532256966327749 -5 -1 -5 -1 1 0 0 -1
1532256966365647 0 8 -5 0 -2 0 4 7
1532256966439450 0 -3 -4 2 2 3 0 0
1532256966499290 -3 -2 8 12 1 0 -1 0
1532256966530207 -2 -4 7 -25 -2 -3 0 0
1532256966665844 -6 -28 -52 -7 -5 -3 0 -1
1532256966749619 -1 13 30 -1 -4 -6 0 -1
1532256966785524 1 11 -63 9 1 1 0 0
1532256966808463 -1 -1 18 -9 -2 -3 -2 0
1532256966830404 6 11 -103 -11 -2 2 -6 -7
1532256966853343 -8 -5 94 8 -2 -2 1 17
1532256966882265 -12 -3 92 9 1 1 -1 -4
1532256966929140 -6 -24 -3 3 0 -1 0 1
1532256966950084 -5 20 -107 -17 -4 -2 0 -16
1532256966965044 38 -31 -101 -17 -3 -1 1 7
1532256967001946 -21 13 127 22 7 2 6 -9
1532256967026878 -11 21 -1 15 2 -6 -1 -1
1532256967038847 13 -10 57 5 1 -3 4 8
1532256967070762 2 36 94 10 -11 -15 -14 -6
1532256967108660 3 -21 -97 -2 4 -9 5 6
1532256967137583 -16 0 101 5 -8 -107 -12 6
1532256967160521 3 -49 -94 -40 -12 17 4 44
1532256967176479 -10 44 -19 10 1 9 -2 -20
1532256967205401 16 -9 98 15 -3 3 -15 -1
1532256967259258 25 -6 37 5 13 4 12 -6
1532256967282196 -18 25 -83 -6 1 -45 28 34
1532256967318101 5 20 -31 -8 3 30 6 -17
1532256967358991 8 -39 41 2 7 -7 3 20
1532256967370958 -11 22 23 -30 -12 39 -13 3
1532256967408857 2 8 48 1 -1 -25 1 47
1532256967431796 -2 4 0 7 5 4 1 4
1532256967469695 1 23 80 18 10 5 3 -1
1532256967490638 -2 -19 3 17 3 3 -3 -3
1532256967542500 6 48 -33 1 2 2 5 1
1532256967559455 0 -8 2 0 -2 -4 -4 0
1532256967580399 3 -9 -8 -28 -6 -2 -2 6
1532256967601343 -9 -19 -15 11 1 0 -1 -2
1532256967610330 -17 22 4 0 -2 1 -2 -3
1532256967648217 4 7 6 8 2 1 -1 2
1532256967661182 -2 0 3 1 -2 2 0 0
1532256967693106 16 -37 -8 3 0 -1 1 11
1532256967729998 12 -5 -9 0 1 0 22 -10
1532256967790836 20 27 6 1 0 -3 -36 7
1532256967804798 -7 46 9 2 5 10 30 8
1532256967827737 3 27 35 14 1 -8 0 12
1532256967849678 -26 -27 -24 -7 -3 -9 -30 -12
1532256967857657 5 0 10 1 -6 7 -34 -58
1532256967902537 8 -25 -5 -7 -4 -6 -11 -8
1532256967924478 7 91 31 -4 -5 2 14 45
1532256967933454 -6 68 -24 0 1 8 21 -2
1532256967993295 34 -32 -17 -3 -1 -20 -29 -26
1532256968038174 -39 -70 -19 5 9 9 16 -4
1532256968044158 -2 -16 1 -9 -10 -15 2 -40
1532256968068107 39 -8 11 0 5 8 11 -11
1532256968090035 -80 -30 -1 -1 -3 26 29 -8
1532256968103999 -65 -10 -12 -3 -3 -24 -21 -45
1532256968112975 11 -27 -8 -7 -1 6 0 9
1532256968136910 93 -1 33 4 2 13 23 96
1532256968163838 49 51 25 2 4 7 3 2
1532256968195753 -37 -18 2 5 4 -3 -13 -31
1532256968217694 9 19 11 2 3 -11 20 -18
1532256968247614 -14 32 -19 -19 -10 1 7 1
1532256968292495 -30 -22 -43 -26 -11 -8 -11 -40
1532256968329396 51 58 28 18 9 15 37 57
1532256968389236 -116 -10 -17 -16 -7 -1 -12 11
1532256968450073 -60 12 27 6 7 3 12 8
1532256968472014 -29 -25 -4 12 2 -5 69 -12
1532256968487972 -42 -30 2 15 -1 -13 -49 -94
1532256968517892 -46 11 7 5 2 5 -19 5
1532256968546814 -3 21 2 4 3 -1 -11 -16
1532256968569753 9 79 41 10 4 15 13 -3
1532256968615630 -92 -91 -21 4 -9 -20 -48 -49
1532256968667491 -7 11 -9 5 5 -2 -1 23
1532256968713369 20 19 0 0 0 -7 0 11
1532256968728329 3 36 -1 1 0 -1 8 12
1532256968775204 13 5 4 0 -2 -1 -2 8
1532256968797145 16 -39 4 0 -1 3 2 0
1532256968832052 -13 -11 9 2 0 -1 -1 1
1532256968849008 -4 -3 2 0 -1 -1 -2 -1
1532256968869950 6 -23 -4 -2 1 0 -1 0
1532256968891892 1 -16 5 1 -1 1 -2 1
1532256968906852 1 -15 0 -2 -1 0 -2 2
1532256968929790 -3 -30 -8 1 -1 0 0 0
1532256968960708 -1 -3 -10 -3 -2 1 -1 1
1532256968966691 3 -4 30 2 1 -2 -1 -1
1532256969011571 1 -40 -18 -3 -2 -1 0 3
1532256969057449 -3 5 -9 0 0 0 -1 -1
1532256969109315 0 -6 -7 -1 1 1 0 -1
1532256969140234 -1 -12 -71 -3 0 1 3 2
1532256969192112 1 0 7 2 0 0 -2 0
1532256969251935 1 4 5 0 -1 0 -1 1
1532256969289834 -1 2 2 -1 -1 0 -2 -3
1532256969311775 -3 12 3 1 4 4 0 -1
1532256969326735 3 -3 -1 -8 -5 -5 -2 1
1532256969349674 -7 -6 -7 -3 0 2 1 -3
1532256969395551 5 0 1 -1 -1 2 0 4
1532256969432453 -2 2 -3 2 1 3 1 -5
1532256969446415 -12 -12 -19 -5 -5 -4 3 -9
1532256969492293 2 0 8 11 4 4 3 11
1532256969530191 1 -11 3 -4 3 1 -3 5
1532256969575070 -3 -5 6 0 0 10 1 -10
1532256969695748 2 11 23 -6 -1 -1 -10 0
1532256969732649 0 10 59 1 -7 -2 53 1
1532256969891226 0 -1 10 2 -1 -4 19 4
1532256969905189 -14 -14 -18 -8 -6 -4 -55 -13
1532256969960055 4 6 45 1 -3 -1 12 -8
1532256970031850 3 27 6 -2 -3 1 -38 2
1532256970129588 -7 -3 -29 10 8 19 36 12
1532256970235321 9 0 -15 9 1 0 9 -1
1532256970332062 -10 -8 -8 6 1 3 -3 -7
1532256970356995 -11 -3 5 -6 -6 8 47 4
1532256970377940 -9 -6 -25 -3 -3 -12 63 15
1532256970406862 2 -21 6 2 0 -4 4 -4
1532256970436782 0 -14 -22 7 3 -33 -68 0
1532256970520558 9 -8 38 19 -3 -8 -39 1
1532256970737977 5 -8 -7 -8 -5 -1 41 2
1532256970835716 -10 40 68 6 -2 -25 -6 2
1532256970895555 -5 -20 -23 0 7 63 33 -7
1532256970931459 2 11 -3 -5 -5 -26 -73 -13
1532256971051139 -21 -33 -17 -12 -5 -9 -3 1
1532256971098014 0 5 9 -1 1 -3 -27 -1
1532256971241630 -2 1 19 -1 -4 2 -2 -1
1532256971308452 7 17 15 3 4 -1 -3 3
1532256971554793 1 -8 10 0 1 3 4 1
1532256971615630 3 -21 7 -23 -7 -12 -14 -2
1532256971727331 13 -12 -12 0 1 8 14 -10
1532256971827064 -54 -94 -93 -20 -15 -12 -10 46
1532256971853992 -84 15 -35 -26 -25 -23 -34 -48
1532256971922829 6 70 -7 -1 -5 -25 -39 27
1532256971973680 -46 -45 4 8 -4 -11 17 17
1532256972065434 14 -28 3 4 10 23 15 43
1532256972149210 5 -11 0 4 1 -22 -33 52
1532256972184117 88 15 27 -38 -13 2 -41 60
1532256972223013 16 24 -4 8 0 -21 71 24
1532256972273877 -18 37 -10 -62 -32 -20 7 18
1532256972282853 60 -3 -8 9 1 30 7 -9
1532256972410512 -10 -6 6 -9 -8 7 17 -4
1532256972463370 -63 -20 10 23 8 12 -14 -59
1532256972619952 -34 -21 -11 4 2 5 -6 1
1532256972776533 -12 73 50 -12 -4 3 0 -7
1532256972966026 4 42 30 3 1 -4 -2 2
1532256973016890 1 -15 -8 -4 0 0 -1 -1
1532256973076730 9 27 -4 -6 0 2 1 4
1532256973167495 -2 1 49 4 0 1 -2 -1
1532256973286170 5 -3 -15 -6 -2 -1 1 -1
1532256973317100 1 -3 -11 -1 -1 1 1 -2
1532256973407845 7 -66 -36 -7 -11 -24 -12 -88
1532256973452726 -11 31 31 -4 -5 25 0 -7
1532256973459706 5 8 95 17 11 -5 6 30
1532256973514559 6 -22 -81 30 7 -8 4 14

1532256973558449 -2 -21 -45 8 5 4 0 2
1532256973579386 -4 5 25 4 -5 -8 8 13
1532256973625263 -1 5 15 11 5 2 -2 -2
1532256973699066 3 4 0 0 1 -2 -2 -4
1532256973753919 -5 9 -8 -8 -5 -2 0 -3
1532256973790821 0 -5 -10 -4 -1 3 0 2
1532256973879583 -2 -9 -2 0 1 -3 -1 2
1532256973993295 -7 4 -3 -1 -1 -2 -1 0
1532256974045153 1 22 21 -3 -1 0 -1 0
1532256974090033 2 -10 3 -2 -2 -3 0 2
1532256974116967 -7 -3 0 -2 2 5 -3 -3
1532256974141895 -2 -21 -7 -5 0 -1 1 2
1532256974171814 -5 -38 0 -13 -6 -3 -4 -1
1532256974194753 5 21 -42 -7 -7 -4 -1 0
1532256974217692 -3 2 69 4 -1 -1 0 0
1532256974254593 1 -4 6 3 2 1 5 8
1532256974299473 -5 14 11 1 -1 2 -2 -4
1532256974315430 -4 7 -12 -7 -2 -3 3 4
1532256974351335 -2 -10 -17 2 1 -3 -3 -4
1532256974374273 1 8 27 -8 -6 -2 -3 -3
1532256974411174 -2 0 3 -3 -2 -1 1 -1
1532256974435112 3 -13 -1 1 -1 1 -1 2
1532256974457052 -1 -3 -2 3 2 1 0 -1
1532256974487984 -9 27 -12 -6 -4 -1 -1 -3
1532256974523873 -5 2 -1 0 0 0 3 2
1532256974562768 4 -3 19 -4 -1 -2 0 -1
1532256974576732 6 -18 -12 2 1 -1 0 2
1532256974600667 1 -1 -5 1 0 1 0 -2
1532256974628593 -1 2 -6 -11 -2 0 0 -1
1532256974647543 2 8 10 2 2 0 -2 2
1532256974668486 -5 -20 -46 -4 0 -1 0 1
1532256974711371 -10 -15 -27 2 2 -26 1 -10
1532256974741292 11 -2 -13 0 -9 -9 -12 1
1532256974780188 0 17 -27 -6 -7 -21 5 6
1532256974826065 6 26 21 4 -4 -56 7 21
1532256974863964 9 -47 -117 23 21 4 13 -6
1532256974907846 6 -33 7 18 14 5 4 2
1532256974945753 -1 -5 40 2 3 4 2 2
1532256975012566 5 -3 18 -3 0 6 0 1
1532256975049467 -1 5 0 0 -1 -7 -1 2
1532256975111302 -3 4 11 -2 -3 1 -1 1
1532256975170145 1 -10 -9 -1 0 0 1 2
1532256975185105 -2 -3 0 -2 -2 2 -1 -1
1532256975266886 -2 -7 0 -1 -1 -1 0 0
1532256975289825 0 -5 2 -2 0 2 1 1
1532256975335702 2 7 10 -3 -6 -3 -2 -2
1532256975373601 0 2 3 1 0 -3 0 1
1532256975387563 1 -3 -9 1 3 2 1 2
1532256975409505 -2 -14 -6 -1 -1 -1 -2 -4
1532256975441419 0 0 -5 -3 -1 0 0 -2
1532256975477323 -1 10 6 21 3 3 -1 -2
1532256975529185 5 7 11 -2 -4 -10 29 5
1532256975590022 -3 -2 40 -3 -2 1 -3 -1
1532256975626923 3 18 9 19 7 4 -1 0
1532256975666816 0 8 9 -4 -1 0 -2 -2
1532256975697734 5 8 43 8 6 0 0 1
1532256975702720 -3 -19 -42 -7 -7 -1 -1 -2
1532256975755579 -5 -4 -73 -1 3 -2 0 1
1532256975777521 -1 -14 43 -7 -6 1 -1 -2
1532256975792481 -5 -12 15 -3 2 -2 -1 -1
1532256975807440 -2 9 -31 -3 -2 -4 0 -3
1532256975829382 4 -16 -4 2 2 -2 -2 1
1532256975844342 -1 -27 -10 -3 -2 -4 -3 13
1532256975867280 -40 19 19 2 -1 0 2 -3
1532256975890219 2 -10 -5 3 1 -1 -2 -8
1532256975922133 6 -18 30 5 0 -1 0 -2
1532256975974993 22 35 8 0 -3 0 -3 1
1532256976010896 1 27 44 0 -1 1 3 5
1532256976055776 -8 8 16 0 -2 -9 4 24
1532256976122598 -5 -21 -49 -4 -3 15 0 -8
1532256976201386 -2 42 6 -4 5 16 -2 25
1532256976266225 25 8 6 7 11 31 -3 46
1532256976335031 -15 -36 -17 -8 -6 -82 5 0
1532256976399856 2 -15 81 18 10 4 12 27
1532256976429776 12 7 19 4 5 14 29 77
1532256976460694 -6 -17 21 1 0 26 -1 -2
1532256976511558 0 3 -38 -4 -5 -1 17 -19
1532256976557435 -2 -10 22 -6 4 0 -5 -23
1532256976590349 -6 6 -34 -2 3 19 11 -9
1532256976609296 2 15 7 -1 -2 3 1 0
1532256976633232 -3 6 4 -1 -2 1 -3 -4
1532256976678112 2 -19 5 18 4 -1 2 2
1532256976693073 -2 11 9 19 0 0 -1 0
1532256976707034 4 6 2 0 2 2 2 -2
1532256976752912 -17 15 -14 -10 -3 -4 -4 -3
1532256976766874 -3 -16 -21 -9 -1 1 2 0
1532256976789813 6 -8 -4 -4 1 2 -11 4
1532256976820730 5 -18 16 -3 -6 -4 2 -9
1532256976827712 9 3 7 9 2 -4 -10 9
1532256976856635 -3 -20 -35 -8 -1 -4 12 -6
1532256976894533 -1 -87 21 -3 -2 -2 -19 0
1532256976940411 -17 -21 -19 -8 -2 32 -14 -18
1532256976962352 2 -9 -10 -1 -1 4 12 28
1532256976993269 -27 42 24 9 1 4 -4 0
1532256977015210 16 36 37 -1 3 28 21 34
1532256977053110 12 54 0 0 0 -6 -15 -40
1532256977075051 -46 -25 -12 -6 -8 -12 -19 -55
1532256977121926 7 -9 -25 -11 -2 -10 -8 -7
1532256977141872 -3 9 10 -40 -15 -8 -4 -38
1532256977209691 -34 28 -32 -15 -9 -16 0 15
1532256977271525 43 67 -13 -23 -12 -13 -7 45
1532256977359291 25 12 0 24 3 7 22 15
1532256977377243 14 -6 13 31 4 -1 7 -13
1532256977414144 -13 -18 -23 -10 -7 -9 -37 -8
1532256977444064 49 36 8 -45 -9 0 5 -15
1532256977472986 -44 -47 -16 -9 -5 -14 -21 -33
1532256977532839 -24 9 -1 -11 -2 -5 -12 16
1532256977555766 -6 -10 -12 -3 -1 2 -8 -10
1532256977568732 17 -10 0 1 -1 2 -10 -22
1532256977606629 29 -13 5 2 -4 -4 -7 -5
1532256977638544 -8 -5 -4 -4 -3 -1 0 11
1532256977655499 1 -12 3 -1 -2 8 6 3
1532256977659488 6 26 4 3 -2 -1 1 5
1532256977690416 24 10 -2 -5 1 8 2 11
1532256977713344 -12 28 -1 -2 -4 0 1 8
1532256977735285 -19 -9 1 1 -3 -9 6 -3
1532256977749247 -10 -111 0 -2 -4 -2 -12 4
1532256977773184 2 93 -4 2 4 2 1 4
1532256977809088 -5 -18 3 3 1 -1 2 -6
1532256977832027 -13 -36 -1 -2 -2 -3 -5 4
1532256977878901 -3 8 1 -2 3 4 0 -1
1532256977922784 6 -6 -1 -3 -4 -2 -3 8
1532256977952704 -5 -8 6 2 2 0 6 -1
1532256977975647 10 19 1 -3 1 1 3 4
1532256977988608 2 15 10 2 -3 -3 -16 4
1532256978035495 -4 -2 -14 4 3 6 3 -10
1532256978058421 -2 -13 3 0 2 1 -9 0
1532256978079365 0 28 26 -1 0 2 1 -1
1532256978109285 -1 -2 10 0 3 4 -4 -4
1532256978155163 -3 -2 -32 -1 -3 -7 11 4
1532256978169125 -7 -34 -72 2 4 3 -16 0
1532256978215003 0 1 25 2 1 14 7 10
1532256978251904 6 29 -2 1 0 -3 19 -1
1532256978297781 5 32 73 4 0 8 -7 -7
1532256978335680 -10 -34 -53 -5 1 -2 -18 -11
1532256978357621 -2 11 36 -4 -3 -2 39 3
1532256978455360 -7 -36 -32 -9 -5 -5 -23 -12
1532256978491264 2 1 29 -4 -1 -3 -37 -5
1532256978597978 10 -12 -123 -4 -2 8 36 5
1532256978611942 10 -17 -16 9 4 3 -47 -12
1532256978687739 3 11 -2 -1 1 1 9 17
1532256978785477 2 -9 -28 -1 5 -23 -10 -2
1532256978838338 -6 1 27 -20 -5 -5 1 4
1532256978911141 10 -15 -33 7 4 0 -3 3
1532256979279157 8 13 -5 -23 -5 5 13 -3
1532256979460671 14 13 10 2 0 2 -6 -1
1532256979497573 -7 -21 -7 2 2 -5 -42 -30
1532256979542453 5 -17 -10 -4 -3 -1 -1 9
1532256979640190 3 -12 0 -3 0 -6 1 9
1532256979737930 4 10 8 2 1 0 -2 3
1532256980000229 -10 -8 0 0 -2 -2 -3 -1
1532256980098965 13 12 2 15 6 4 1 5
1532256980156810 8 -4 -10 4 3 0 -12 -11
1532256980202688 -12 -28 9 0 -3 -1 7 -14
1532256980240586 35 44 -4 -2 -3 -3 5 -7
1532256980262527 14 24 8 6 1 -1 -6 -9
1532256980285475 6 -11 -3 -8 -4 17 29 5
1532256980361263 26 -61 -5 1 -3 -11 -7 -21
1532256980406143 9 5 4 10 1 -8 -7 16
1532256980436064 -15 21 -14 5 -5 -5 -1 -19
1532256980459002 52 30 -9 -19 0 10 -10 3
1532256980493908 0 -34 -7 5 2 3 8 -17
1532256980546767 -26 -34 8 -7 1 13 12 1
1532256980562724 -24 -22 -1 2 -7 -15 -17 -13
1532256980622564 2 -13 -6 23 8 -2 28 7
1532256980645503 -16 10 -1 -13 -4 -5 5 -34
1532256980690383 27 53 5 -10 -2 28 8 -1
1532256980756207 35 -18 -9 2 2 32 -8 73
1532256980862933 13 31 8 6 8 -9 -18 -12
1532256980945700 0 2 1 11 8 19 -7 -4
1532256980990580 8 -86 -15 -17 -1 -2 32 24
1532256981027482 -4 -4 6 5 -6 -5 -27 0
1532256981042442 16 -29 -12 -2 -1 -3 9 -13
1532256981125220 -13 22 14 -17 0 15 17 19
1532256981146164 -14 -36 -4 1 1 16 19 55
1532256981388516 -1 -49 -39 1 1 -4 -2 -3
1532256981439380 1 -37 -2 -3 -3 0 0 2
1532256981499220 10 -11 9 4 2 7 5 6
1532256981525151 9 -32 10 0 -2 -5 -3 -7
1532256981582996 -8 2 -9 -5 -2 -2 -4 -8
1532256981604937 -4 28 9 2 -1 1 -1 -15
1532256981618900 -4 22 -2 -1 0 0 2 -12
1532256981724618 -2 7 28 1 0 -2 0 -3
1532256981755535 1 -14 -25 -7 -1 0 -2 -2
1532256981837322 0 -35 -27 -7 -2 -1 -2 1
1532256982001876 4 -20 18 -5 -36 -111 -38 -10
1532256982024821 -11 -4 -36 -5 5 24 -7 -13
1532256982070692 2 1 46 6 3 3 8 15
1532256982092633 -8 -20 -78 9 3 -1 -3 1

1532256982152473 4 14 3 5 8 11 1 3
1532256982181396 1 16 13 8 3 -14 -6 -2
1532256982369892 0 1 0 5 1 4 1 1
1532256982422751 -1 -9 -3 -1 -2 -3 -1 -3
1532256982550417 -1 2 -49 -3 -1 -1 -1 -1
1532256982587318 -9 -20 -16 -3 1 0 -1 0
1532256982609260 9 44 -21 7 3 1 2 3
1532256982663123 3 29 28 -1 -3 -15 -8 25
1532256982706998 -4 -15 -118 -12 -3 0 0 -7
1532256982721958 14 2 122 11 0 -2 0 -3
1532256982827675 0 -6 -41 -2 -1 -4 -2 -1
1532256982841638 -2 11 -4 1 -1 2 2 -1
1532256982887515 -5 -13 12 0 15 27 10 9
1532256982910457 -2 31 14 5 16 0 13 -12
1532256982985254 6 5 0 -12 -1 24 2 10
1532256983015174 -3 -15 -60 -1 -5 9 -7 -21
1532256983030165 -4 -7 -45 -12 -6 -14 -2 -5
1532256983052106 0 -19 -71 -25 -4 -8 -6 -12
1532256983090005 3 7 -101 -9 1 -2 0 -3
1532256983142863 3 7 31 2 -1 -1 -1 -1
1532256983164804 -1 0 23 2 -3 2 1 3
1532256983187743 -3 10 9 -1 -4 1 0 1
1532256983224645 -1 27 19 -1 -3 -1 -1 0
1532256983247583 2 19 14 21 7 1 1 2
1532256983270522 2 -31 5 -2 2 4 0 4
1532256983307423 -4 8 7 0 -1 -2 1 -5
1532256983330361 6 25 19 -3 -3 1 0 9
1532256983353301 1 -32 -23 -5 1 -1 -2 -1
1532256983367263 -3 -1 -4 2 3 1 -1 0
1532256983405162 4 21 6 -2 -1 1 1 -1
1532256983427102 -2 2 -4 -1 -1 -3 2 4
1532256983450042 0 -7 -3 -3 -2 -1 -2 1
1532256983464004 -3 -9 0 -1 -2 -2 -1 2
1532256983486943 -1 -24 -2 -1 -2 0 0 -2
1532256983510879 1 -2 -2 1 0 -1 0 -3
1532256983523845 2 5 -2 -1 -2 -2 -1 2
1532256983546782 -3 -7 -1 0 1 1 -1 1
1532256983570719 0 1 4 6 2 -1 -1 1
1532256983607620 6 8 -1 1 -3 -1 1 0
1532256983630559 -3 -7 0 6 3 3 -1 0
1532256983644522 2 12 3 -3 -3 -1 0 0
1532256983690398 -1 13 5 -11 -9 -5 -1 -1
1532256983712340 2 -16 -53 -3 1 0 -1 -1
1532256983766196 1 40 16 -22 -6 0 -2 -1
1532256983788137 2 2 -41 10 -4 -2 -2 1
1532256983869919 -3 -35 31 0 -1 -2 -1 1
1532256983906820 2 -6 -26 -2 0 1 1 0
1532256983930756 0 12 -39 -1 1 -1 0 0
1532256983989599 -3 16 76 8 1 -1 0 -3
1532256984042458 -6 29 29 4 2 2 1 0
1532256984059413 -8 9 12 -2 3 1 -1 -6
1532256984080357 12 38 -6 -5 -1 -1 0 -1
1532256984125236 -5 36 -17 32 7 1 0 1
1532256984149172 -11 -40 10 -13 -9 -2 1 2
1532256984178095 -57 24 -51 -8 0 0 -1 -12
1532256984199039 -68 -9 37 1 -7 -6 -3 -13
1532256984244929 12 -16 36 1 0 12 -10 -39
1532256984336671 17 19 20 5 -13 -30 4 38
1532256984341658 4 -10 -71 -32 -18 -15 -10 14
1532256984403492 -11 9 -62 2 -2 -1 -20 -55
1532256984432415 -3 -10 -14 -1 -7 -25 5 33
1532256984523178 6 -43 -111 -9 1 1 21 -15
1532256984532163 4 -14 -50 -12 -5 -15 -2 14
1532256984599967 -4 -7 57 2 -3 -2 -1 6
1532256984620911 6 28 -15 6 4 -1 -2 -6
1532256984671775 -3 13 0 18 9 2 -2 -5
1532256984740591 -13 -16 -16 -3 -2 0 -1 -2
1532256984801428 -8 15 0 -26 -9 -4 -4 -3
1532256984825364 -5 4 17 -10 -2 1 10 4
1532256984844313 11 -18 -14 4 1 -1 -3 1
1532256984868249 -10 -4 -13 -9 0 1 -1 -16
1532256984899167 -1 -24 -6 -1 -4 -7 -18 -1
1532256984935071 -10 38 41 0 -4 -5 -2 -17
1532256984949033 7 1 -16 2 4 -5 -31 -2
1532256984958009 -8 10 -1 -1 -6 -9 -26 1
1532256984995908 -32 33 13 3 -5 -6 -5 -7
1532256985017849 -28 -24 -38 -13 -2 19 12 17
1532256985041801 -83 3 -7 -11 -6 -2 -6 -12
1532256985064724 24 57 4 0 -3 -14 -22 3
1532256985146505 -111 -84 -20 3 1 7 13 -4
1532256985159470 -57 -65 19 2 4 2 6 -28
1532256985235268 -13 -29 -3 -7 -9 3 -18 6
1532256985257209 -36 -42 -10 -8 -1 -8 33 46
1532256985295108 -5 -10 -4 4 -4 -16 -6 6
1532256985309071 -2 34 -11 -2 2 -14 16 5
1532256985363923 38 91 4 -14 -5 -20 -18 17
1532256985377886 -24 -11 32 7 -1 7 9 12
1532256985421769 -5 5 -4 -2 -9 -10 -6 2
1532256985431743 -2 -4 -12 -1 1 11 24 47
1532256985460665 -8 18 2 -1 3 13 23 -15
1532256985489605 -16 -38 -5 -2 2 -5 -13 -17
1532256985535468 6 -21 -3 4 1 -6 -8 -13
1532256985597300 -10 -1 -3 1 -1 -1 -1 -8
1532256985692046 -1 7 -34 -6 -3 -1 -2 -3
1532256985714985 -3 43 15 2 1 4 0 0
1532256985766846 -6 -24 -6 -2 -1 1 -1 0
1532256985797764 1 -18 4 1 -2 -3 0 0
1532256985820702 0 -14 -2 -2 -1 -2 0 -2
1532256985857604 -3 -14 0 -3 -1 -2 -1 -2
1532256985918441 -3 -10 2 4 1 1 1 0
1532256985940382 0 -3 -5 -1 -2 -3 0 2
1532256985991247 4 -1 -54 1 0 -10 4 2
1532256986097961 7 -3 15 2 2 4 22 12
1532256986171764 -6 4 -27 3 1 4 16 11
1532256986377214 0 4 -6 -2 -3 3 25 -4
1532256986600617 2 1 -2 6 2 5 5 -2
1532256986651483 -26 -37 -48 0 0 5 -16 20
1532256986698355 8 -10 -24 1 2 3 14 -1
1532256986871891 1 0 -20 -6 -1 -1 -36 -5
1532256987155133 1 -26 -25 -1 -1 -2 -23 -9
1532256987387513 9 -5 -2 -2 -1 -1 10 -2
1532256987454334 1 -19 4 8 4 0 1 1
1532256987723614 -1 -4 -19 -4 0 0 1 -6
1532256987785451 -11 -2 7 -2 -3 -1 -4 0
1532256987943026 -3 -24 -15 -2 0 3 14 29
1532256987987907 82 10 5 -7 2 2 -4 0
1532256988076670 -11 48 -4 -7 -3 3 2 -7
1532256988152467 -8 41 -2 -5 1 -13 -5 -9
1532256988170419 -16 21 9 20 4 -8 -2 -26
1532256988196350 -18 -26 17 4 3 -13 -13 -10
1532256988265166 -28 22 5 5 5 10 4 10
1532256988363902 -13 -3 0 0 1 7 -27 7
1532256988438702 105 48 10 -17 6 -23 45 51
1532256988445683 49 -29 -7 37 17 -25 23 2
1532256988519486 4 8 21 -5 -5 36 -14 11
1532256988602264 -72 -48 -22 -28 -4 63 16 -48
1532256988670083 5 33 6 -3 7 16 1 8
1532256988758846 -11 -93 -77 -8 -2 -10 -3 5
1532256988939363 0 111 -71 -4 -2 0 0 -3
1532256988962301 1 -23 18 -1 0 1 0 2
1532256989045080 3 9 23 7 1 -3 1 4
1532256989118883 -3 44 16 5 0 0 2 0
1532256989224600 6 15 -67 7 5 2 0 0
1532256989299400 3 21 17 7 4 -1 0 2
1532256989322339 2 -49 -51 -10 -1 -2 -2 -2
1532256989353256 0 -22 -39 -2 -3 0 1 -8
1532256989382178 1 20 24 3 7 57 4 -18
1532256989405118 -14 -27 -5 1 -6 -7 -3 -28
1532256989464957 1 1 56 24 7 -21 4 16
1532256989480915 2 49 -23 27 10 -14 3 16
1532256989526792 -6 -48 -35 -6 -7 -5 2 6

1532256989547736 -3 15 -13 -5 -3 -8 -3 0
1532256989561699 2 -11 -34 -23 -8 -4 -1 8
1532256989592616 -4 -4 25 -15 -6 -10 -4 -1
1532256989624531 4 15 -21 -4 -2 5 3 3
1532256989668413 2 -4 -14 -11 -3 -1 5 10
1532256989682376 -6 4 -14 1 0 -3 -4 -8
1532256989728253 -5 14 11 -2 0 0 0 7
1532256989742216 -4 6 1 -2 -2 -3 -2 -5
1532256989780115 6 -13 -3 -2 -1 -3 1 -1
1532256989789091 -1 1 2 3 3 -1 -2 -5
1532256989831981 0 -4 0 4 2 1 0 1
1532256989850925 -6 -3 1 -11 -3 -2 -1 1
1532256989863891 5 10 -8 7 -2 -1 2 2
1532256989884843 -1 -62 -84 -9 -8 -3 -2 -5
1532256989909768 1 27 119 14 6 1 -4 -5
1532256989921736 4 65 49 7 3 1 0 13
1532256989944674 2 -12 -50 -6 -3 -38 -9 8
1532256989966616 -3 -46 -42 -4 3 30 2 21
1532256989983588 -11 66 8 -3 14 8 8 21
1532256990006525 -17 -4 -16 -3 -11 33 -15 -58
1532256990027469 1 21 55 2 0 24 -29 -21
1532256990064371 3 -13 23 -5 -9 -14 -3 -4
1532256990088306 0 15 -27 5 -4 -4 4 5
1532256990101275 -1 -37 67 65 11 -20 6 10
1532256990148146 -1 12 32 -8 -2 -6 3 -3
1532256990161111 1 18 -31 -4 -4 -7 1 -4
1532256990185047 0 -7 -31 -8 1 12 1 -9
1532256990207986 -3 -16 -35 -9 0 -15 2 -1
1532256990221949 4 5 -29 -3 -3 -4 -5 2
1532256990267826 -3 -9 -14 -3 1 -2 0 9
1532256990290765 3 10 4 -4 0 0 -2 3
1532256990364568 0 -3 -15 -1 0 -1 0 -4
1532256990394488 1 -7 -4 2 4 1 0 12
1532256990416428 1 14 3 -2 -3 -3 -2 -3
1532256990463304 -3 16 -2 -2 -3 -1 -4 -5
1532256990476269 3 0 -2 0 -2 0 -3 -12
1532256990500204 0 -3 -3 -1 0 1 0 -9
1532256990521148 -6 5 0 -2 -3 -4 -7 -4
1532256990536109 4 4 2 0 0 1 1 2
1532256990561042 -1 13 0 -2 -1 -3 -1 -1
1532256990574008 1 -3 3 4 3 1 0 5
1532256990596946 1 4 -3 -3 -3 0 1 0
1532256990618887 0 -5 -1 -2 -2 0 0 2
1532256990636844 -2 -18 -1 0 0 -2 -3 2
1532256990656786 1 2 -2 0 -2 -3 -1 -1
1532256990680722 0 -1 -1 0 4 2 0 1
1532256990696679 -3 11 1 2 0 0 0 -1
1532256990717624 -2 8 0 -1 -4 -1 -1 -2
1532256990738567 -5 -8 0 0 -1 -1 0 -1
1532256990762503 2 7 -2 -3 -2 1 -1 -2
1532256990799405 -5 -23 -5 -4 -3 -4 -2 -1
1532256990836306 4 17 1 -2 -1 2 -1 -1
1532256990896145 -8 -41 50 -17 -6 -1 -1 -3
1532256990919084 2 34 -10 4 -3 -2 -1 -1
1532256990956983 4 -7 -72 1 -3 0 1 2
1532256990978925 -1 0 77 20 -4 -3 -2 0
1532256991016823 1 1 -8 5 2 1 -1 -1
1532256991062701 -1 -9 17 -3 0 1 0 1
1532256991076663 -4 -23 -10 -11 -2 -1 -4 -4
1532256991136503 0 4 -37 0 3 0 1 0
1532256991184376 9 -15 -62 -5 -1 0 -1 0
1532256991189362 1 -5 40 -1 -2 -2 -1 3
1532256991236237 -1 2 -3 1 2 -1 -2 13
1532256991279122 15 15 6 -2 -2 -2 -1 0
1532256991318018 8 15 4 1 -3 -5 -3 3
1532256991362898 -13 -26 -18 -17 -1 0 2 0
1532256991369880 -2 -4 -32 -3 2 4 -5 -34
1532256991415756 17 30 4 0 4 39 15 7
1532256991443682 -9 2 -29 4 5 7 1 -17
1532256991490556 1 -49 47 2 -4 2 -10 -55
1532256991512498 -13 -38 39 10 13 24 5 27
1532256991542418 -3 9 -51 -17 -22 -8 -17 -9
1532256991572338 -7 32 -34 -15 1 -13 -1 -71
1532256991586301 3 -15 107 12 7 -3 1 20
1532256991618230 -2 24 16 10 5 -9 -3 -2
1532256991633175 -3 9 -52 -2 1 -9 -1 -9
1532256991655116 6 -14 32 8 6 -5 1 12
1532256991678055 1 -22 -65 -10 -1 -3 2 15
1532256991700993 0 2 -69 3 1 -1 -2 -22
1532256991798734 -7 8 -4 -8 -6 -3 -2 -5
1532256991835634 -7 5 10 8 4 1 1 -1
1532256991895473 4 21 37 18 3 2 -8 5
1532256991933372 -19 -19 -10 -4 -1 -3 2 -4
1532256991946338 3 15 -6 -15 0 2 -8 -17
1532256991955314 14 -27 -24 8 4 4 9 3
1532256991972273 18 33 25 0 -5 -4 -10 -4
1532256992023133 -7 3 -34 -8 1 -3 -6 0
1532256992053052 6 -54 4 5 2 3 -22 58
1532256992112893 -31 -94 -12 4 7 6 6 29
1532256992135847 6 -44 22 2 -2 -5 -5 1
1532256992186695 4 24 9 -2 -2 -3 -4 2
1532256992209633 4 16 -7 -1 0 -4 -13 20
1532256992232573 43 19 -11 -4 -1 6 9 -14
1532256992246535 -58 -8 -9 0 7 29 24 -2
1532256992292412 -44 -38 -18 -6 -4 -8 8 -35
1532256992306375 -1 -50 -3 -2 5 0 9 10
1532256992329314 -12 20 15 4 -1 5 -8 1
1532256992366214 -3 44 2 -7 3 8 43 41
1532256992390151 -49 -1 -7 0 -3 -29 -66 -53
1532256992414087 3 -21 6 -5 -4 10 15 -9
1532256992456972 33 -32 -4 -1 1 -11 -4 -4
1532256992502850 5 -17 3 8 3 -4 18 9
1532256992531772 19 10 5 3 0 6 -4 12
1532256992570671 1 0 8 2 -3 -7 -1 25
1532256992638487 2 30 -1 4 4 3 2 3
1532256992669404 -7 11 22 2 1 -1 -1 -10
1532256992698327 14 -13 -35 -9 -3 -5 -12 6
1532256992743207 -2 11 2 0 0 1 -6 -1
1532256992773127 2 -8 -6 1 3 -6 7 5
1532256992818008 -5 -11 -3 0 2 -3 -14 0
1532256992832967 6 -24 -67 -9 -1 1 2 -4
1532256992868871 2 3 3 1 0 14 37 6
1532256992928711 -2 -5 49 1 0 -1 10 12
1532256992952647 1 2 17 0 0 -10 -25 0
1532256992988551 2 -2 -62 10 3 -3 -6 -11
1532256993035426 -1 -7 31 5 4 1 -21 -13
1532256993073324 2 16 29 2 0 3 -3 -4
1532256993109228 -2 1 10 0 -1 1 36 -6
1532256993162087 17 0 -74 1 -2 3 25 5
1532256993214945 -2 4 -63 -1 -3 1 28 -1
1532256993258828 3 18 8 0 -4 -6 -11 -2
1532256993314679 12 2 -20 8 -3 -2 0 -2
1532256993341607 -8 11 16 -8 -5 -7 11 0
1532256993432364 -3 -7 -14 1 2 6 22 17
1532256993455303 -9 7 54 -4 -2 -6 15 -7
1532256993485225 -5 1 -25 4 -1 -7 18 0
1532256993491207 -1 -2 10 -5 -7 -2 -42 -5
1532256993515142 -6 -20 -12 0 3 5 27 2
1532256993551055 7 22 -12 -2 -2 1 -1 -2
1532256993582961 4 5 -15 8 6 0 -19 -4
1532256993664742 -4 -20 -76 -12 -3 0 -39 -5
1532256993717601 -10 -20 8 -12 -3 -1 3 -1
1532256993845259 -1 -34 -38 -6 1 -6 -7 -1
1532256993898119 7 -15 -32 -1 1 3 6 -11
1532256993911084 -4 6 33 -3 -4 -4 -19 11
1532256993942998 -9 16 3 -5 1 1 82 10
1532256993956961 3 21 37 2 0 0 -27 -2
1532256993980897 14 14 28 1 2 2 -20 2
1532256994025777 -12 14 16 -4 -5 -1 -5 -38
1532256994091610 -1 -5 17 -4 -2 -1 -34 -15
1532256994151442 -3 -11 -55 5 -2 -3 4 1
1532256994204300 6 5 45 0 3 4 -12 3
1532256994401772 2 9 -6 2 1 -1 2 0
1532256994467596 1 33 -6 0 3 1 0 -2
1532256994483565 -2 56 -1 0 2 -2 -3 -2
1532256994618193 4 11 9 4 -1 -8 -1 -3
1532256994699974 2 -1 8 8 4 4 -3 0
1532256994759814 -13 3 -5 3 0 -7 3 10
1532256994773777 -1 -7 -7 -2 2 6 -4 -5
1532256994833617 11 13 -6 3 -1 1 -11 -31
1532256994894454 3 -25 -3 -8 -7 -5 -4 6
1532256994963271 20 5 0 7 4 13 6 21
1532256995000171 -4 -35 -27 48 8 6 10 16
1532256995014135 36 -28 -4 -15 -5 -1 -16 5
1532256995037073 -33 -39 16 10 10 -3 4 59
1532256995069992 -15 12 7 3 5 6 5 -7
1532256995096913 -3 14 8 -26 -12 -13 -6 -3
1532256995133814 -2 7 2 -2 0 -3 9 22
1532256995180688 -65 -12 -37 -32 -12 -14 -21 -24
1532256995193654 48 38 -2 -5 -4 1 3 -3
1532256995299371 32 59 9 7 0 -22 -13 -24
1532256995330289 101 -8 -3 -1 1 21 23 54
1532256995501830 -22 26 17 11 5 34 7 -38
1532256995562667 -76 -37 -8 -10 -8 -27 -16 -16
1532256995636470 10 -41 -24 -21 -11 -11 2 -52
1532256995742187 16 29 9 4 1 5 4 22
1532256995876828 -7 80 -39 -4 -2 3 -2 8
1532256996042384 1 47 9 0 0 -1 -1 -1
1532256996162064 0 9 29 3 0 -1 1 -1
1532256996252822 -6 -31 9 -3 -3 -2 0 -2
1532256996319643 0 0 -63 11 1 0 -1 0
1532256996425361 -18 -12 -28 3 5 8 -3 -12
1532256996501191 0 15 18 25 10 0 1 -1
1532256996581941 3 -18 -97 -30 -12 -4 -3 0

1532256996619841 -4 18 12 -2 2 3 4 -11
1532256996641996 13 15 9 2 2 -1 3 6
1532256996664935 1 -36 19 -5 -4 -1 -3 5
1532256996701843 1 62 25 -4 -1 -1 -2 0
1532256996725773 7 -5 7 -4 0 -3 -1 7
1532256996762674 3 -7 -14 -2 -2 -3 0 1
1532256996785613 1 12 19 -3 -2 0 -2 0
1532256996799575 1 5 8 0 -2 1 6 13
1532256996852434 -2 -4 0 -2 -1 -3 -1 -4
1532256996867423 8 -1 -2 4 2 4 3 2
1532256996919255 -1 -18 -9 -2 -4 -5 -3 -3
1532256996973111 0 -2 -4 1 2 -2 -1 -1
1532256997010012 -5 9 -3 -3 -3 -1 -1 -1
1532256997024973 -3 -6 1 3 -2 -3 0 -3
1532256997061874 -1 -15 -6 0 0 2 1 -1
1532256997100770 -2 -1 -1 -1 0 0 -1 -2
1532256997121714 -7 -6 -5 0 -2 2 0 -2
1532256997145650 2 8 9 -2 -4 1 -1 0
1532256997182551 -6 35 7 3 0 1 0 -2
1532256997205490 4 -17 -10 -3 -3 -6 -1 -1
1532256997228432 2 -15 -8 1 1 0 -1 0
1532256997242391 2 -7 -5 -1 -3 -6 -1 1
1532256997295250 -7 -16 -9 -3 0 8 2 0
1532256997372044 -3 8 5 2 1 12 -2 -4
1532256997387004 2 10 2 0 0 -2 0 1
1532256997414929 -4 6 -1 0 1 1 1 1
1532256997467799 0 7 -1 -2 -3 0 -1 0
1532256997490727 1 -2 -2 -1 -1 -1 0 0
1532256997526631 2 -1 -5 -1 -3 -1 -2 -1
1532256997550567 -1 -17 -16 0 1 -4 -1 -4
1532256997605421 -4 28 5 -1 -1 1 -2 -1
1532256997627370 5 -13 35 25 8 0 3 2
1532256997655287 8 28 26 2 2 1 0 3
1532256997722109 -1 -31 30 0 -6 -8 -6 -6
1532256997781949 -3 -25 -16 -1 -6 -34 -1 0
1532256997790924 -1 -18 -12 -1 -7 -54 -9 -16
1532256997947505 -3 27 -1 -5 -4 6 -2 -3
1532256997978423 0 -1 34 6 5 7 2 1
1532256998021321 0 0 27 0 -5 -18 -2 -3
1532256998149964 -2 5 12 0 -2 -1 -1 2
1532256998277623 -3 -2 -5 -3 -1 -2 -2 0
1532256998337463 4 9 0 2 2 0 0 -2
1532256998375362 0 9 -3 -2 1 0 -1 1
1532256998450162 -4 -3 36 3 1 -1 -2 -2
1532256998473100 1 14 4 1 9 0 0 -1
1532256998532940 0 -24 -19 25 5 1 -2 -2
1532256998600758 -1 -17 17 6 11 2 1 0
1532256998667580 -1 6 17 -12 -4 2 0 1
1532256998714454 -3 -27 -5 1 1 1 1 0
1532256998759335 -3 -5 61 -3 12 5 2 -1
1532256998803217 -2 -1 52 -4 -6 1 -3 -2
1532256998833144 -1 3 15 -1 -3 0 1 0
1532256998847107 -7 -53 -21 -5 3 2 1 -1
1532256998906947 -5 -44 -19 -16 -3 1 0 -2
1532256998968802 -11 17 104 9 3 1 0 1
1532256998991720 1 -54 -59 0 0 3 0 11
1532256999051569 4 -48 -97 -22 -4 4 1 -9
1532256999073515 5 21 -17 6 4 16 0 -25
1532256999087477 -8 2 -8 -3 -15 -42 -5 4
1532256999147306 -4 -28 9 -4 0 22 -2 -4
1532256999170243 -3 34 -109 -24 -5 15 5 -4
1532256999217117 6 -7 -27 0 4 4 26 -31
1532256999246056 -10 -9 -70 -8 -1 17 -18 91
1532256999252025 10 26 10 0 3 29 3 -28
1532256999320840 -30 21 111 13 4 -5 -6 -15
1532256999326832 -9 22 127 9 5 36 -1 6
1532256999373699 2 -17 98 7 3 61 19 50
1532256999386664 5 -16 -41 2 -3 -15 3 8
1532256999410600 -7 8 -26 -6 -2 -12 -2 -1
1532256999432541 8 54 29 16 8 1 3 6
1532256999446504 -1 -38 -17 5 -2 -4 12 0
1532256999477421 -2 10 0 2 0 -19 4 -25
1532256999502355 -2 4 31 0 -4 -17 -5 18
1532256999552221 -2 11 -87 -4 -1 3 0 -2
1532256999599096 -4 45 77 7 6 2 -2 -12
1532256999620040 -1 11 32 -4 -3 -16 -3 -3
1532256999643989 1 -5 -30 15 0 -2 1 -3
1532256999674893 2 16 -10 2 1 3 -1 -2
1532256999732738 1 0 3 6 -1 -5 -2 -2
1532256999746701 -18 -3 7 0 0 -1 -1 -1
1532256999837458 -19 -2 -6 -7 -4 -3 -3 -4
1532256999891315 0 15 8 8 7 0 1 0
1532256999926221 -8 -21 -57 -12 -4 -6 -3 2
1532256999973095 2 9 13 2 -3 0 1 -32
1532257000032936 -59 -27 -15 -6 -4 2 -7 6
1532257000055874 25 25 21 6 5 -23 -1 26
1532257000099757 7 -7 0 1 3 -1 -14 20
1532257000114717 -21 -29 -20 -7 -4 5 1 5
1532257000138653 13 27 9 -2 -5 -13 -6 24
1532257000175554 8 -64 7 -13 -9 -7 -5 -31
1532257000189517 2 -25 -4 3 -1 2 1 25
1532257000235395 65 16 25 -29 -4 0 3 8
1532257000249357 -81 -20 4 7 2 2 -4 -10
1532257000309197 6 -79 -2 22 12 11 16 29
1532257000340114 33 34 6 1 5 0 -18 -1
1532257000384994 -28 -7 0 14 14 26 25 -15
1532257000416909 47 -7 -2 -7 -5 -5 -8 3
1532257000452813 22 71 13 -5 0 4 -6 -16
1532257000475751 7 -17 -19 -16 -8 -12 6 27
1532257000535591 2 -12 1 7 2 -6 -11 -1
1532257000558540 -29 -8 -3 0 -3 -7 -12 -29
1532257000595431 -18 1 9 1 1 4 0 -4
1532257000609394 -15 1 2 3 -1 -4 -1 3
1532257000633330 4 -3 5 0 -3 -2 5 -1
1532257000685191 -9 8 5 1 0 -3 -2 1
1532257000715111 6 -54 -1 0 -2 1 3 17
1532257000753010 4 -30 -1 -2 -2 -1 0 0
1532257000788914 -14 6 2 1 -1 0 -1 -2
1532257000797890 -7 6 19 -1 0 1 0 1
1532257000835789 1 20 10 -1 -2 0 1 -2
1532257000848754 0 0 -11 1 0 1 -1 -4
1532257000886653 4 -5 -50 -3 -2 5 -12 2
1532257000923554 -1 13 72 5 4 5 -2 -1
1532257000985403 5 10 46 5 1 -6 -7 -17
1532257001015309 -10 4 0 2 -1 -7 -10 -3
1532257001051212 -3 -18 -41 -12 -1 5 -19 5
1532257001157927 3 -12 -41 0 2 -2 -17 0
1532257001375346 7 4 10 7 3 5 11 2
1532257001518962 -2 -6 42 -8 -1 5 -38 -6
1532257001577805 -14 -4 25 -1 0 5 2 -1
1532257001591767 -6 -5 -8 1 -1 -6 35 -1
1532257001637645 -8 -17 -38 -7 -3 -1 -18 -1
1532257001674546 -10 5 -7 5 2 -6 -11 -6
1532257001727404 8 13 31 2 1 2 -10 2
1532257001749346 -2 7 21 5 2 1 22 1
1532257001782268 -2 23 77 7 4 3 -24 -6
1532257001937842 3 48 101 39 8 -4 -9 1
1532257002139303 -20 -16 -4 -3 -5 -4 -14 -4
1532257002163239 -1 -13 -4 -8 -3 -5 -26 0
1532257002237041 2 2 15 1 -2 -1 -2 1
1532257002290898 4 -8 -16 1 1 -1 19 2
1532257002417559 -5 -15 18 -5 -3 -2 -3 -4
1532257002560202 -1 10 29 3 1 -3 -47 -1
1532257002777618 2 -8 -3 -2 -4 -1 3 2
1532257002822498 2 10 2 -4 -5 7 4 -4
1532257002950157 -1 20 -2 -13 -3 -1 0 2
1532257003257335 1 -5 -4 -2 0 2 -1 1
1532257003303213 -2 3 6 1 1 -2 0 3
1532257003355074 -15 -38 -12 -4 -1 -2 3 6
1532257003393970 -8 -11 -5 -1 -4 -4 -5 30
1532257003421896 13 -65 -19 3 1 0 -6 -19
1532257003451815 -16 4 8 5 2 -3 -36 -13
1532257003482733 0 6 -1 6 0 2 9 -23
1532257003496695 11 30 38 -8 3 3 11 -7
1532257003519634 -27 -20 -15 -8 -1 -5 -1 18
1532257003542572 44 -62 6 2 3 -3 -5 10
1532257003564514 53 27 0 -14 -5 -1 10 67
1532257003602413 3 -20 4 -7 -6 -2 0 -15
1532257003648290 5 29 -9 2 -9 0 -9 -26
1532257003678210 -5 -10 2 28 8 5 6 3
1532257003699153 -32 -8 -19 -8 -5 -2 14 19
1532257003730071 53 -4 23 26 6 4 5 39
1532257003752013 -20 16 5 -10 -4 -7 -7 -1
1532257003782930 32 -7 4 0 5 33 18 26
1532257003819831 41 -2 4 -4 -1 -1 -9 7
1532257003865708 -66 22 0 -3 2 1 -8 -11
1532257003902610 25 -2 -4 9 7 2 7 -9
1532257003925548 -44 -5 2 -3 -1 3 -7 -26
1532257003954471 17 -3 10 21 11 17 -22 25
1532257004001346 66 -55 -13 4 3 16 11 3
1532257004014311 6 -40 -14 -11 0 -9 6 30
1532257004046226 9 -20 19 23 6 5 24 24
1532257004120029 -28 3 55 7 6 -8 5 46
1532257004165906 -51 28 31 69 18 31 -10 -38
1532257004299548 56 24 -9 20 2 16 12 0
1532257004359388 29 33 22 27 9 24 21 29
1532257004538909 1 -86 45 -3 -4 -13 -3 -4
1532257004658588 1 -4 42 4 -2 1 -1 -2
1532257004705463 4 28 -13 0 -2 -1 -3 0
1532257004742364 -3 -12 -4 -4 -3 -3 -2 -2
1532257004765302 0 17 -24 -1 -1 -2 -2 -1
1532257004788241 -6 -65 -61 0 -3 0 0 -2
1532257004802203 2 -30 -25 3 3 -1 3 4
1532257004825156 1 -62 -13 1 -2 -1 -1 0
1532257004848081 -7 -66 38 -5 -3 0 -2 -3
1532257004878002 8 50 1 -3 1 5 -1 -3
1532257004921884 -9 10 13 -3 -2 1 1 1
1532257004945820 13 13 -20 1 -1 -1 0 3
1532257004967761 0 16 47 11 4 -1 0 1
1532257005027601 -2 -12 9 -6 -2 0 -1 -1
1532257005041564 -4 4 -20 3 1 0 -1 0
1532257005080463 -7 -20 -16 -4 -1 0 0 -2
1532257005105393 -1 -7 -4 6 4 2 3 0
1532257005140300 4 4 15 2 -1 0 2 2
1532257005185180 -8 13 5 1 2 2 3 23
1532257005208127 3 20 -9 0 0 -4 -1 10
1532257005244023 -3 -9 -1 -1 -10 0 -5 57
1532257005311841 12 14 -40 -3 -1 8 -2 -9

1532257005372679 -3 -16 -3 -8 -7 -1 0 -11
1532257005417579 -4 10 15 -6 -4 -4 -7 7
1532257005455457 -4 -11 14 4 2 -5 4 -1
1532257005461442 4 1 5 0 2 6 3 -3
1532257005484394 -6 24 28 24 7 8 1 -6
1532257005530257 0 -12 3 -5 0 -4 1 1
1532257005545217 3 5 -3 -4 -1 1 -5 -6
1532257005575136 -4 6 7 1 0 0 1 0
1532257005622021 0 12 4 2 0 0 1 1
1532257005679858 0 -3 -7 -1 -1 -11 1 1
1532257005690828 -2 -6 -19 1 1 0 -4 -9
1532257005724737 -3 -26 -15 -4 -1 0 -1 -4
1532257005747676 -1 4 2 -1 -3 -1 -2 0
1532257005769617 1 -2 1 -5 -3 1 -4 -5
1532257005807515 0 14 2 -3 -3 -4 -1 2
1532257005830454 -4 -20 -8 0 0 -8 1 -3
1532257005867356 -1 -7 -5 1 4 15 2 1
1532257005922209 0 7 -21 -2 -1 2 1 -3
1532257005958120 -5 -3 -1 0 1 -1 1 -3
1532257006018957 0 9 18 -3 -3 1 -3 -3
1532257006047879 -8 7 -6 -1 1 0 0 -3
1532257006070818 -3 -6 -5 -1 1 -5 -1 -4
1532257006143623 3 -7 -7 -2 -1 -3 1 10
1532257006189501 -2 -1 -4 0 2 1 1 0
1532257006249340 5 -2 1 1 -1 2 -1 -2
1532257006273277 -6 6 33 -3 -2 -3 -6 -4
1532257006348083 -9 -15 -15 2 -3 -3 -1 -5
1532257006430861 0 -9 -13 2 -1 -9 1 -4
1532257006542547 3 17 -18 4 5 24 19 0
1532257006573465 -9 -19 -28 0 0 3 -3 -28
1532257006594408 3 -18 -93 -4 -4 4 -1 -1
1532257006647267 4 7 -12 -13 -4 3 -3 3
1532257006654249 -3 -14 -3 -7 -9 -3 -10 -11
1532257006723064 3 -5 -12 -6 -1 -4 2 3
1532257006766947 -3 -9 -30 -2 0 -1 1 8
1532257006797865 1 -2 -6 0 1 -3 -1 -1
1532257006850723 5 26 3 3 1 -1 -2 -1
1532257006872665 6 -13 -6 2 0 -2 0 11
1532257006886627 -2 -4 -8 0 -1 0 2 -3
1532257006932505 -3 11 -1 -3 -2 -3 0 0
1532257006946466 10 41 2 -3 0 -2 -1 7
1532257006993342 -4 -9 -6 2 0 -1 0 -2
1532257007006308 -3 3 -8 -4 -1 -2 1 0
1532257007023262 0 -19 1 3 -2 -1 -1 -1
1532257007036227 1 8 -6 -7 -2 -2 -1 1
1532257007070137 -1 24 4 -1 1 1 -1 1
1532257007090096 -1 -6 2 -6 -1 -1 1 1
1532257007113022 -4 2 4 -7 1 0 1 -1
1532257007126985 0 -3 5 9 2 -2 -1 0
1532257007172862 1 -8 -5 10 1 0 0 1
1532257007195800 -9 -34 -21 -22 -7 -3 -1 -3
1532257007248659 -3 -10 -2 23 2 1 1 1
1532257007277582 6 31 25 -3 1 1 0 -2
1532257007332435 -3 -14 -8 -10 -2 -2 1 -1
1532257007368350 -4 18 7 12 3 1 -1 -2
1532257007389283 -2 -12 -10 24 10 3 2 0
1532257007413219 5 7 5 8 1 2 0 -1
1532257007435161 1 -11 -39 -14 -3 -2 -1 0
1532257007464083 0 4 -3 4 2 -2 -1 0
1532257007495997 -1 25 -1 9 4 0 2 3
1532257007532899 9 -2 20 -4 0 0 5 12
1532257007608696 18 -30 15 1 -2 -1 -4 -9
1532257007615678 -2 6 -3 5 1 -1 -1 -5
1532257007675518 0 12 106 4 2 11 -1 -5
1532257007689480 -16 -17 -61 -8 -2 -5 -5 -26
1532257007698456 -13 16 -12 -6 2 15 6 -24
1532257007735370 6 14 10 -1 -1 -6 -1 10
1532257007773256 11 -2 -47 -4 -5 -2 -1 9
1532257007818150 1 -87 41 -11 -3 -7 2 10
1532257007894930 2 10 42 -4 -1 -5 -2 -2
1532257007922856 13 -4 64 -1 0 37 -9 67
1532257007928840 -31 1 6 -3 -6 -53 -15 -2
1532257007997656 0 -33 -47 -13 3 20 10 11
1532257008051512 5 26 -52 12 -2 -39 0 11
1532257008064478 -12 2 -10 0 1 9 15 -32
1532257008165209 8 55 98 16 12 34 -17 -28
1532257008179171 -2 -49 -21 -15 -5 6 1 0
1532257008230035 4 -27 -85 9 7 8 -6 0
1532257008267934 0 11 35 -4 -5 -2 -4 -3
1532257008290871 2 28 4 6 1 2 -4 -20
1532257008351710 -22 -33 -32 -18 -1 0 -2 -7
1532257008410552 7 5 -6 3 2 2 1 4
1532257008456429 6 -29 -39 -32 -4 -2 -2 0
1532257008462414 -7 16 13 -1 -4 -3 -9 3
1532257008488345 -1 13 16 20 -4 -1 1 0
1532257008545192 15 12 16 -2 6 7 9 2
1532257008598050 8 -23 -28 -6 -2 3 1 20
1532257008634952 -9 21 -13 -5 2 2 -11 2
1532257008687811 53 19 7 2 0 6 25 33
1532257008742665 12 -35 -4 0 -1 -2 6 27
1532257008799512 -8 -63 12 1 0 16 5 13
1532257008868344 -57 -5 7 4 5 2 -4 1
1532257008905229 -22 -56 -15 0 1 -12 28 0
1532257008943127 -11 31 18 2 0 -12 -45 -9
1532257008973048 39 55 12 5 6 48 6 23
1532257009011944 -12 9 19 11 1 7 -12 -25
1532257009055827 4 5 -5 7 -2 -17 -4 -6
1532257009101704 -12 -27 -9 -1 0 -3 1 -10
1532257009137608 -12 -19 1 -5 -11 -60 1 -1
1532257009159549 -8 -3 6 5 1 14 41 5
1532257009176504 -3 13 8 3 -2 -9 -20 2
1532257009229363 7 11 4 0 -1 -7 -10 -5
1532257009273245 -7 -11 4 -1 0 16 -5 2
1532257009288205 -12 6 0 -2 2 1 -5 0
1532257009340066 17 9 -35 -6 -3 14 1 2
1532257009400904 24 9 -6 -3 -5 -8 25 -3
1532257009460744 7 2 46 8 6 9 59 19
1532257009536541 -6 -11 -18 -13 -6 -4 -4 -6
1532257010014263 -1 15 35 -19 -8 -2 -21 -4
1532257010164861 -6 -19 -17 10 5 9 16 2
1532257010269581 5 4 27 1 0 2 -8 12
1532257010420178 2 0 26 -4 -1 8 17 2
1532257010728354 6 17 30 7 3 0 -14 2
1532257010743314 -12 -4 15 -6 0 0 -7 -1
1532257010765255 10 27 -14 4 -4 -6 9 17
1532257010817116 2 -4 -1 -2 -2 2 -43 -7
1532257010862994 -3 -6 -6 0 -1 11 4 -8
1532257010907874 -4 0 -12 -7 -3 -4 1 -5
1532257010959736 -2 -31 2 -2 3 2 1 -4
1532257011020573 11 34 11 3 -2 -2 -1 4
1532257011044520 -5 69 -3 -6 -5 -3 -1 -4
1532257011148231 -2 -10 -4 3 -3 -2 -1 -3
1532257011202087 -5 -7 -15 -13 -2 -3 -1 1
1532257011236994 2 -4 -1 -1 1 -2 -1 -2
1532257011259933 -10 -7 3 4 1 1 -2 -3
1532257011365650 -11 -42 4 -4 -1 -2 -5 -2
1532257011463388 -8 -32 -21 -4 -3 -5 -5 3
1532257011514253 25 41 4 -3 -4 -2 2 16
1532257011561134 0 0 6 3 0 -1 3 2
1532257011665847 32 -1 -6 -10 -6 -2 6 12
1532257011678812 1 7 28 8 6 2 -9 16
1532257011786525 -57 -39 -3 1 -1 -9 -9 -46
1532257011814450 53 9 -3 -6 5 24 17 20
1532257011853346 2 31 2 -8 2 5 4 8
1532257011905207 7 -51 -23 0 -1 -13 12 22
1532257011928163 23 -16 -9 -14 -9 -6 13 0
1532257012025884 -60 30 -41 -7 -3 2 -2 -28
1532257012107666 3 -8 1 -11 13 11 13 -5
1532257012122626 13 8 11 -8 -8 9 19 -16
1532257012153542 47 -8 13 11 5 -18 -47 -3
1532257012159527 3 -21 -2 5 -5 -1 -20 2
1532257012182466 4 -18 -14 -15 -13 -18 -25 -24
1532257012219367 -63 6 10 1 0 4 2 -9
1532257012242306 6 0 7 8 9 2 31 3
1532257012288183 -29 -43 -36 -17 -6 -16 -2 -13
1532257012310124 -6 31 11 -8 -2 -8 4 13
1532257012421827 -27 -13 14 0 -1 -17 -3 36
1532257012587392 0 -32 34 8 4 -1 -8 3
1532257012610321 -23 127 50 5 1 -4 -1 -5
1532257012744961 5 100 -1 -4 -3 0 -3 -3
1532257012767900 -3 14 6 4 2 -6 4 2
1532257012835731 4 14 36 10 7 -1 -1 0
1532257012882594 3 -6 -8 -5 0 -3 -2 2
1532257012903537 -3 14 64 6 0 -1 -2 -2
1532257012961383 -9 -12 16 -7 -2 2 -4 0
1532257012984337 4 -60 14 9 -1 -4 -1 0
1532257013030199 1 6 26 -6 -3 -1 -1 1
1532257013068098 -2 -20 -6 3 3 0 -2 1
1532257013127938 1 19 -15 -7 -6 2 -9 -35
1532257013141901 13 44 10 -4 0 -2 14 8
1532257013171820 -6 -13 8 4 0 4 5 -48
1532257013210716 -8 -37 63 13 4 -5 -1 8
1532257013247617 -4 19 -16 36 6 5 -6 -7
1532257013270556 -8 -3 -63 -55 -11 5 -1 10

1532257013291500 -16 39 87 3 2 0 -2 -12
1532257013330396 -2 -5 -33 -6 2 44 -2 -7
1532257013344359 -18 6 -2 -3 0 -26 -4 0
1532257013398215 0 -11 -20 -1 0 -5 1 1
1532257013413175 4 11 16 2 0 -1 -1 0
1532257013474012 -7 -8 -22 24 10 3 2 -2
1532257013487975 0 -12 -11 0 0 -2 -1 -4
1532257013523878 1 1 -5 0 0 3 0 0
1532257013570753 1 -2 3 3 0 0 2 2
1532257013591697 1 -3 -1 -5 -5 -10 -1 -2
1532257013645553 -2 1 -4 1 -1 -5 -2 2
1532257013704396 6 -5 0 -2 -1 -2 1 2
1532257013728332 -7 22 14 2 1 2 1 1
1532257013750273 2 0 1 3 2 0 -3 -1
1532257013764236 7 -10 -14 -4 -4 -7 -1 -1
1532257013810113 4 -4 -5 -2 -2 -4 1 0
1532257013824075 -6 -9 12 0 2 9 -1 -3
1532257013848012 0 6 -1 2 4 1 1 0
1532257013883916 -12 37 25 -2 -2 -4 0 -1
1532257013938769 1 -5 -6 -2 -3 -4 1 0
1532257013968689 -1 -15 -7 2 2 4 0 -2
1532257013989633 3 -8 1 5 2 0 0 1
1532257014006588 -1 -1 3 -1 -1 0 0 1
1532257014027532 1 0 15 -3 -1 -1 0 1
1532257014095350 -3 -6 -14 -2 -5 -4 -2 -2
1532257014134246 0 -5 1 2 1 9 3 -1
1532257014170150 1 0 11 -1 -3 3 0 1
1532257014199072 5 4 14 2 1 0 1 2
1532257014245947 1 10 10 3 0 1 -1 0
1532257014281852 -1 0 1 -2 -1 1 -2 0
1532257014326731 -2 32 38 6 1 -4 -1 -2
1532257014386572 0 -21 -2 -2 -1 -1 6 0
1532257014432449 -4 -1 11 3 -2 -1 -1 -4
1532257014446411 -2 22 28 25 2 -1 -2 -2
1532257014538166 0 2 12 -9 -1 1 1 0
1532257014566091 -1 -6 15 3 1 0 1 0
1532257014612966 1 5 12 5 -1 -1 1 1
1532257014672806 -3 -5 25 13 -2 -2 -2 -1
1532257014777526 0 -26 -21 -7 -3 -1 0 3
1532257014806449 0 8 30 -4 -1 2 -1 0
1532257014830385 0 -5 -13 -5 -4 0 1 -2
1532257014860304 0 -13 7 -9 -4 -4 -2 -1
1532257014890225 -8 32 59 -8 -6 -1 -2 -5
1532257014913163 4 -4 -30 2 4 1 1 2
1532257014973003 2 -1 1 1 3 0 1 0
1532257014986966 0 -11 -15 -1 3 1 1 1
1532257015040822 -2 -1 6 -11 -4 -2 -1 -3
1532257015077723 0 42 92 -4 -6 -1 -2 -1
1532257015115622 -1 -30 -26 0 1 -2 -1 -1
1532257015175462 0 -46 -59 5 4 -1 0 1
1532257015190422 1 24 30 0 1 0 0 -1
1532257015235302 -10 -67 -61 -1 -5 -2 -2 -4
1532257015281179 5 27 36 2 1 2 -1 2
1532257015310102 -1 1 -3 -6 -3 -2 0 -1
1532257015392881 -4 2 2 -4 -1 -1 -1 -2
1532257015415819 1 10 -18 7 -1 1 -1 1
1532257015429782 2 -13 2 -2 0 -1 0 0
1532257015512560 2 4 15 1 1 -1 -1 -1
1532257015662160 0 -23 -14 -3 -2 1 -1 -1
1532257015692080 1 -12 -6 12 2 1 1 1
1532257015850752 -1 2 -39 -3 -1 0 -1 0
1532257015887079 -4 1 -28 -6 -2 0 -1 -1
1532257016014738 3 20 6 0 1 2 0 2
1532257016074577 -1 3 34 6 1 0 0 -1
1532257016097517 3 13 5 -2 0 0 0 -1
1532257016158400 1 -5 -19 -2 -1 -2 -1 1
1532257016181330 1 0 6 -7 -1 0 1 1
1532257016314987 -1 4 49 4 -1 -1 -1 -1
1532257016374827 0 4 -68 0 1 -1 1 -1
1532257016456621 -2 -20 -72 -4 -2 -2 -1 1
1532257016510477 2 -7 41 2 0 2 0 1
1532257016578296 0 8 -17 -1 0 0 1 1
1532257016697976 -1 -14 4 -2 1 -1 -2 -1
1532257016877495 -3 1 47 1 0 1 -1 -2
1532257016951298 0 18 19 7 1 -1 -2 0
1532257016974237 -3 -9 -11 -3 -3 -1 -1 -1
1532257017140792 -3 -31 -58 -5 -1 0 0 1
1532257017214594 1 5 23 1 1 -1 -1 2
1532257017276428 -4 -1 -13 -4 -2 -1 -1 -2
1532257017337265 0 4 -4 -5 -2 -3 0 -1
1532257017395111 2 16 7 9 0 0 -1 1
1532257017440989 -4 -58 20 1 3 1 0 -1
1532257017500667 -2 0 50 -10 -5 -2 -2 2
1532257017538467 -1 -24 -50 -3 0 1 1 -1
1532257017582352 0 16 5 -9 -5 -3 -2 -1
1532257017620250 0 -35 -81 -3 -1 -3 -2 -2
1532257017680090 0 35 -14 -2 -1 -8 -2 -1
1532257017779488 -9 8 8 2 4 41 4 -6
1532257017851296 -4 -27 -10 -14 -1 14 2 -2
1532257017905152 0 -3 16 -8 -1 2 1 2
1532257017920125 0 8 12 -4 -5 -4 -2 0
1532257017943062 1 -1 27 1 -1 2 0 -2
1532257017964008 1 2 7 10 1 -1 -1 -1
1532257017983953 3 8 2 -3 -1 6 0 -2
1532257018009884 -6 -4 12 -3 -1 -3 -2 -1
1532257018040802 -6 -13 -46 -13 -5 -3 -2 -6
1532257018062743 4 2 20 -4 0 -2 -1 2
1532257018122583 6 14 5 -1 -1 -1 -1 -1
1532257018160482 -2 -6 7 0 0 1 0 1
1532257018189404 -4 -25 4 -6 -4 -2 -1 -2
1532257018205372 -4 -18 -2 -2 -1 0 0 -2
1532257018243261 -1 2 -1 0 -2 -1 -1 -1
1532257018280162 -1 -2 -4 -1 0 0 0 0
1532257018303100 -2 4 0 -1 1 0 -2 -3
1532257018317063 -3 -19 -1 12 4 1 3 1
1532257018362940 -1 9 -5 17 5 1 0 0
1532257018385879 -1 -23 -12 -7 -5 0 0 0
1532257018415799 -4 -14 -3 46 6 0 0 -2
1532257018428764 -4 -9 4 54 16 2 1 2
1532257018452701 3 12 -19 -26 -6 -1 1 0
1532257018482620 -1 22 27 -19 -13 -3 -3 -3
1532257018505559 -7 7 -15 -11 -2 -1 -4 -2
1532257018520519 3 -17 13 7 3 -1 1 1
1532257018542460 -3 -17 14 -19 -8 -3 0 -2
1532257018556423 -1 8 4 -17 -5 1 -2 0
1532257018580359 -4 -2 11 -2 -3 -3 -1 0
1532257018603298 1 23 6 3 0 -1 -1 -2
1532257018640199 3 35 -25 6 0 1 0 1
1532257018646183 -2 -8 29 -9 -1 0 0 -1
1532257018664135 1 -27 -19 -10 -5 0 -2 -2
1532257018686078 -2 13 49 -3 -3 -2 -1 0
1532257018722977 -6 20 20 -1 -1 0 0 -3
1532257018745916 -10 12 43 -4 1 0 2 2
1532257018766860 -4 13 20 1 0 -4 -1 -3
1532257018826700 -6 21 74 2 1 3 0 -2
1532257018887537 -4 -6 -23 -2 0 2 -1 8
1532257018902497 5 -82 -21 -7 -4 0 1 -1
1532257019008215 3 28 -3 1 -2 2 -2 58
1532257019032151 11 -18 -93 -2 -2 17 4 0
1532257019047110 -14 30 105 2 -1 -8 16 -5
1532257019083014 -2 11 -20 -5 -2 -32 -1 -8
1532257019112935 4 8 30 0 -4 8 15 51
1532257019127895 16 -13 -124 -7 -2 49 -27 -46
1532257019166791 -6 14 72 10 10 -45 -6 -16
1532257019187735 -6 5 -77 -7 -8 -2 5 -10
1532257019231617 -12 -10 45 2 -6 29 -1 -44
1532257019255553 -22 35 40 4 -8 -33 5 45
1532257019292455 7 -7 98 0 2 -42 -20 -38
1532257019308412 -2 -30 -118 -10 2 50 -7 -15
1532257019345313 14 -17 53 7 -1 -42 -5 13
1532257019368252 -4 14 27 1 -1 1 -26 3
1532257019405154 -10 -48 19 -3 3 -17 3 -12
1532257019428092 3 -32 -82 -3 -4 3 1 -2
1532257019458012 -10 7 61 14 4 -14 -23 -54
1532257019488929 4 -1 9 -7 0 -1 32 12
1532257019495911 -5 -4 -37 -23 -9 -9 4 -4
1532257019564727 -1 0 10 -10 -6 -3 -5 2
1532257019571708 1 6 -9 12 3 7 5 0
1532257019585671 4 -5 0 3 -2 -2 -20 1
1532257019622572 17 -9 -8 -10 0 0 0 5
1532257019645511 19 16 23 18 4 -2 0 4
1532257019659473 -4 -10 -6 0 2 0 -1 -1
1532257019682412 -1 26 24 11 3 -1 -22 -3
1532257019705351 1 -8 3 -4 2 -1 8 3
1532257019742252 -3 -6 -14 -9 1 1 12 2
1532257019765191 0 19 25 5 -1 3 17 0
1532257019779153 -2 -12 1 0 -4 -2 -5 4
1532257019826028 -18 -25 -20 -19 -8 -1 12 -2
1532257019847970 21 -8 13 1 1 -1 -21 60
1532257019885868 -28 -54 -41 -6 3 -3 -19 -7
1532257019907809 -18 -28 -27 -8 -3 -3 -4 -22
1532257019928753 -31 -15 -1 -3 -3 -4 5 61
1532257019967649 -14 75 -11 1 1 -7 -1 54
1532257020005552 35 -78 -7 3 4 -1 -4 23
1532257020027489 -56 -103 -1 4 3 2 8 8
1532257020073367 49 127 -5 -3 -4 11 39 -2
1532257020088326 40 127 5 6 3 0 -14 16
1532257020133206 14 27 21 12 4 7 44 -7
1532257020155148 16 -3 -9 -4 0 5 -1 31
1532257020185068 -50 2 3 -6 -8 -3 -22 -38
1532257020208006 -16 5 5 3 0 -14 -9 -19
1532257020221969 -52 -78 -5 -3 1 -1 -24 23
1532257020267855 -10 -13 -13 20 7 4 20 -10
1532257020290785 31 -33 19 3 -1 -3 1 1
1532257020327686 -6 -18 -72 -2 -3 2 14 -26
1532257020341649 -14 6 25 1 2 2 -2 -4
1532257020372566 -3 -8 15 -7 -5 -8 -4 6
1532257020387526 10 9 10 -1 1 4 3 2
1532257020416449 -15 -13 8 -1 -1 -9 -9 -3
1532257020448364 -27 5 -21 1 4 1 1 2
1532257020461329 13 -2 -14 -3 0 -2 -2 3
1532257020508205 12 -13 9 -1 -4 -4 -4 -8
1532257020521169 35 -6 -2 -2 0 0 1 1
1532257020590983 -13 -37 -15 -2 1 11 19 -3
1532257020643841 0 38 56 7 1 -4 3 3
1532257020673761 -3 3 -10 -3 2 12 7 -1
1532257020761526 15 -1 -2 0 3 14 5 18
1532257020784465 10 24 -29 2 -2 3 2 0
1532257020845302 5 11 42 3 2 -8 -44 -8
1532257020868241 -1 -11 17 17 3 8 13 3
1532257021010860 3 10 -1 3 1 -11 9 1
1532257021023825 -22 -22 -15 -6 -3 -18 -11 -11
1532257021055740 7 13 84 7 -4 -20 14 3
1532257021137521 -3 -17 -15 -8 2 -3 36 4
1532257021175430 10 7 -21 0 6 6 -4 8
1532257021222294 -4 -19 -49 -1 -5 -6 -13 -3
1532257021235276 9 27 50 6 2 8 21 -1
1532257021288118 -13 8 -24 -13 -5 -5 13 0
1532257021347958 -11 -9 -13 0 -3 3 -1 -2
1532257021399819 0 -32 -87 -7 -1 9 21 13
1532257021587318 2 0 -1 3 -6 -16 -28 -10
1532257021678075 5 11 -26 13 3 -1 17 -1
1532257021782795 0 9 -10 6 2 0 -42 3
1532257021894497 3 17 16 2 -1 3 -14 -1
1532257021932395 6 7 -5 1 -2 3 15 4
1532257021978272 1 8 0 3 2 2 6 3
1532257022097953 0 -17 -3 -3 -2 -1 1 5
1532257022172760 -8 17 1 -2 -1 -1 0 -2
1532257022292440 -4 14 2 -23 -12 -5 -3 -4
1532257022412120 6 2 6 9 2 1 1 0
1532257022471960 4 14 0 -9 -5 0 1 -3
1532257022555736 0 1 -3 0 1 1 0 -1
1532257022569699 22 -4 7 9 4 1 1 -2
1532257022614578 6 5 3 -1 0 0 -2 -1
1532257022629539 -24 -32 -7 -3 2 3 -2 -5
1532257022674418 8 24 -8 -1 -1 0 -4 -1
1532257022734259 34 32 8 4 -3 -1 6 22
1532257022795096 -1 -10 -1 1 -2 0 -4 -23
1532257022846957 24 12 8 -4 -5 -5 -5 -2
1532257022974617 -22 -28 -34 22 9 2 1 0
1532257023012514 -2 23 9 -15 -3 10 0 26
1532257023035453 -28 -29 -11 -17 -4 -6 -4 0
1532257023095293 -40 6 11 10 1 -10 15 32
1532257023132194 23 4 -5 10 5 9 12 18
1532257023251875 0 -47 -5 -1 4 23 13 21
1532257023289773 -1 7 -9 2 0 -20 -4 -3
1532257023312711 -13 -19 -11 -2 -2 -9 -6 -13
1532257023348615 -7 -22 0 0 -1 11 10 -18
1532257023372552 0 -5 -13 -5 -3 -6 -1 6
1532257023441367 -10 60 -4 -2 0 -8 -13 -13
1532257023465305 -10 35 -1 -1 -6 -20 -7 -13
1532257023530131 -19 16 10 2 12 45 -5 -19
1532257023575010 -15 27 12 11 11 -16 -20 -2
1532257023657789 9 -58 19 -8 7 -11 -5 -8
1532257023680727 -21 4 -22 -8 -9 20 2 -2
1532257023717630 -58 -72 -100 22 3 -16 0 -2
1532257023785448 -1 -1 -2 6 2 -17 -9 -6
1532257023814370 -8 6 23 -10 -5 -17 -10 -12
1532257023882189 -6 3 6 -3 0 10 -1 5
1532257023990899 0 40 -9 6 1 -1 0 -2
1532257024085645 1 52 3 5 0 -3 0 1
1532257024114567 -4 5 10 -7 -2 -1 -2 -1
1532257024273144 1 5 13 -3 0 0 0 2
1532257024339964 0 2 -17 -7 -3 -2 -2 -1
1532257024414765 0 13 8 -3 0 2 1 1
1532257024437703 0 13 -36 -4 -2 -2 -3 0
1532257024473607 -3 14 15 -3 -4 -1 -2 -1
1532257024560376 1 8 22 9 0 -1 0 -3
1532257024640162 -4 -2 -8 -5 -4 -1 0 -2
1532257024714962 -13 -22 -7 -6 0 0 0 1
1532257025193681 -2 -3 -2 1 1 19 0 -11
1532257025202658 -5 -7 -15 -4 -5 4 11 -57
1532257025219629 15 11 -4 1 2 -10 -6 111
1532257025242551 -4 53 32 -2 2 -22 -8 23
1532257025263494 0 -17 2 3 -2 -9 -4 -13
1532257025287431 1 -19 -86 -7 1 21 9 -27
1532257025309372 -1 -2 -64 2 -3 4 -1 -24
1532257025353255 0 -36 -35 -10 -1 5 7 3

1532257025413118 1 -22 9 2 -1 -5 0 0
1532257025480123 -1 -12 4 -3 -2 -4 -5 -7
1532257025520017 -3 15 24 -1 -2 -9 -2 -3
1532257025531985 1 -4 -5 -2 -3 -3 -1 -2
1532257025562902 -3 2 2 1 0 3 -1 -3
1532257025585841 -4 -2 -1 3 -1 1 -1 -1
1532257025622742 2 4 6 2 -2 1 0 0
1532257025685578 -1 10 16 2 0 2 -2 -4
1532257025699065 -2 -2 2 2 0 -1 -3 -1
1532257025711052 1 1 0 0 -2 -3 0 1
1532257025730002 -8 -9 -3 -5 -4 -3 -4 -5
1532257025789843 5 1 -3 -1 -1 -1 1 1
1532257025795826 0 -6 -10 -1 -2 3 -2 0
1532257025817767 2 12 13 3 2 0 4 1
1532257025878605 6 -7 -2 2 -2 -8 5 12
1532257025929469 0 -10 -12 1 1 0 0 1
1532257026020226 2 -1 -7 0 0 3 0 2
1532257026065106 0 6 10 -2 -2 -3 -1 -2
1532257026088044 3 1 0 -1 1 -2 -2 -2
1532257026125943 3 2 5 1 -3 -2 0 0
1532257026186781 -1 -1 -8 -3 -3 -8 -1 -2
1532257026215703 0 1 3 2 0 1 0 1
1532257026245623 -3 -7 3 3 2 0 -3 -1
1532257026289516 1 -19 -20 -1 0 0 1 0
1532257026320452 -3 2 -1 -1 -3 -4 -3 -2
1532257026358339 3 3 2 0 -1 -1 1 0
1532257026395240 -3 -11 3 -1 0 1 0 -1
1532257026468637 -3 -3 1 -2 1 -1 1 0
1532257026491570 4 -27 2 2 2 4 2 1
1532257026500547 2 -25 -30 3 2 -11 4 11
1532257026551420 -3 24 0 -1 -2 -4 -5 -7
1532257026574348 12 -13 38 2 0 2 0 4
1532257026598283 4 -4 -2 3 1 0 1 1
1532257026620226 11 1 19 -13 -5 1 1 8
1532257026641169 -6 5 7 -1 -1 2 -1 -6
1532257026696030 0 -16 12 1 -3 -2 -1 -3
1532257026703004 0 21 23 -3 -2 -1 2 -5
1532257026732923 -9 10 0 -2 1 0 -3 -5
1532257026739905 6 -34 -19 0 0 6 0 2
1532257026792764 -6 -10 -9 -4 -5 -6 -4 36
1532257026822684 -1 7 -9 3 -3 -30 6 -23
1532257026858588 -5 -51 30 0 -4 -10 3 0
1532257026905463 2 31 17 2 3 7 -3 4
1532257026942549 4 26 -6 -3 -1 -6 0 -17
1532257026972469 -3 26 9 2 0 2 0 -1
1532257027002390 -6 -47 -64 13 4 7 -1 2
1532257027064224 3 -4 -94 -5 1 -1 1 2
1532257027071205 3 7 5 -3 -5 -5 -1 0
1532257027099131 -7 -4 15 -10 -5 1 -1 2
1532257027145008 -1 2 13 1 -7 -1 -2 -3
1532257027158971 4 -6 -2 -1 -18 -3 -2 0
1532257027205861 1 -9 -12 -14 -14 -7 -3 1
1532257027218814 -2 -6 -4 15 -4 -2 0 0
1532257027242747 -9 -9 2 13 1 1 -1 -2
1532257027265685 9 -6 -27 -3 -3 -2 2 2
1532257027302587 2 7 17 8 33 7 0 1
1532257027325526 -3 13 -5 -7 -16 -4 1 -3
1532257027339488 -3 -14 -11 6 -1 -2 -2 -1
1532257027384368 -2 -4 10 -1 -16 -4 1 0
1532257027408304 -2 5 -6 -4 3 2 1 -1
1532257027489088 -4 -18 59 -1 0 -5 0 0
1532257027507040 -4 -55 -38 -1 -1 0 -2 -1
1532257027541947 1 1 -18 -2 6 1 0 0
1532257027601787 -3 -15 4 -5 -1 2 3 1
1532257027647664 0 -2 3 -5 -1 0 -1 0
1532257027661627 -4 -13 -1 -13 -7 -1 -3 -2
1532257027707504 7 43 -3 -18 -26 -8 -3 -1
1532257027768342 0 14 10 11 -11 -1 0 -2
1532257027827183 0 2 9 -7 -7 1 -1 -1
1532257027858101 3 -2 11 -10 5 1 0 0
1532257027867077 2 -20 -13 3 -13 -3 0 2
1532257027890016 0 -1 40 -23 -18 -8 -4 -1
1532257027961824 1 2 6 11 -3 -1 -1 -2
1532257027985759 0 -20 -73 -2 -2 -4 0 -2
1532257028021664 0 8 -17 9 1 2 0 -1
1532257028090480 5 -31 22 -3 1 4 -1 3
1532257028121397 5 21 -42 2 -1 3 -1 1
1532257028167274 3 -22 -17 -1 0 -3 4 17
1532257028210178 43 6 -38 -5 -1 40 2 -4
1532257028278993 -19 -57 -19 2 1 12 7 6
1532257028323876 6 -4 -28 3 0 43 23 18
1532257028384711 -1 34 48 -1 -5 -25 -18 -35
1532257028390695 -17 -46 -24 21 22 33 11 -20
1532257028458513 5 -12 35 -7 -34 -98 -43 34
1532257028479457 -13 10 -66 2 13 19 16 0
1532257028524337 -1 6 -122 -7 -3 -10 6 38
1532257028547276 -10 0 -34 0 -5 -4 -1 12
1532257028584177 4 48 9 2 0 -6 2 -17
1532257028608113 -10 -18 127 17 2 -22 -9 -30
1532257028652993 4 39 127 8 -8 -7 -27 40
1532257028698870 3 -16 -9 -3 -3 2 -10 -14
1532257028741755 1 -21 -34 -11 -2 -5 1 0
1532257028782646 -1 12 18 5 0 0 -3 -5
1532257028810572 10 -6 -14 -6 -4 -2 -2 1
1532257028825542 -2 8 -3 -2 -1 -3 0 1
1532257028870412 12 15 22 -10 -1 -1 1 4
1532257028893350 -10 -12 6 3 -1 -2 0 -2
1532257028915292 -3 -1 -24 -15 -8 -2 -1 -2
1532257028930252 -4 17 9 9 2 0 -5 0
1532257028944214 8 23 34 8 3 3 3 2
1532257028968158 15 28 40 14 -2 -3 -15 4
1532257028974134 7 5 17 5 5 1 8 4
1532257029004054 -17 -6 -1 4 0 2 3 -1
1532257029013030 2 -5 -19 -2 2 -3 -9 9
1532257029057910 10 1 -14 3 4 1 -3 -1
1532257029080849 -15 3 16 -2 -3 3 14 9
1532257029132710 64 -47 -18 7 6 9 -2 40
1532257029147670 -53 -35 -1 -2 -3 -14 -11 -36
1532257029200529 36 1 10 0 -2 -6 -5 0
1532257029232444 81 -48 9 6 5 -3 26 49
1532257029277324 -51 -26 -20 -10 -5 -1 0 -15
1532257029312229 -17 -74 -11 50 8 0 -7 5
1532257029387031 10 -35 -13 -2 -3 0 0 32
1532257029409969 -12 -8 -12 -18 -6 -4 13 29
1532257029440886 -82 -5 3 -6 -6 -3 2 17
1532257029477787 17 -10 -9 0 2 7 -17 9
1532257029491750 39 -10 0 3 -1 -1 4 2
1532257029531643 -18 6 25 -3 -1 0 -4 -5
1532257029552588 -1 0 1 -10 -7 -2 6 -6
1532257029582507 20 -10 1 -2 2 0 5 -2
1532257029635376 -15 -28 1 -1 -1 -1 1 0
1532257029658311 0 -56 -2 -2 -1 0 -5 -4
1532257029711170 2 70 -3 -1 -2 -1 9 6
1532257029732114 1 26 -2 1 2 1 -1 1
1532257029754055 2 -2 -3 -1 -3 -2 0 -5
1532257029784973 -3 -15 1 -3 -3 -3 -4 -2
1532257029851793 4 -3 0 -1 -4 -2 -2 0
1532257029889692 -2 5 18 0 -1 -2 -3 -3
1532257029949532 5 4 11 -2 -3 -1 -9 4
1532257029972471 1 -5 16 -1 0 -12 -11 4
1532257030032310 -3 16 4 -1 -4 -1 2 2
1532257030108130 1 2 -20 -2 -1 2 -4 3
1532257030249751 -1 25 47 6 6 8 -16 7
1532257030331532 12 11 54 1 -1 13 -12 8
1532257030431266 -16 -16 -24 -8 -6 -11 -28 -25
1532257030452210 -5 -21 -12 14 14 -3 22 8
1532257030534999 9 -8 -58 7 2 -9 0 -1
1532257030580866 -3 -3 32 2 2 6 15 5
1532257030789308 -6 -15 -11 -3 -2 9 -9 -1
1532257030911980 -16 -22 -16 -1 -1 0 15 -2
1532257031291964 -4 -4 -47 2 2 3 17 6
1532257031315900 -16 -15 -4 -9 -6 -9 -7 -13
1532257031525340 3 23 59 1 1 -5 -20 2
1532257031788636 3 6 0 13 3 -5 -5 -3
1532257032065895 1 7 2 -1 1 1 -1 1
1532257032131719 0 -22 -6 -1 -1 -1 1 0
1532257032260375 0 1 -3 2 3 -1 -1 -5
1532257032380054 -5 -20 -8 -6 -3 -6 0 -2
1532257032634375 5 24 3 -5 -3 3 -1 0
1532257032680252 4 -27 -7 0 -2 -17 -4 5
1532257032740091 -38 -32 -17 -8 -5 -7 -6 -14
1532257032777990 0 17 11 2 -2 0 -21 -6
1532257032837831 7 6 8 8 2 -1 4 -54
1532257032882710 0 30 6 -3 -4 2 8 26
1532257032933574 101 34 -3 -8 -1 4 13 37
1532257032994412 -4 -57 7 6 6 -7 -2 -11
1532257033054261 5 51 17 21 11 -1 6 -5
1532257033123067 91 -20 -2 -2 -23 -12 -13 5
1532257033182908 -4 10 14 4 -1 0 24 28
1532257033211830 13 47 14 13 4 -23 -13 -52
1532257033242747 -45 3 27 1 -2 -47 -29 -26
1532257033265686 -11 -51 -27 -20 -4 -56 -9 26
1532257033302588 -65 -7 11 12 -10 -15 -22 -29
1532257033349462 62 -23 -15 -14 -17 -21 44 32
1532257033400325 13 41 -4 -20 -4 18 25 -22
1532257033580844 -2 19 -7 14 1 -3 -75 -44
1532257033939883 0 -13 -101 -5 -1 -1 -1 -1
1532257033992742 1 35 -14 -5 0 -1 1 4
1532257034030641 -9 -5 -74 0 1 1 1 0
1532257034059563 -2 -1 8 -1 -3 -1 -1 0
1532257034105440 1 -13 0 -1 -3 -3 0 2
1532257034119403 -3 -8 3 1 1 -5 -1 -2
1532257034167275 -5 5 7 -1 -2 1 -2 -3
1532257034188219 -6 -28 -1 -6 -2 0 0 -1
1532257034225120 0 -11 -5 16 6 2 2 2
1532257034263019 15 -4 14 -9 -1 -3 -1 1
1532257034322880 -4 12 -4 -10 -1 -1 -2 0
1532257034345818 7 55 32 16 4 1 1 -1
1532257034382736 1 13 33 3 -5 -3 0 -1
1532257034405659 -10 -58 -42 -9 -3 -1 -2 -2
1532257034428598 3 -7 -36 -1 0 7 -3 -16
1532257034444555 -7 -4 -4 1 2 22 4 -10
1532257034479461 -5 -27 -33 -1 8 14 -17 -19
1532257034503411 -21 -42 -58 -7 -10 -1 -1 -40
1532257034570219 7 33 26 1 -10 -1 3 0
1532257034599142 0 -27 -51 2 2 -9 -1 -7
1532257034608117 -9 7 -11 -24 -5 4 3 -3

1532257034645018 2 2 -16 14 2 0 -6 -5
1532257034658981 -1 -9 -31 8 4 3 2 -10
1532257034712837 4 10 14 2 -1 -9 4 6
1532257034742757 -7 16 -27 -5 -2 -4 2 0
1532257034772677 -6 -8 6 -2 -1 -2 0 -1
1532257034788634 8 -19 2 3 -2 -23 -5 -5
1532257034802597 11 -10 8 1 -2 -5 2 5
1532257034835514 -2 18 13 -1 0 -6 -3 -32
1532257034839498 -1 -8 -2 -2 -3 2 0 10
1532257034863434 -1 -16 -21 0 -3 -6 -5 0
1532257034885376 -2 -1 -3 0 -1 2 1 1
1532257034899338 -6 1 3 2 3 3 1 3
1532257034945216 -1 -12 -14 2 -3 -1 -1 -4
1532257034983114 -1 2 8 3 0 2 -1 1
1532257035004058 1 0 1 0 0 -1 1 1
1532257035035005 -2 -7 2 3 1 1 -1 7
1532257035102823 -10 3 0 -1 -3 0 -1 -3
1532257035125762 -1 37 25 2 1 -1 0 -2
1532257035185615 3 -17 -10 0 -3 -2 -1 2
1532257035207543 -1 -8 -2 3 2 2 2 2
1532257035222503 2 2 3 -3 -1 -2 1 8
1532257035236465 2 8 4 0 -1 -3 -3 -5
1532257035292317 1 4 2 1 -3 0 0 -4
1532257035335203 2 -4 -15 -3 1 1 0 1
1532257035342183 -2 4 28 3 -2 -3 -3 -3
1532257035402023 -2 -22 -91 -6 -5 -3 -4 -5
1532257035425959 -6 -14 -55 -11 -7 -3 -3 -3
1532257035447900 -3 10 -84 -8 -2 -2 -4 -5
1532257035485799 0 6 61 -1 -1 1 4 -8
1532257035507740 4 0 -6 -4 -3 0 -2 1
1532257035521703 2 -8 51 3 4 0 6 18
1532257035635400 0 14 -9 3 0 1 0 0
1532257035660333 -9 28 5 -9 -5 6 3 2
1532257035667313 -1 1 -10 2 1 -18 6 31
1532257035688258 -2 -22 -13 1 8 9 17 -4
1532257035701228 -6 16 -1 -6 -9 15 28 -10
1532257035725159 1 0 12 -2 -5 -62 -32 -25
1532257035748098 -8 -45 -18 -5 -2 2 -17 20
1532257035770039 3 -11 -25 -1 -1 34 9 -8
1532257035791981 3 1 -3 -6 0 -5 -2 14
1532257035829879 -1 -33 56 16 8 5 -3 -7
1532257035869774 8 -19 -82 -3 0 -6 -4 4
1532257035921640 3 0 16 -4 -1 -1 -1 -1
1532257035951555 -6 2 19 0 0 -3 -3 -4
1532257036011394 2 -4 -10 -12 -27 -3 0 6
1532257036024359 -1 3 3 -6 -5 -3 0 -7
1532257036047298 -3 -7 -1 3 -1 2 -1 -7
1532257036070236 -2 -3 -8 1 2 6 -2 -7
1532257036107137 5 7 0 -14 -10 -2 0 3
1532257036130092 3 7 -9 -2 1 3 1 -9
1532257036166994 -7 -31 -7 -8 0 0 0 -3
1532257036189933 6 27 1 3 -2 1 1 -1
1532257036205890 2 2 3 -3 -3 -2 -3 1
1532257036226833 -6 2 9 9 -5 -1 0 -5
1532257036249772 -4 -18 7 1 -3 -5 -1 0
1532257036264732 -1 -1 -2 4 2 1 -2 1
1532257036287670 -2 4 -5 -7 10 0 -1 1
1532257036309613 -3 -1 10 17 3 0 -2 -4
1532257036324572 0 -17 -14 -7 -7 -3 -1 -1
1532257036347510 1 16 1 9 10 3 1 1
1532257036369453 -3 -1 5 -3 0 -1 1 0
1532257036384447 4 13 3 14 8 -1 -1 1
1532257036407351 0 -12 -6 -1 -11 0 0 -2
1532257036446247 2 4 20 18 -9 -1 0 0
1532257036459213 -1 -39 -97 41 34 10 2 0
1532257036505090 1 11 4 -17 -4 -1 1 0
1532257036527031 1 8 0 -11 4 1 -1 -2
1532257036549970 -4 16 54 -18 11 0 0 -1
1532257036564930 -8 -34 -44 4 -16 0 0 -1
1532257036586872 4 23 6 -7 -13 -2 -3 -1
1532257036609810 1 -23 -29 13 9 1 0 -2
1532257036647726 2 -5 -2 7 8 0 -1 -2
1532257036684614 -2 -20 -7 -11 -7 -3 -1 0
1532257036707548 -1 8 -19 -6 -4 -1 -1 -2
1532257036754423 -2 -10 -14 5 2 0 0 -2
1532257036775367 1 -8 -20 -8 0 3 1 0
1532257036789329 -3 -42 -33 -3 -6 -3 -4 -6
1532257036827228 1 25 -6 -1 1 0 -3 -1
1532257036850167 -3 -10 0 -9 -3 -3 -1 -1
1532257036873106 -17 40 68 8 2 -1 -1 -39
1532257036887068 24 -3 -47 2 2 3 0 14
1532257036932945 7 10 3 10 4 1 -1 10
1532257036961868 -12 -14 9 -2 0 -1 3 5
1532257036980818 0 -12 -68 1 -3 -2 5 21
1532257037000765 0 5 51 4 0 9 -6 -14
1532257037007746 -20 -5 64 -4 -3 -20 -2 -10
1532257037054620 11 -28 16 10 1 -14 3 4
1532257037068583 3 -56 59 9 5 0 -3 -7
1532257037091523 5 39 17 2 -4 -7 -7 -10
1532257037120445 4 -7 14 5 -3 15 8 11
1532257037149366 10 19 25 -14 -9 -20 -8 -1
1532257037173303 11 -18 -54 -4 3 15 12 17
1532257037218184 -18 -13 40 4 -1 -28 -10 1
1532257037254086 0 20 78 6 5 8 1 -9
1532257037384738 24 -19 -121 -4 -4 -9 -9 -1
1532257037399704 10 -12 7 7 4 8 -7 -26
1532257037412663 14 -20 8 3 5 22 12 29
1532257037457542 4 -29 -9 -4 2 18 7 18
1532257037472503 -28 39 58 3 4 8 3 -29
1532257037519378 -11 -31 -108 -22 -7 -3 -1 -31
1532257037533340 0 -41 -4 4 1 14 -1 2
1532257037563261 2 8 -20 1 -5 -21 2 3
1532257037600161 -1 -8 30 3 1 16 -1 30
1532257037645042 -4 -6 -8 -6 -3 14 -7 -6
1532257037674962 2 9 17 2 1 7 6 -2
1532257037712860 5 29 1 -19 -8 -2 -3 -2
1532257037726822 4 14 2 -2 4 3 -4 -1
1532257037757740 3 9 5 -3 0 -1 0 1
1532257037795639 13 57 20 34 11 3 3 5
1532257037824562 13 -25 -12 -22 -9 -2 -2 1
1532257037842514 3 0 19 8 -2 -2 -3 -1
1532257037873448 -3 -56 -11 -14 -4 -4 3 10
1532257037893377 -8 9 12 1 -1 0 -3 -11
1532257037915318 -16 -30 -52 -11 1 1 1 -10
1532257037930279 26 32 27 12 4 2 -2 0
1532257037953218 -16 8 -7 -2 -2 0 -1 -15
1532257037975159 -18 3 7 -8 -6 -3 -10 -8
1532257038013057 26 48 54 10 4 0 6 5
1532257038048961 -27 -20 -8 -6 -3 -2 -3 3
1532257038095836 16 17 -37 -6 1 -2 -10 -4
1532257038117792 31 26 15 5 1 1 4 13
1532257038155676 37 33 26 5 3 -1 -1 8
1532257038168641 -38 25 7 4 1 -5 -17 -58
1532257038215515 17 -70 -7 1 2 9 10 32
1532257038260396 65 -3 2 -1 -1 -5 8 59
1532257038289319 -58 -79 16 14 10 11 2 -63
1532257038365115 -37 -6 -4 -8 -10 1 6 -7
1532257038395036 -4 2 -10 -1 -2 -3 7 3
1532257038454875 8 21 7 3 3 -1 -46 10
1532257038462854 -69 -4 -7 -5 -1 5 7 -27
1532257038492775 -55 50 6 0 -6 -14 9 17
1532257038515713 -9 19 20 2 -2 2 -8 -12
1532257038560594 -102 29 -6 -15 -11 -10 13 2
1532257038589516 10 33 19 2 6 6 -1 -4
1532257038649380 -18 -3 -11 -6 0 3 6 -40
1532257038772054 -26 -10 0 5 4 2 -4 -18
1532257038791998 1 7 6 -2 -4 -1 3 38
1532257038814937 6 5 -17 -3 -1 3 -2 10
1532257038837876 -5 15 9 -6 -2 0 2 -5
1532257038875774 -4 -7 0 -2 -1 -8 -5 11
1532257038920671 2 20 -2 2 -1 2 1 3
1532257038952569 2 5 -6 -2 -2 -5 1 6
1532257038996451 2 22 24 3 -1 -1 1 -1
1532257039017396 -12 -26 -33 -4 -2 0 2 11
1532257039055294 -2 42 7 0 -1 0 2 3
1532257039115134 5 19 -16 -3 -2 0 -5 3
1532257039174974 -11 -52 -5 -5 -3 2 11 6
1532257039237811 -2 23 -5 3 0 -8 -9 6
1532257039248777 -7 -33 -15 -9 0 -6 -9 11
1532257039317593 12 33 39 6 1 -1 30 2
1532257039378446 -10 3 -31 -6 1 17 6 0
1532257039617813 3 26 45 2 1 -2 -1 2
1532257039874105 8 -19 -38 3 3 -1 27 14
1532257039940926 -5 10 61 2 -6 -6 25 33
1532257039977827 18 -6 -5 -3 0 1 -20 -12
1532257040007747 3 4 -30 -7 -3 -14 -50 4
1532257040388729 18 49 67 1 -3 5 23 6
1532257040540323 1 -7 -52 7 6 9 -4 -9
1532257040600163 4 -52 -37 -12 -1 7 -64 -5
1532257040742782 -4 3 5 -12 0 -1 11 -1
1532257040780681 -2 -14 -60 16 1 0 4 -6
1532257040817582 4 0 -2 4 3 6 -7 5
1532257040900360 -12 -1 15 3 1 1 2 2
1532257040939256 -17 15 -7 -14 -3 -2 3 0
1532257040983139 -9 -8 -2 -3 -1 2 -12 -19
1532257041042980 3 26 2 0 -4 -4 -12 1
1532257041065918 0 28 -2 -3 -3 -13 -4 0
1532257041116782 2 42 17 4 2 1 -3 -1
1532257041224493 -1 -28 -6 3 1 3 -2 -2
1532257041320238 5 2 8 0 0 -1 0 1
1532257041380077 3 2 0 1 -5 -4 -4 0
1532257041432944 16 14 7 2 -1 1 -1 1
1532257041545646 12 22 4 0 3 -7 -6 -1
1532257041582536 -1 16 -3 13 1 7 9 -4
1532257041643373 -11 46 -16 -5 -2 -3 -4 -10
1532257041665315 18 -45 -3 1 -1 0 -1 12
1532257041703214 -10 -53 13 2 -5 1 -4 -28
1532257041725155 6 -25 -7 0 1 -2 -5 30
1532257041746099 -18 3 -4 -3 -1 -5 0 18
1532257041784995 -22 26 0 2 0 0 1 -36
1532257041822894 27 -9 -8 -7 0 0 19 31
1532257041942574 -3 11 -8 -2 -1 -6 -24 -44
1532257041979475 21 -6 4 4 6 2 6 14
1532257042039315 60 69 16 11 6 -9 6 35
1532257042063250 -74 40 21 14 11 38 40 5
1532257042099155 36 44 -6 -6 -5 -38 -31 9
1532257042182930 -22 -14 -16 -1 -3 -25 -23 -10
1532257042205869 -31 0 -8 -9 -4 -1 11 -2
1532257042227829 -2 14 5 -7 -2 12 13 9
1532257042317570 11 7 8 8 8 6 17 2
1532257042363472 6 56 5 -5 -8 -27 -26 -4
1532257042385408 1 -28 -7 1 0 -14 -7 1
1532257042422310 -30 -31 -20 -6 -2 22 -11 -15
1532257042445248 -2 -41 -11 -2 -1 -11 3 6
1532257042459211 31 -17 -3 1 -1 11 10 11
1532257042489131 -76 -69 -6 -4 0 -11 -10 -26
1532257042507083 -3 50 -8 -4 8 -16 -27 -15
1532257042535009 -6 15 11 2 -1 2 -6 -17
1532257042579888 -32 -42 -12 -8 -10 15 24 6
1532257042596842 -11 -61 -2 7 4 4 -27 1
1532257042611803 -26 -13 10 9 -3 11 -10 -3
1532257042661670 -4 35 -8 -12 -15 -18 -11 17
1532257042707547 6 4 1 -2 0 -2 5 -38
1532257042729488 7 19 10 -7 -3 -13 -4 23
1532257042804288 20 -10 -3 5 7 -3 -1 -6
1532257042887067 3 -55 3 2 0 3 -3 -2
1532257042924966 5 65 5 -1 -3 6 -2 1
1532257042946907 -5 -82 -12 3 3 28 11 2
1532257043007744 -13 101 -39 3 3 -7 -5 1
1532257043104485 -1 23 68 -1 -4 -5 -5 -3
1532257043141387 0 51 -9 -6 -4 -1 1 0
1532257043164326 1 55 -63 -3 -1 -1 -1 0
1532257043202234 4 22 -2 4 0 0 -2 1
1532257043225163 -3 -34 -115 -4 -2 -2 0 -3
1532257043247104 -1 -5 28 3 -3 -7 -4 -3
1532257043262074 -18 -57 -16 -5 0 0 -2 -5
1532257043306944 3 7 8 -1 0 2 1 0
1532257043321904 9 -9 13 9 1 1 0 3
1532257043389723 0 0 -16 0 3 2 0 -1
1532257043427621 1 -5 -16 -12 -3 1 -2 -2
1532257043441584 0 -13 6 -4 0 1 1 1
1532257043464523 -4 -42 -27 -10 -3 -1 0 -2
1532257043487461 -5 0 23 -3 -4 -1 -2 -4
1532257043501433 8 6 2 18 4 1 1 1
1532257043524363 5 -1 -1 -5 -5 -5 -4 -1
1532257043547301 3 -1 24 3 4 0 -1 -1
1532257043570240 -1 6 18 -9 -2 -3 -1 -1
1532257043585200 -3 -7 11 3 -1 1 2 0
1532257043607141 -10 -25 0 -5 -1 0 1 0
1532257043631077 10 -16 -33 15 11 3 2 5
1532257043646037 -10 19 -56 -8 -4 -9 -4 10
1532257043681941 -24 4 4 -2 -13 -42 -14 -101
1532257043712859 -2 12 1 -14 -18 -36 -13 14
1532257043726828 24 9 24 8 12 36 20 15
1532257043750757 -5 -2 19 -3 4 7 3 17
1532257043764720 -8 -5 -15 11 5 2 0 3
1532257043810597 -5 -8 31 21 5 1 -3 3

1532257043847498 -3 -3 2 -4 1 24 -3 -4
1532257043870438 -9 11 -2 -4 -6 -12 -1 -37
1532257043885397 1 5 -14 -5 -7 0 -4 8
1532257043907338 0 -1 13 -9 -5 -1 -2 6
1532257043930277 2 6 6 5 -1 -5 0 3
1532257043945237 -2 9 16 12 3 -14 1 5
1532257044005077 -3 8 12 0 0 6 -1 0
1532257044027019 1 16 12 -1 0 4 1 2
1532257044064917 12 -9 -4 -2 -1 14 5 6
1532257044124769 0 -42 -17 -2 -1 -1 1 1
1532257044147702 -1 1 -2 -4 0 -9 -1 0
1532257044192582 -3 51 20 3 3 -6 -1 -1
1532257044253419 0 11 5 -1 1 -6 3 1
1532257044267382 -1 14 23 1 0 0 0 1
1532257044374118 2 -5 -5 1 0 6 -1 -2
1532257044387083 1 -8 -10 -4 -3 -4 1 0
1532257044410022 -5 -10 -9 2 2 4 0 1
1532257044423985 1 -5 1 -1 0 -6 -3 1
1532257044446923 -3 8 0 -4 -3 -1 -2 -3
1532257044470859 -3 1 -3 0 2 1 -1 -2
1532257044492801 -2 6 8 1 -1 4 -1 -3
1532257044506763 -1 -17 4 -1 0 20 1 -1
1532257044537680 5 1 -5 -4 -1 -2 -1 1
1532257044582561 -3 0 -2 3 2 -1 1 -1
1532257044613484 0 -8 -2 -1 -2 -3 0 -1
1532257044658358 0 -21 -26 -2 1 7 4 1
1532257044673318 1 -9 1 -2 0 11 0 1
1532257044710219 -2 3 -2 2 -1 -4 -1 1
1532257044733157 -1 -1 9 0 0 0 -2 -1
1532257044773051 4 2 5 -2 1 -4 0 1
1532257044793995 -5 -27 -4 14 -1 -1 0 -2
1532257044822921 1 -8 59 4 -1 -4 0 2
1532257044873782 0 -9 -43 -1 2 12 5 3
1532257044891734 -1 60 3 -1 -2 -7 1 6
1532257044934619 0 16 -2 -4 -7 55 -12 14
1532257044952575 5 4 6 4 13 58 14 -6
1532257044988475 -1 -52 3 2 3 -23 -4 -7
1532257044995460 -6 -17 -8 0 -4 -94 2 31
1532257045012411 -20 -32 -2 3 2 -28 6 2
1532257045050309 1 9 11 -1 3 11 -9 -10
1532257045070257 4 26 -86 1 -1 -5 -4 -12
1532257045076241 -3 23 76 6 1 23 2 -14
1532257045115136 -4 -15 49 2 5 -3 1 -2
1532257045153035 2 7 -33 -8 -5 -2 -3 -4
1532257045167012 -2 -5 23 -1 -2 -2 -1 -7
1532257045190934 2 3 1 1 -1 6 0 -1
1532257045235814 0 29 15 -3 0 3 0 -5
1532257045249792 -3 9 -4 -3 -1 -7 -5 -4
1532257045280693 -2 16 15 2 0 -5 -1 -9
1532257045309616 3 11 1 -3 -1 -4 0 3
1532257045332555 0 7 1 -1 0 -1 -1 -1
1532257045355494 0 -16 -5 -1 -3 -1 1 2
1532257045393392 -1 7 7 -1 0 0 1 1
1532257045429296 1 21 -4 0 0 0 -1 0
1532257045453232 7 -5 1 -1 0 -2 0 0
1532257045475174 -1 -27 -5 1 -1 -1 0 1
1532257045490134 -3 -25 0 1 0 -1 0 -3
1532257045513072 -6 -7 8 12 4 1 0 -1
1532257045535016 -1 7 -3 -4 0 0 -2 -2
1532257045565931 -6 -24 -2 1 2 4 -1 -3
1532257045587886 1 7 0 -1 -1 0 -1 1
1532257045602832 2 -1 -11 1 -1 0 2 0
1532257045647712 -1 -2 -2 5 -1 2 -2 -1
1532257045654694 -3 -10 -9 -3 0 0 0 -1
1532257045692592 0 4 0 -7 -6 -2 -1 0
1532257045715530 1 -31 12 -13 1 -1 0 0
1532257045753430 4 33 13 -7 -3 -2 0 0
1532257045775371 3 11 -4 10 -2 -1 -1 -1
1532257045813270 -7 6 -1 20 6 2 1 -1
1532257045864138 -1 -18 0 7 1 1 -2 -1
1532257045911009 2 12 14 4 1 1 0 -1
1532257045940928 1 -5 5 0 -3 -2 0 2
1532257045970847 -4 -31 -7 6 4 1 0 -1
1532257046015728 1 15 5 -2 0 0 0 0
1532257046028694 -2 16 10 0 -2 -2 -1 0
1532257046120448 15 5 -18 -1 -2 -1 -1 0
1532257046158347 10 -25 -1 -2 -1 -4 -3 -10
1532257046194251 -8 81 41 1 -1 -4 -2 1
1532257046209211 -1 17 -33 -2 1 1 0 2
1532257046239131 7 -20 -57 -14 -2 0 -2 -5
1532257046257083 -7 -11 20 -6 0 -1 0 -5
1532257046299971 22 13 104 3 4 1 -2 2
1532257046351830 -1 0 45 -2 -1 -1 0 10
1532257046475499 -8 19 109 15 2 -7 0 -6
1532257046482480 15 -24 -113 -5 3 35 -2 42
1532257046528358 22 -31 21 5 5 -18 4 -22
1532257046542330 4 45 35 1 -3 -17 15 73
1532257046615126 10 40 -128 -6 -4 -30 -10 -85
1532257046667985 23 18 -74 12 -6 -45 33 80
1532257046720843 3 -39 31 6 0 3 -3 19
1532257046782683 6 15 -33 4 3 12 8 -3
1532257046817584 -5 16 -20 -13 -8 -3 -5 -11
1532257046862463 -4 9 32 -8 -8 -4 -2 -4
1532257046891387 -2 9 24 -8 -4 -3 -1 -2
1532257046914325 12 -4 -10 1 3 2 0 3
1532257046951229 5 -12 4 6 2 0 6 0
1532257046983141 -12 -21 -33 -22 -4 -7 -3 -8
1532257047012063 9 9 -9 1 3 0 -6 3
1532257047056944 -9 -8 -19 -2 -1 -1 1 0
1532257047096838 5 21 2 -4 -1 -1 -7 0
1532257047131744 1 -12 -11 -3 0 4 -16 -2
1532257047162661 -6 -10 -17 2 -2 0 10 -2
1532257047200560 -10 -15 -21 -5 -2 -11 -58 9
1532257047237461 5 14 11 0 -1 -3 14 -6
1532257047285334 -3 0 -16 -1 1 -3 -17 15
1532257047306278 -4 -11 -13 3 1 -12 -11 -18
1532257047335218 -11 -24 17 3 1 14 17 22
1532257047403018 -11 -10 9 -2 -1 1 -2 -3
1532257047440917 18 28 -5 -8 -3 4 8 33
1532257047454880 -7 -3 1 -2 -3 -1 6 -23
1532257047461861 79 21 -13 -15 -3 2 -2 7
1532257047479813 28 72 10 4 -1 -3 -9 7
1532257047513722 -44 -31 -13 -9 -8 -7 -3 -28
1532257047522698 -45 21 27 -3 -1 2 -2 -14
1532257047539654 -20 36 -7 -2 1 9 -2 -43
1532257047562603 -17 22 23 5 -3 -4 -6 16
1532257047590523 -40 -52 1 -7 0 5 2 -11
1532257047619456 6 -29 19 3 4 -6 -7 -14
1532257047628416 -10 -44 -7 2 1 -1 -4 13
1532257047643376 28 52 -7 -1 2 2 16 17
1532257047659333 15 16 5 -8 -6 -6 -10 -5
1532257047695237 -20 19 13 12 2 4 19 6
1532257047740116 4 -21 13 -2 -4 31 13 17
1532257047755077 3 24 22 4 3 -12 -8 -3
1532257047799957 -1 6 56 5 0 -2 -3 10
1532257047815914 -31 22 -114 -8 -2 -5 -9 -6
1532257047837870 3 -9 -70 4 4 -3 8 4
1532257047860794 4 37 19 -7 -2 -12 20 -3
1532257047882735 7 -36 80 2 0 0 1 2
1532257047897695 -2 13 84 0 -2 2 -2 -10
1532257047933600 -11 -8 -26 -7 -5 39 -34 -13
1532257047957536 8 16 -14 0 -3 -14 18 -3
1532257047994437 6 11 -44 -7 -3 -1 79 16
1532257048018374 -3 -9 -48 2 0 3 -53 -9
1532257048054277 4 12 -47 2 1 -2 -29 0
1532257048077216 2 -17 25 -1 -1 -5 22 -8
1532257048114117 6 9 14 8 4 -2 -12 7
1532257048167976 5 18 -11 0 2 1 -38 -11
1532257048182933 5 24 6 -10 -6 -5 -34 -1
1532257048242773 6 -9 -34 2 3 0 3 2
1532257048280671 -12 -10 31 0 -3 -7 -27 -7
1532257048355472 16 26 68 -2 -1 -3 -17 10
1532257048483129 7 12 -19 -2 1 -1 -36 -5
1532257048497096 12 -3 -25 4 0 0 12 2
1532257048520032 6 27 -75 -4 -5 -5 5 2
1532257048564929 -39 -16 31 6 0 2 31 0
1532257048580869 12 35 5 -5 -1 1 15 3
1532257048610789 -11 19 -8 11 5 3 1 2
1532257048632730 16 1 3 -1 2 -2 -32 5
1532257048640709 2 -18 -4 -7 -2 4 -9 11
1532257048680602 9 28 26 4 1 0 -23 23
1532257048715510 3 28 -51 2 -3 -2 3 -1
1532257048760389 6 20 64 3 0 0 35 33
1532257048843167 -8 -5 42 -2 -2 -1 1 -10
1532257048932927 0 24 83 0 -3 -1 3 -1
1532257049036650 -2 -7 -26 3 -1 2 22 0
1532257049059589 -7 -25 -43 2 0 1 17 -1
1532257049165306 0 5 45 1 1 -5 17 -1
1532257049210186 -6 -2 -3 -1 1 0 -43 -5
1532257049249082 -8 -7 -4 -2 1 0 -5 0
1532257049256063 -1 20 0 0 3 2 15 -3
1532257049367780 3 25 4 0 0 0 -2 -2
1532257049418628 -1 11 3 0 -1 -2 0 -2
1532257049479466 -1 -8 9 39 5 0 0 -2
1532257049540313 0 16 1 -6 -2 0 -1 0
1532257049562245 -3 -6 -5 -11 1 1 -3 -3
1532257049666964 1 18 13 11 3 -1 -2 1
1532257049930260 10 -6 -10 -8 -1 -3 -1 2
1532257050020020 -16 10 7 2 2 -6 2 44
1532257050086841 -25 52 2 -2 -2 -5 -22 -48
1532257050113769 -31 11 13 11 9 7 13 32
1532257050170618 -21 8 2 2 1 -7 4 -22
1532257050222479 58 98 14 1 -6 -5 -5 4
1532257050244431 -5 6 -27 -10 0 7 -41 -25
1532257050320218 -76 18 -28 -11 -11 -13 -5 -29
1532257050344153 16 1 24 3 0 0 15 15
1532257050365098 -12 24 -9 4 5 6 -29 4
1532257050388036 -6 -1 35 12 2 1 9 -111
1532257050432916 -10 -40 9 -16 -4 13 34 -3
1532257050448879 9 -27 19 -2 -1 2 26 36
1532257050461839 15 0 5 -4 -5 -5 25 0
1532257050522676 29 -56 -2 -3 -2 4 -15 33
1532257050544617 12 58 -5 -18 -16 -41 7 7
1532257050597476 29 33 -12 -19 -10 -35 -24 -8
1532257050664297 36 -39 -20 -1 -5 -11 -18 11
1532257050702197 -35 -16 -3 2 9 25 15 30
1532257050762036 -19 -7 -17 -28 -13 29 53 11
1532257050807913 3 16 -2 9 -4 -6 -37 -44
1532257050935572 -15 -104 59 1 -4 -7 5 0
1532257051061236 3 -21 -3 2 -2 -1 0 4
1532257051108111 5 12 12 2 -3 -2 1 -1
1532257051152991 -8 5 -113 -9 -3 -3 -5 -6
1532257051257710 -1 20 10 -1 3 -2 1 2
1532257051324532 -7 -3 -61 16 3 3 0 -2
1532257051348478 4 3 23 -6 -4 2 -1 0
1532257051489092 -12 3 -17 -1 -1 -3 -1 1
1532257051563892 -18 -17 -12 -4 -1 2 -1 -12
1532257051610766 2 -15 13 -4 -5 51 63 1
1532257051670606 13 -32 -3 -7 4 29 11 28
1532257051707513 4 30 127 19 -6 -17 -10 -5
1532257051744410 3 -19 -18 -20 -7 -20 -8 -5

1532257051804249 -7 8 22 8 2 17 -9 -8
1532257051828185 0 -20 6 3 1 -14 4 20
1532257051850126 0 15 -8 3 0 -6 -2 -4
1532257051887028 -1 17 15 4 -2 -3 1 -6
1532257052029646 -2 10 3 1 1 2 2 -1
1532257052074526 6 16 12 -2 -2 -3 -4 -3
1532257052092478 -6 -28 -32 -4 0 -1 1 -2
1532257052114420 -4 -4 2 1 2 0 1 1
1532257052134366 -6 11 13 6 0 0 1 2
1532257052152319 1 -4 -1 -2 -2 0 -2 1
1532257052218159 7 -7 2 2 1 -2 1 4
1532257052234100 -4 -2 3 -1 -1 1 2 5
1532257052262025 -3 -8 -10 1 0 0 1 1
1532257052300921 3 9 -2 -1 -1 1 0 1
1532257052314884 6 -8 -2 0 -1 1 -3 1
1532257052345801 -7 -7 0 1 -2 0 -2 -4
1532257052373726 -3 -10 17 0 1 -2 -1 -3
1532257052412623 -3 21 14 3 3 -2 0 2
1532257052426585 -4 2 -5 0 1 0 0 -1
1532257052535348 6 -16 -7 2 2 0 0 -1
1532257052578233 0 12 5 0 -3 0 0 -2
1532257052606159 0 -5 -4 -1 -3 -2 -3 -4
1532257052630095 -3 -3 0 0 1 -3 -2 -3
1532257052653033 -5 5 2 -3 -2 -1 -3 0
1532257052675972 1 1 2 -1 0 -2 1 -1
1532257052691930 1 9 0 -2 -1 -2 1 -1
1532257052714868 -3 1 -3 1 -2 0 0 -2
1532257052750772 1 -1 28 2 -2 -1 -2 2
1532257052780692 -5 -40 9 -7 -3 0 -1 0
1532257052825587 -11 -26 -23 -9 -2 -1 0 -3
1532257052863471 10 10 47 1 -5 -2 -6 7
1532257052893390 7 41 12 -1 0 45 -6 26
1532257052906356 -7 -69 5 -5 -19 -32 18 -7
1532257052936276 -3 -63 -23 6 10 27 20 1
1532257052990132 -3 -47 -101 -19 1 -3 3 -4
1532257053049972 -2 36 39 2 0 6 1 0
1532257053117791 -1 -3 -1 1 -2 -6 -2 0
1532257053155689 -3 -8 -22 -4 -1 -5 -1 -2
1532257053192590 1 32 8 1 3 5 1 -17
1532257053215529 0 -6 -53 -1 0 -10 1 -4
1532257053260418 5 25 10 0 -2 -3 1 1
1532257053289332 4 6 11 -2 0 0 -2 3
1532257053335223 0 12 10 -2 -2 1 -1 2
1532257053373107 1 8 15 0 -1 -1 -1 1
1532257053455886 -2 -4 -10 3 0 -1 0 -1
1532257053515726 -2 11 0 -14 -9 -3 -1 -2
1532257053575575 -6 -14 2 7 3 2 -1 -4
1532257053628433 0 28 -9 19 11 2 1 0
1532257053755086 6 23 83 17 7 3 2 0
1532257053936601 2 -30 -128 -1 0 -2 0 2
1532257054032345 -7 3 68 7 7 25 -1 -23
1532257054092184 -2 -22 -71 -9 -2 -6 -3 -5
1532257054137065 -3 14 73 9 2 8 -2 0
1532257054191918 -10 -7 -78 -6 -1 3 -1 -2
1532257054423299 3 82 58 2 7 51 1 -16
1532257054484155 6 -14 48 -2 -4 -55 12 10
1532257054542980 -3 -50 -96 -5 1 26 3 -1
1532257054549961 11 16 22 -1 -2 -13 -5 21
1532257054588857 0 6 4 2 0 -2 2 -1
1532257054608803 -2 -3 -1 -6 -3 -5 -2 -2
1532257054640718 22 16 37 13 4 -1 -1 6
1532257054656675 -10 -14 -16 14 3 -3 -13 -8
1532257054684604 18 10 -17 -4 0 0 2 5
1532257054702553 -12 -10 0 -9 -9 -8 -2 -6
1532257054739454 0 -20 -25 -9 2 1 0 0
1532257054797299 9 1 -4 5 -1 -1 -3 1
1532257054851170 -10 -4 7 -17 -5 -1 11 -6
1532257054905012 30 13 3 4 2 -13 -6 13
1532257054926953 26 3 37 2 -4 3 24 80
1532257054948894 26 -33 17 4 -1 -11 -7 11
1532257054978814 75 9 -23 -3 1 -7 -1 20
1532257055009731 1 -26 11 -1 2 1 2 -35
1532257055045635 20 46 -20 -5 1 19 21 -27
1532257055100506 -71 -40 -10 -1 -6 -15 -10 25
1532257055104478 -5 -30 -4 1 3 9 14 45
1532257055143374 -38 42 -6 -1 0 -1 3 -5
1532257055180275 -18 -12 -2 -12 -8 -1 -38 -29
1532257055240115 19 -27 16 13 10 1 20 -25
1532257055315912 -13 -12 8 6 0 -6 -14 -28
1532257055338851 10 2 -1 -8 -7 6 18 6
1532257055398698 4 -20 -3 -2 -3 1 -13 4
1532257055420632 -18 10 -20 -4 1 2 5 1
1532257055434597 13 -23 -14 2 2 4 3 0
1532257055494435 5 19 4 -5 -4 2 4 8
1532257055547294 1 9 6 -1 -3 -5 -6 0
1532257055593171 -7 -22 -44 -3 -1 1 -29 -1
1532257055659993 -1 -5 2 1 -1 -4 33 -4
1532257055780670 2 16 52 -4 -2 1 -5 -1
1532257055870429 -1 -4 8 5 3 15 -4 -3
1532257055947224 -6 -7 -26 -8 -5 -20 -50 -8
1532257056065907 8 12 -14 6 4 11 19 -11
1532257056231465 -13 5 7 -1 -1 -1 -6 -11
1532257056358125 6 4 22 0 -3 2 17 -5
1532257056536648 -11 -17 8 1 -4 3 -14 -1
1532257056582526 16 13 6 14 1 -8 -12 -3
1532257056621436 4 -1 -22 -3 4 4 -16 3
1532257056644360 -2 25 19 2 4 -1 4 -1
1532257056657325 5 11 20 3 -2 -2 -10 1
1532257056712178 3 3 13 0 -2 3 0 0
1532257056830861 -16 2 65 -3 2 28 -10 -36
1532257056950541 9 -6 0 4 -3 2 88 -1
1532257056966498 2 11 -1 -4 -2 -1 -34 2
1532257057027337 3 16 18 -3 -2 -7 -43 -2
1532257057085188 13 19 46 1 3 0 7 5
1532257057153000 6 -6 1 19 7 4 19 -1
1532257057243757 -4 -7 -6 -11 -8 -2 3 0
1532257057289634 -1 -12 -7 -1 -3 -2 -2 1
1532257057304594 1 -1 -1 -1 0 -3 -5 0
1532257057354461 -7 -16 -9 -3 -2 0 1 1
1532257057385379 1 63 1 -2 -1 -1 1 2
1532257057445219 3 15 7 3 -1 1 0 1
1532257057482120 10 24 3 -5 -1 -3 -1 3
1532257057541960 -2 -14 3 0 -2 -1 1 0
1532257057707517 -3 13 -10 12 3 0 2 -1
1532257057760376 3 0 0 5 2 2 1 1
1532257057822210 -2 -21 1 0 -1 -1 -3 -1
1532257057895016 0 8 4 5 0 -1 0 6
1532257057947889 -1 -8 -3 -6 -4 -4 -4 -2
1532257058045613 11 2 -2 -1 0 3 0 4
1532257058067563 -49 -17 -2 -6 -4 -3 -15 -26
1532257058112434 47 18 3 0 0 -6 -2 21
1532257058150333 -10 24 -17 -13 -3 -1 -3 -11
1532257058225133 15 11 0 2 2 3 -6 -38
1532257058248072 12 22 -2 -7 0 -9 -4 -4
1532257058307912 24 -3 7 9 6 -7 0 18
1532257058322872 -58 13 87 3 -2 -3 -2 -7
1532257058367752 10 28 -11 -5 -2 -3 -9 -21
1532257058405666 -29 -28 -9 -6 -5 -1 7 0
1532257058450530 -5 24 -28 0 2 2 -6 2
1532257058488429 -5 30 0 -3 -1 -2 3 5
1532257058510370 43 6 -7 1 1 3 -3 10
1532257058548269 27 3 25 -9 -1 -6 -3 23
1532257058609106 -33 -7 -10 0 -5 -24 -29 -14
1532257058622072 36 -27 -10 1 -1 -5 5 5
1532257058653986 14 25 4 0 4 17 11 17
1532257058713826 -12 -28 -17 -8 -2 0 4 17
1532257058810567 24 -24 -4 -8 3 14 13 17
1532257058870407 22 -9 -4 -7 -2 -3 29 7
1532257058999064 -1 13 10 1 5 24 12 0
1532257059050925 0 6 -41 0 2 7 -1 3
1532257059110765 -6 17 -11 1 1 5 -4 1
1532257059134701 3 27 14 -1 -3 -5 1 2
1532257059200524 1 -27 22 3 -2 -3 -3 -1
1532257059207506 3 -51 23 0 -2 -3 0 1
1532257059230445 -3 -13 58 3 1 0 1 0
1532257059253383 0 13 28 2 -2 -2 0 0
1532257059304247 -1 17 -62 4 1 -1 0 -1
1532257059328183 3 26 34 -1 -1 -2 -1 2
1532257059350125 2 -14 31 0 -3 -1 -1 1
1532257059364087 -1 -12 21 -3 2 0 1 0
1532257059409965 2 34 61 4 0 0 0 2
1532257059432904 -2 16 29 1 0 4 1 1
1532257059477795 6 15 9 -8 0 -2 -2 -1
1532257059507703 -2 5 -27 -15 -7 -4 -2 -1
1532257059543607 0 0 -39 -5 -1 1 -2 1
1532257059574525 -2 -31 -10 5 -1 3 2 0
1532257059592477 -2 20 2 -10 -2 -2 0 3
1532257059627383 -1 0 0 5 2 1 -1 0
1532257059673260 -3 -4 3 -3 -1 1 0 1
1532257059710162 -5 -19 3 0 2 0 1 -4
1532257059755042 -2 13 66 -4 -1 0 -2 1
1532257059815879 5 18 32 0 1 -1 1 -7
1532257059852780 28 -70 -8 4 -1 -7 12 68
1532257059912621 3 -2 -17 57 24 9 -3 -10
1532257059935559 6 38 -53 -23 -5 1 4 17
1532257059973465 7 38 102 2 -9 -7 -2 -3

1532257059986426 5 -5 33 -10 -1 -2 5 15
1532257060032300 -5 8 -23 -8 -1 -3 -2 2
1532257060056237 -2 -24 -5 -4 2 -3 0 -11
1532257060093138 3 28 0 0 -2 -1 0 0
1532257060152978 0 2 -5 -3 0 2 -1 -8
1532257060212818 -1 -5 6 -2 -4 1 -1 -3
1532257060226780 1 7 5 -3 -1 5 -2 1
1532257060272658 6 -1 -3 0 -3 -4 0 -2
1532257060303576 1 -8 -8 -2 0 -1 0 5
1532257060370396 -4 -10 9 -2 -2 0 2 12
1532257060557895 -13 -18 -19 -2 -1 -11 -1 -26
1532257060603772 1 17 -8 -2 -4 -6 4 5
1532257060753372 -1 -38 26 8 1 -10 -1 -4
1532257060789276 -2 -2 -24 -1 0 1 -4 -5
1532257060955831 -1 9 0 8 0 -2 -1 0
1532257060992732 -3 5 -25 5 2 0 -2 -2
1532257061029634 1 -3 15 10 1 0 -2 1
1532257061075511 0 -5 -13 -10 -1 0 0 -1
1532257061113409 -3 -28 -6 -3 -6 -6 1 0
1532257061233089 5 20 26 -7 -2 1 -1 6
1532257061328833 1 14 4 2 -2 -1 1 1
1532257061434551 -7 2 20 -4 0 2 -2 1
1532257061518327 2 -4 -4 -29 0 -1 0 0
1532257061578166 0 0 31 35 15 3 0 3
1532257061638006 0 -4 -44 -2 -3 -2 -1 -2
1532257061651969 0 -9 -10 -9 7 4 0 1
1532257061675905 -1 -16 -15 -31 -6 -2 -3 -2
1532257061720785 -1 0 -13 -1 5 1 0 -1
1532257061734749 -1 6 18 -11 -5 -2 1 1
1532257061765665 -1 -9 -15 4 2 1 0 0
1532257061788604 2 15 13 -3 -4 -4 0 6
1532257061817527 -7 -31 -65 -15 -7 -7 0 0
1532257061863404 7 19 -31 2 -2 -4 0 -1
1532257061885345 -6 -66 -88 -2 -2 -13 -1 5
1532257061915265 7 53 28 3 -4 2 7 30
1532257061952167 6 35 34 4 5 -6 -3 -6
1532257061975105 -3 10 -2 1 -5 -25 11 4
1532257062051900 -3 36 67 5 -1 16 -1 -1
1532257062059879 23 16 47 -3 0 7 2 30
1532257062095783 3 -46 -14 5 2 35 5 -14
1532257062155622 -13 35 -1 -4 -12 -2 1 51
1532257062177563 3 24 62 -2 -1 -1 0 -24
1532257062199505 9 15 1 9 9 -6 3 -13
1532257062282284 -17 15 17 2 6 0 7 -12
1532257062300236 12 23 -47 -2 0 3 -3 10
1532257062358081 3 2 62 -10 -4 -10 -3 17
1532257062372043 2 -1 -128 -14 1 27 14 27
1532257062454822 -1 17 40 -1 -3 -7 -6 -11
1532257062485740 0 -34 -9 -5 0 2 -1 6
1532257062538601 -3 -15 -10 -13 -9 -6 -4 -13
1532257062556551 -11 -9 0 -2 -1 0 2 -5
1532257062574502 -23 0 -10 -13 -5 -4 -9 -4
1532257062589462 -1 4 -2 0 2 0 -2 -3
1532257062622375 -13 -13 16 13 -1 0 -1 -2
1532257062643319 4 -26 -26 -6 -5 -1 5 4
1532257062680220 -10 -7 -7 0 -7 -6 -10 -5
1532257062703159 7 8 4 -5 0 -3 -1 -6
1532257062740059 -12 -11 -21 -6 -2 -2 -9 -7
1532257062763010 10 -7 2 -3 -2 1 14 -1
1532257062792918 12 -7 -13 -9 -1 -2 -6 -5
1532257062830817 -1 -22 -27 -3 -2 1 8 8
1532257062861734 -26 -39 -42 -16 -5 -2 -4 11
1532257062882678 21 41 20 8 4 11 22 -15
1532257062919580 9 6 -14 -3 -5 -6 -7 -67
1532257062942518 10 -17 2 0 -2 -1 12 52
1532257062988395 -23 -19 -11 -6 -2 -5 -3 -3
1532257063017318 -45 -33 -17 -9 -11 -9 12 -61
1532257063062198 90 36 16 7 9 19 18 24
1532257063087132 -53 -21 -9 -3 -3 -7 -9 16
1532257063167929 32 -45 -4 1 0 -4 0 44
1532257063182876 -5 36 20 10 4 7 -1 -6
1532257063219777 -14 -14 7 7 4 5 10 1
1532257063242715 -12 3 7 2 2 0 -1 17
1532257063279617 2 29 4 0 -2 -3 5 -7
1532257063302556 -11 -5 -12 -5 -3 0 -2 -10
1532257063387345 -15 -5 0 -2 0 -2 -4 -4
1532257063408273 -49 -59 -3 0 0 -2 -2 -17
1532257063490055 -25 56 -1 -1 1 2 -2 -8
1532257063556875 0 5 -14 0 -1 -3 2 0
1532257063579814 -10 10 16 -3 -3 -9 -5 1
1532257063617712 13 -1 10 -1 0 1 -10 1
1532257063664587 9 -2 7 0 1 3 -22 20
1532257063677553 10 11 26 1 3 -6 4 -3
1532257063723430 2 -5 -40 5 3 1 -27 -9
1532257063745371 2 -8 13 -1 -2 10 31 5
1532257063797233 5 -6 -24 -5 -2 -1 -6 3
1532257063820171 0 20 50 1 -5 -9 -19 -9
1532257063857073 1 2 60 -6 2 0 -27 -1
1532257063910928 0 -4 24 -8 -6 -1 -5 -1
1532257063962790 1 0 -18 -4 -3 -1 1 -1
1532257064024634 -6 -10 18 4 -1 -5 34 -5
1532257064540246 -2 -2 2 -11 -3 3 58 4
1532257064946160 2 7 6 1 -3 1 47 -3
1532257064997023 0 -4 -13 -4 -5 -11 16 -6
1532257065199483 -6 10 7 -9 -6 -1 5 2
1532257065245360 -4 -5 -7 4 -1 -4 -9 -4
1532257065296224 6 6 14 -4 3 2 9 6
1532257065688176 2 17 -12 6 3 -1 1 0
1532257065701175 -1 24 5 -8 -3 -2 -1 -1
1532257065761979 0 -3 22 20 8 3 4 -1
1532257065822816 4 -15 3 3 -2 -1 -3 -1
1532257065905595 1 -3 -1 -1 -5 -1 -2 -1
1532257066048213 5 7 2 0 -4 -4 -2 6
1532257066227733 14 -65 -14 4 3 -2 13 -25
1532257066241696 17 -13 -14 -5 -5 -13 -6 29
1532257066310512 -25 -32 2 -1 -3 -3 1 -12
1532257066324474 34 20 11 -1 0 9 0 15
1532257066370352 -29 34 -15 5 -1 -8 -7 -26
1532257066415232 0 9 7 -2 0 10 11 31
1532257066527930 -7 39 -12 -5 -4 -5 -5 20
1532257066564832 -8 -62 0 0 -1 -3 -8 -14
1532257066587770 -7 -63 -32 -2 2 8 6 -5
1532257066623675 8 -10 10 3 4 6 -2 -11
1532257066670549 -22 -8 10 4 1 6 7 -19
1532257066684512 -24 -4 -7 -2 0 9 8 -21
1532257066754326 13 0 6 5 2 -5 4 7
1532257066783248 29 38 6 -2 -9 -1 -15 -25
1532257066821147 -12 -32 3 5 6 7 -6 -36
1532257066858049 -49 -15 -3 3 2 29 3 -14
1532257066893952 -42 -49 19 4 0 8 38 6
1532257066923871 -38 18 -5 -1 -5 -23 -21 -18
1532257066970746 72 89 47 20 8 -38 50 102
1532257067090426 30 15 0 -8 0 3 -6 66
1532257067151265 16 -53 -22 1 -4 -4 -35 -20
1532257067375664 3 57 1 -1 1 17 4 -2
1532257067517285 6 -16 -55 3 1 1 0 2
1532257067557180 4 -17 2 4 -2 -1 -2 2
1532257067593082 1 -5 25 3 3 3 1 -1
1532257067629983 4 25 73 -1 -4 -1 0 1
1532257067735701 -5 -25 -6 -7 -3 -2 -2 -4
1532257067795541 11 -1 -20 -1 0 -1 -1 1
1532257067870341 -6 25 5 -11 -2 1 -1 1
1532257067990021 -3 6 2 -3 -1 0 -2 -6
1532257068102719 1 7 -23 -8 -4 -8 5 -28

1532257068253317 13 -16 19 -6 -5 -5 2 20
1532257068290218 -1 5 10 1 0 6 1 -3
1532257068387956 3 -3 0 -2 -2 2 -3 -1
1532257068462757 3 -15 -2 -1 0 2 0 1
1532257068536559 1 3 2 -1 0 2 2 3
1532257068673194 -1 -2 -11 1 -1 0 -1 -1
1532257068740015 2 25 23 -1 -3 -4 -2 -2
1532257068755973 -5 -1 -3 -1 1 0 -2 0
1532257068828778 -5 -3 10 1 0 0 -3 -5
1532257069115060 1 9 12 -1 0 -1 -1 -1
1532257069167918 -6 -5 5 2 3 1 -2 -4
1532257069183875 5 11 4 -1 -3 -1 -1 1
1532257069256681 -1 -5 -8 -1 -1 0 0 -1
1532257069295577 -7 26 12 0 1 -4 0 0
1532257069378355 2 10 11 0 -1 -1 -1 -2
1532257069400297 3 4 -1 1 -2 1 0 -1
1532257069452159 1 1 0 -3 -1 -5 -2 1
1532257069490057 1 3 15 2 -2 1 -1 1
1532257069572847 1 -17 4 -2 -1 -1 1 1
1532257069677555 -2 9 0 -8 -4 -3 -2 0
1532257069724430 0 11 4 1 -1 -2 0 -2
1532257069754350 -2 2 -11 1 -2 -12 -2 -2
1532257069807209 3 10 7 -2 -2 3 -1 0
1532257069822187 -3 2 -2 1 -1 -1 0 -2
1532257069850094 -5 -12 -7 1 0 2 1 -3
1532257069964787 0 12 -28 0 1 -11 0 -1
1532257070024631 2 -1 36 -1 -2 -5 -1 0
1532257070127353 4 -20 -2 5 7 -34 19 10
1532257070157272 -3 53 3 -1 6 42 -1 12
1532257070195171 1 -6 19 1 0 -35 -3 -8
1532257070217112 -5 -14 -48 -4 0 -21 -1 3
1532257070249028 -3 16 -18 -2 -1 -5 5 -1
1532257070295902 -3 -14 0 -8 -1 -8 0 -5
1532257070397630 -6 -22 -4 -3 -2 3 0 0
1532257070434544 1 -2 19 1 0 -3 -1 -2
1532257070457470 -1 3 8 0 1 0 0 -2
1532257070481406 -2 -2 -3 -8 -4 -2 -1 0
1532257070503353 0 -3 -10 0 -2 -1 0 -1
1532257070548244 0 4 6 -1 0 1 -2 0
1532257070577150 2 4 -3 1 3 2 1 0
1532257070608067 -2 0 -11 -6 -2 -2 -2 1
1532257070638985 -3 -10 12 2 0 1 1 1
1532257070660925 -1 3 -18 -5 3 1 -1 -1
1532257070682867 -1 14 -7 -3 -3 -1 -1 -1
1532257070696829 -3 3 33 12 5 1 1 -3
1532257070719768 -2 -1 26 -13 -4 -4 -3 -1
1532257070733731 2 23 13 -10 -4 -1 0 -1
1532257070779608 -1 -6 -16 -3 -1 2 -1 -1
1532257070794568 -5 -12 -44 -3 -8 -4 -2 -1
1532257070825486 6 12 -16 2 2 0 1 2
1532257070877346 0 27 34 7 2 1 -1 -2
1532257070901283 -1 -4 75 8 -1 -1 0 -1
1532257070937187 -3 -16 -15 -5 3 -1 1 -1
1532257070974088 2 45 34 -5 -2 -1 1 0
1532257070997029 0 -9 -19 -2 -2 -2 -4 -4
1532257071027952 -2 -12 31 6 1 -20 -9 -2
1532257071042904 12 -2 -13 3 0 -7 -4 -10
1532257071110723 -12 -18 -73 2 1 11 5 -4
1532257071132664 -9 20 37 -2 -3 -1 -2 -10
1532257071155603 4 15 -35 1 2 -8 3 -2
1532257071193502 0 -3 8 -13 -7 3 1 26
1532257071200483 -1 -12 37 9 4 -26 -1 15
1532257071260323 -8 -16 38 1 0 8 1 -23
1532257071283262 4 -3 -20 -1 -1 8 -2 -4
1532257071320163 -18 5 -69 -22 -3 -9 1 -36
1532257071365042 7 -3 -65 1 -4 -28 -11 7
1532257071394963 -8 -36 10 2 1 5 5 -19
1532257071411921 -8 29 20 2 2 -7 4 -13
1532257071440840 18 3 -19 3 8 19 26 113
1532257071462781 12 17 98 0 -17 10 20 96
1532257071499683 15 3 -95 -5 -6 -12 -8 -17
1532257071545560 0 31 16 -2 -10 -4 -6 -19
1532257071575480 6 -12 76 6 0 -6 -1 -7
1532257071582461 2 11 106 4 9 19 1 18
1532257071597421 -2 -17 -27 -14 -5 -6 -4 -16
1532257071627342 9 9 -23 -1 -13 14 0 1
1532257071674217 9 18 40 5 3 -11 8 42
1532257071719096 -3 12 19 0 -6 -4 -2 -10
1532257071755000 3 -16 -4 2 0 1 -1 -6
1532257071786914 -7 4 2 -18 -6 -7 -1 -5
1532257071807858 11 30 37 12 -2 -2 1 4
1532257071859719 1 22 15 16 3 -1 -7 2
1532257071919560 6 5 -4 -2 -3 -1 10 -1
1532257072026274 -3 1 18 2 2 2 -23 9
1532257072072152 1 3 1 -7 -1 -1 -8 -7
1532257072144957 25 -24 -6 -4 5 -4 -23 -45
1532257072151939 -9 100 31 -11 -12 -10 12 17
1532257072205795 4 -40 -11 -26 -9 -1 -4 -24
1532257072235722 -23 36 -4 1 -2 0 -1 28
1532257072250674 -2 20 16 9 2 6 44 30
1532257072272616 45 50 20 22 5 4 1 13
1532257072348413 -7 3 -2 -15 -2 4 -26 -2
1532257072453134 12 -1 -6 -6 -1 0 7 0
1532257072556856 2 17 9 2 -3 -2 10 1
1532257072699474 -15 4 30 0 1 -4 18 -2
1532257072753330 6 12 -7 -1 1 6 -1 1
1532257072865032 5 8 14 3 1 -2 7 0
1532257072947817 -8 -6 5 1 -1 -11 -21 -15
1532257073022610 -2 -12 28 0 4 1 -3 -7
1532257073141304 0 8 8 -9 -2 5 0 7
1532257073225069 -10 -15 18 -15 -6 -1 38 -4
1532257073276930 -2 -5 -2 -7 -4 -4 -1 0
1532257073314829 -3 -9 -32 -8 -2 0 -5 1
1532257073330786 8 -11 -10 2 -1 -6 3 -4
1532257073375666 4 -14 -10 -1 -1 2 -2 3
1532257073412568 16 37 50 6 2 -2 30 10
1532257073441490 -5 5 -27 -3 -2 -2 -2 -7
1532257073525266 0 31 67 4 1 -4 0 -10
1532257073548205 7 -4 -4 -1 1 6 12 6
1532257073811512 0 8 12 4 -3 -5 -14 -3
1532257074004985 14 40 30 7 2 1 -19 11
1532257074027922 3 7 -2 -3 -4 -2 -20 -4
1532257074304183 -7 -55 2 -2 -2 -4 -2 -2
1532257074432839 1 1 3 6 -3 -3 0 0
1532257074470738 -11 -2 -4 2 4 3 0 -7
1532257074619341 10 1 0 -2 -1 -1 0 1
1532257074687159 1 7 1 -3 -1 -1 -4 -4
1532257074740018 -2 -33 -4 -2 -2 -4 -1 1
1532257074783900 6 -6 -5 -4 -3 -3 -3 4
1532257074792876 -11 -4 4 2 3 3 0 -1
1532257074813820 7 17 8 7 0 -1 3 8
1532257074852717 -26 -1 13 0 -4 -2 2 -25
1532257074867688 -3 -4 -4 0 1 1 0 1
1532257074950455 -6 5 1 0 -4 -3 2 8
1532257075018274 -25 43 -10 -3 1 6 -2 -13
1532257075093074 32 40 10 5 3 1 2 3
1532257075116013 17 -35 9 0 -3 -9 -1 41
1532257075152914 3 34 10 7 5 -1 -34 -29
1532257075226716 3 7 -21 -17 -10 -25 -3 12
1532257075273591 21 35 7 4 7 18 7 -14
1532257075286556 11 -45 -8 -4 -2 -3 0 -9
1532257075355373 -5 -7 22 7 0 -1 -7 -3
1532257075400252 35 20 4 4 5 -4 -7 36
1532257075512951 -19 -8 0 5 13 0 24 24
1532257075572791 7 -36 -33 -8 -12 -17 5 14
1532257075669532 -59 -41 0 0 -1 -6 0 -22
1532257075736354 -7 6 1 2 4 2 -1 -10
1532257075992668 1 4 -36 -9 -3 -1 1 1
1532257076060487 -9 -22 -28 -2 -4 -1 -3 -2
1532257076089409 3 18 20 5 -1 -6 -2 0
1532257076181164 -1 3 -2 -1 0 -3 -2 -3
1532257076276908 -1 -50 1 15 8 0 1 0
1532257076352706 2 -8 -32 3 -1 -2 -1 0
1532257076442468 -3 7 -1 0 -1 -1 2 9
1532257076489340 0 -13 0 -8 -10 -15 -12 -83
1532257076517265 5 0 74 37 12 34 2 36
1532257076555163 18 29 29 25 9 9 6 27
1532257076592066 -3 -9 19 -2 -1 4 -5 4

1532257076675841 -6 -15 -45 -5 1 -18 7 7
1532257076690801 0 26 9 -9 4 -1 9 0
1532257076765602 2 -3 -5 -3 -5 -2 -7 -5
1532257076817476 -6 -18 -16 -6 -1 3 -1 3
1532257076854376 -3 -3 6 2 2 4 -1 -3
1532257076924183 5 0 4 -4 -4 -3 -2 2
1532257076991010 3 15 7 1 0 1 0 1
1532257077027906 -3 3 1 0 2 0 -1 0
1532257077072254 0 -12 -3 1 3 1 2 3
1532257077132095 1 1 1 1 1 17 -1 -2
1532257077185950 0 22 11 -2 -2 -4 0 0
1532257077214881 3 10 6 2 -1 -3 2 7
1532257077274712 -2 -8 0 2 1 0 1 1
1532257077320591 -1 -6 -4 -1 0 -2 -1 -5
1532257077371454 4 -13 -10 -3 -1 1 0 3
1532257077425327 -3 1 1 -2 -3 -2 0 -2
1532257077470190 -2 -2 -7 -2 1 -11 -5 -4
1532257077581892 -2 -22 -17 -2 0 2 0 2
1532257077634764 -4 11 -1 0 -1 -2 -2 -2
1532257077860035 2 4 16 -1 1 -2 -10 -6
1532257077934840 9 -18 -2 0 -16 9 -14 17
1532257077980593 0 39 -1 -2 4 33 1 16
1532257078099276 3 -13 10 8 1 11 -2 -4
1532257078122215 1 21 -8 0 -3 -6 3 5
1532257078197016 4 6 3 14 5 2 2 2
1532257078220951 5 -15 -9 -4 2 -1 0 1
1532257078257853 2 11 3 -13 -15 -8 0 2
1532257078280792 -3 2 -7 -15 -7 -3 -2 -2
1532257078293756 -17 7 20 21 5 2 -1 -2
1532257078339634 -4 -9 -5 15 8 0 0 -2
1532257078353596 6 -7 -1 6 0 -1 -2 0
1532257078385511 -1 26 -1 7 14 7 3 5
1532257078400471 0 5 2 -3 -12 -6 -2 -3
1532257078422412 1 6 -17 -24 -9 -3 -2 -2
1532257078474274 -3 6 -1 -1 -1 2 1 -2
1532257078483250 2 10 -13 -12 -5 -3 -1 0
1532257078505191 0 -1 -5 -7 2 1 -2 -1
1532257078534114 -5 -5 1 -4 -7 -1 0 1
1532257078557052 6 29 9 1 0 1 0 -2
1532257078593954 -11 -44 14 -4 -7 -2 -2 1
1532257078602939 -2 -25 -1 0 -2 0 0 2
1532257078625869 -6 1 26 -3 -6 -3 -3 -3
1532257078676732 0 11 39 6 8 0 -1 0
1532257078715629 1 8 -7 0 -2 -1 0 -1
1532257078760509 5 -6 -7 -1 -2 0 4 18
1532257078796412 0 2 -2 -1 0 -1 0 4
1532257078820348 -1 0 -1 -1 -1 1 -1 -4
1532257078856252 -1 -2 -3 -4 -5 -1 -1 -3
1532257078903127 1 -1 0 4 5 3 0 0
1532257078917089 0 -4 -1 0 -4 -2 0 -1
1532257078948007 1 5 -1 -2 2 0 -1 -1
1532257078985908 -2 -9 -17 -26 -9 0 -2 -1
1532257079022807 -1 -1 -5 -3 -9 -3 -1 0
1532257079082647 3 6 8 -1 3 3 0 0
1532257079120546 -3 -6 5 -5 -6 4 -2 0
1532257079143484 -1 2 -13 -7 -11 -4 -1 -3
1532257079180385 -8 -27 11 -17 6 -2 -3 -4
1532257079216289 -3 1 34 49 17 2 2 1
1532257079240225 0 -37 26 -10 -8 -2 -1 -3
1532257079270145 2 7 6 10 20 5 -1 0
1532257079300065 3 2 12 -1 -4 -2 0 0
1532257079323004 -7 -10 -58 3 -3 -8 -5 -4
1532257079359905 -4 -13 7 0 -6 -7 1 -9
1532257079383841 -7 -4 1 5 7 -7 0 5
1532257079396807 2 16 -18 -2 -3 -8 -1 -1
1532257079435703 1 19 -4 5 1 10 3 1
1532257079465623 23 29 -5 -7 -9 20 8 1
1532257079510503 -4 26 17 7 2 -13 -3 1
1532257079527466 -6 -24 -48 -15 -4 -3 3 8
1532257079549398 -13 -6 -59 7 3 -3 -3 -9
1532257079586300 5 -42 -53 11 7 21 12 -7
1532257079600262 -2 -12 -81 -1 -8 7 -8 -23
1532257079630183 -2 37 -3 6 -5 -22 -1 0
1532257079653121 9 29 -54 -11 -4 -21 8 9
1532257079668082 17 12 -7 7 -6 -6 5 51
1532257079690023 8 11 96 2 3 9 2 21
1532257079713959 0 -23 -24 1 -11 -13 -11 -1
1532257079758838 3 -44 -17 -3 1 -6 4 11
1532257079781789 5 26 56 2 6 -1 20 12
1532257079804716 4 -5 -11 4 0 -7 -16 -17
1532257079862561 4 22 36 -2 -5 -10 -3 6
1532257079885500 -3 -7 -15 -24 -6 -4 -2 -3
1532257079899462 11 19 18 6 -8 -8 -1 0
1532257079945340 -15 2 12 12 -2 -3 -3 -6
1532257079968283 -8 -2 13 6 3 -1 -1 -2
1532257080028118 8 -33 5 -17 -4 -2 -2 3
1532257080043078 0 41 54 35 -1 -4 6 0
1532257080072999 -10 -24 -23 -18 -8 -4 -11 -3
1532257080095937 -9 -27 -2 -12 -3 0 5 0
1532257080111894 11 -7 -24 1 0 0 3 3
1532257080147799 -15 3 -9 -9 0 1 19 -2
1532257080163755 23 0 -7 -1 0 0 22 36
1532257080192679 6 -45 -16 -3 -5 -6 11 44
1532257080215617 3 -9 -3 -3 -4 -2 7 6
1532257080232572 15 -105 5 -2 -4 -5 -2 11
1532257080276464 39 -78 -12 4 1 1 2 29
1532257080314353 49 126 18 4 6 1 4 57
1532257080344273 -60 13 -7 -6 -6 -6 -22 -51
1532257080352252 -45 33 -9 -9 -5 -3 -1 14
1532257080402119 26 11 6 3 6 8 12 3
1532257080439020 22 15 -3 -2 -1 1 3 -16
1532257080468940 17 64 10 6 4 10 17 8
1532257080524791 -56 -12 5 8 1 3 9 -8
1532257080545734 -2 -4 9 6 11 10 5 -6
1532257080575654 -35 -11 1 -13 -5 7 -21 -28
1532257080634497 7 11 20 2 0 -3 6 -15
1532257080650470 3 -15 -8 0 -1 -1 -7 1
1532257080688353 -6 -15 1 4 2 1 6 7
1532257080725262 1 -4 1 1 0 -1 5 12
1532257080761158 4 -1 -2 0 1 -2 1 1
1532257080777116 1 12 8 0 -1 2 0 3
1532257080815014 8 45 19 2 -2 0 5 1
1532257080837953 -3 17 -58 0 -2 -8 18 0
1532257080854908 -4 42 79 2 -1 3 -6 0
1532257080890825 -2 -12 -22 2 -1 -7 -19 0
1532257080927713 2 4 -19 1 -3 27 23 12
1532257080950652 -2 -28 3 -6 -2 -2 21 7
1532257080967607 1 -5 11 -1 -4 1 -18 4
1532257080989547 -15 1 26 -3 -4 -6 9 -7
1532257081025452 -4 -17 -22 -2 -2 -5 -4 -3
1532257081063350 5 2 40 -4 -2 12 -8 1
1532257081130172 -3 -1 -4 1 0 -7 -25 -11
1532257081191009 3 -9 -77 6 1 -9 -15 -1
1532257081347590 1 11 23 -8 -8 -4 1 -12
1532257081408428 -3 -19 -27 17 4 0 -2 -1
1532257081505169 -4 14 51 2 3 -1 11 5
1532257081610886 -5 -20 -6 -6 -2 -4 -16 -1
1532257081632827 -8 -11 -10 -10 -4 -5 -23 -25
1532257081672723 2 11 16 5 1 2 -17 -38
1532257081683691 -9 -5 -6 1 -1 -1 1 -20
1532257081864209 0 -7 2 -15 -7 -9 -18 -3
1532257082149445 -2 4 17 5 1 -1 -8 -17
1532257082247185 7 8 -26 1 0 0 34 18
1532257082450640 2 8 22 -9 -6 -16 -24 1
1532257082518470 2 11 4 10 3 5 14 2
1532257082667075 -3 -4 -2 -2 -1 -2 -9 -1
1532257082835612 -9 -22 -8 -5 -4 -2 -2 -3
1532257082893461 7 28 2 -2 -1 0 0 0
1532257082998176 4 -4 -1 1 2 7 2 0
1532257083131819 -4 -29 -12 -6 -4 0 1 -1
1532257083410075 -21 -34 1 4 3 2 -2 14
1532257083514794 -39 -22 -18 -10 -7 -7 -12 -54
1532257083552694 -20 -37 10 29 13 5 1 -20
1532257083574635 34 101 -2 -11 1 -2 -2 9
1532257083649434 38 22 11 0 -1 0 10 17
1532257083672373 18 -11 0 23 4 1 12 45
1532257083709275 7 -22 1 0 -1 -11 -9 -6
1532257083732215 19 -42 13 1 4 5 -7 -8
1532257083755152 -23 10 6 -6 -2 4 3 -17
1532257083792053 69 55 17 10 7 11 13 13
1532257083814992 32 -2 3 -7 -7 1 12 72
1532257083836933 -7 -48 -9 -13 -9 2 10 41
1532257083890799 -85 5 -1 -26 -23 -20 1 -7
1532257083942650 12 28 49 14 13 15 5 52
1532257083980549 61 -1 -12 -8 -5 2 19 65
1532257084054352 -7 -17 22 3 -5 2 -4 18
1532257084130150 5 39 4 -3 -10 -12 -15 -26
1532257084197968 2 -20 5 -4 3 8 11 -12
1532257084294709 -7 1 8 -5 -6 -7 -3 15
1532257084392448 -4 -1 113 12 0 4 -3 -3
1532257084445307 -1 75 13 -1 -2 -1 -3 -2
1532257084535066 0 -4 -78 1 2 -3 -2 -1
1532257084558005 -1 -27 16 -6 -3 -1 -1 1
1532257084594906 -1 -6 10 -1 -1 -2 -3 -1
1532257084625824 -4 -4 -3 -8 -3 -2 -2 -1
1532257084662725 -2 8 -18 5 -1 1 -2 0
1532257084692645 3 17 2 0 2 0 3 3
1532257084714586 -4 4 -35 -9 -4 -2 -3 -5
1532257084745503 -2 -46 4 -7 0 -2 0 0
1532257084774426 0 7 34 0 1 2 -2 -4
1532257084798362 -3 -9 -78 -9 -5 -4 -2 -2
1532257084918047 -4 -4 -9 5 5 3 1 0
1532257084991845 2 -40 27 10 4 2 1 6
1532257085033732 2 8 26 0 0 1 3 -24
1532257085054677 1 23 12 2 0 -1 -1 -58
1532257085097562 0 24 -22 2 2 -4 9 13
1532257085134463 1 -2 -73 4 3 1 0 6
1532257085158400 -8 -50 60 4 -3 0 -3 -10
1532257085194303 -3 5 46 32 -5 -21 -1 -5
