1532179852265372 -2 -2 -1 1 -1 0 -2 0
1532179852323218 -1 -1 -2 -1 1 0 -2 1
1532179852354148 0 0 -1 1 0 -1 -1 -2
1532179852373085 0 -1 -2 -1 -1 -2 -1 -2
1532179852395025 -1 -1 -2 0 -1 -1 -1 0
1532179852433922 0 -2 -1 -3 -2 0 -2 0
1532179852448882 0 0 -1 0 -1 -1 1 0
1532179852462845 1 -2 0 -2 -1 -1 0 -1
1532179852485789 -3 -1 -2 -2 0 0 -2 -2
1532179852516701 -1 0 -1 0 0 -1 -1 -1
1532179852531661 -1 -1 -1 0 -2 0 -1 -2
1532179852554599 -1 -2 -1 -1 0 -1 -2 -1
1532179852569562 -2 -2 -1 1 -1 -2 -2 -1
1532179852608455 -1 -1 -1 -2 -3 0 -1 -2
1532179852614439 -1 0 -1 -1 0 -2 0 -1
1532179852651341 -1 -1 -1 -2 -2 -1 0 0
1532179852674279 0 -1 -1 0 -1 1 -1 -1
1532179852696221 -2 -1 -3 0 -1 -1 -1 -1
1532179852719159 -2 -2 -2 -2 -1 -1 -1 -2
1532179852757057 0 -1 -1 0 0 -1 -1 -1
1532179852778999 0 0 0 -1 0 -3 0 -1
1532179852793959 0 -1 -1 -1 -1 -1 -1 -2
1532179852809917 -1 -1 0 0 -2 -2 -2 0
1532179852831858 -3 -2 -1 -1 0 0 -1 -1
1532179852845821 -1 0 -1 -1 -2 0 0 -2
1532179852876738 1 -1 -1 -1 0 0 -1 1
1532179852899676 1 -1 0 -2 -1 -2 -1 0
1532179852905666 -1 -1 0 0 -1 0 -1 0
1532179852929597 -1 -1 -2 -1 0 -1 -2 -1
1532179852952536 -2 -1 -2 1 -1 1 -1 0
1532179852990434 -2 1 1 -2 -2 -1 -2 -1
1532179853025341 -1 -1 -2 -1 -2 -1 0 0
1532179853048279 0 0 -2 -1 -3 -2 0 -1
1532179853071218 -1 -1 0 -2 -1 -2 -1 0
1532179853110114 1 0 -2 -2 0 -2 0 -2
1532179853131057 -1 -1 -2 -2 -1 -2 -2 -2
1532179853145021 0 0 0 -1 0 -1 -2 -2
1532179853168957 0 -1 -1 -1 1 0 -1 0
1532179853205870 -2 -1 -1 -1 -1 -1 -3 0
1532179853229811 -2 -1 0 -2 -1 0 -1 -2
1532179853259724 0 0 -1 0 -2 0 -1 0
1532179853295618 0 -1 -2 -2 -1 -2 -1 1
1532179853320553 -2 -1 0 0 -1 0 -3 -1
1532179853333517 -1 -2 -1 0 -2 0 0 -1
1532179853356455 -1 0 0 -2 0 -2 0 -1
1532179853393357 -1 -2 0 -3 1 0 -2 -3
1532179853416295 0 -1 0 -1 -1 0 -3 -2
1532179853453201 -2 -2 -2 -1 -1 -1 0 -1
1532179853476136 1 1 -1 -1 -3 -1 -1 0
1532179853522012 -1 1 0 -2 0 0 -2 -1
1532179853550935 1 -1 1 -1 -1 -1 -1 -1
1532179853581853 0 1 -1 0 1 0 -3 0
1532179853595814 -1 -1 -1 1 -2 2 0 1
1532179853610775 -1 -2 -1 -2 -1 0 1 0
1532179853655655 0 -1 -1 -3 1 -3 -1 0
1532179853679590 -2 -2 -3 -2 -3 -1 1 -1
1532179853693554 2 0 0 0 -1 -3 -2 -2
1532179853716492 -2 -1 -1 -1 1 3 0 -1
1532179853730454 0 1 0 -1 0 -2 -1 -1
1532179853784311 -1 -2 -4 -1 -2 -3 0 -1
1532179853799271 1 0 -2 -1 -3 0 -4 -2
1532179853836173 -1 -2 -1 -2 -1 0 0 0
1532179853850134 -1 0 0 0 0 -3 0 0
1532179853882051 -1 -1 -1 0 1 0 -1 1
1532179853909975 1 -2 0 -4 -4 0 0 -1
1532179853932914 -1 1 -2 -1 0 0 -1 -2
1532179853955852 -2 0 -1 -1 -1 -2 -1 -1
1532179853986769 -1 0 0 0 -1 0 -1 -2
1532179854023670 -1 -1 -1 -1 -3 1 0 -2
1532179854053591 -1 0 -1 0 -4 -1 1 0
1532179854076544 1 -2 -2 -3 0 1 0 -2
1532179854113431 -2 -3 0 -2 0 -2 -3 -2
1532179854160306 -1 0 -3 1 1 -2 -2 1
1532179854181250 -1 -1 -1 -1 -2 1 -3 -1
1532179854196209 0 0 0 -1 0 -1 -1 -3
1532179854233111 -2 -1 -2 -1 -1 -1 -1 0
1532179854293949 0 -1 -1 -1 -3 -2 -1 0
1532179854338828 1 0 -1 -2 -1 -1 -1 -1
1532179854353788 -1 -3 -1 -2 1 -1 -1 1
1532179854413628 -1 0 -1 -1 0 -1 0 0
1532179854436572 -1 0 -2 -2 -1 0 -1 0
1532179854473468 -2 -3 0 -1 0 -2 0 -1
1532179854526327 0 0 0 -1 -1 -2 -1 -2
1532179854549266 -2 -2 -2 -2 0 -1 0 -1
1532179854580195 -1 0 0 -1 0 0 -1 -1
1532179854601127 0 -1 -2 -2 -2 -1 -1 -1
1532179854652988 -1 -2 0 -1 0 -2 -1 -1
1532179854712828 0 -2 -2 0 -2 0 1 0
1532179854735767 0 0 -1 -2 0 0 0 -1
1532179854804583 -1 -2 0 -2 -1 0 0 1
1532179854858439 -1 -1 -2 -1 -2 -3 -1 -3
1532179854879383 0 -1 -1 -1 -3 0 -2 0
1532179854901324 0 -2 -1 -1 -1 -2 -1 0
1532179854939223 -1 0 0 -2 -1 -2 0 -1
1532179854962161 0 -1 -1 -1 -2 -1 -1 0
1532179855000060 -3 -3 -1 -2 1 -2 -2 -1
1532179855021015 -1 0 -2 -1 -2 -1 -2 -2
1532179855058903 -2 0 -1 -1 -2 0 -2 0
1532179855118743 -2 -1 -2 -1 2 -1 -1 0
1532179855149660 1 0 -1 -1 -2 1 1 -1
1532179855187558 -1 -2 1 -1 -1 -1 -1 -1
1532179855201521 -1 -1 -2 -1 -1 0 0 -1
1532179855239420 -2 -1 -3 -2 -2 0 -1 1
1532179855299260 -2 -2 0 -1 -1 0 0 -2
1532179855335171 -2 -1 -1 0 -1 -2 -1 -1
1532179855440889 0 -2 0 0 1 0 -1 -1
1532179855478787 0 -2 -3 -2 -1 -2 -1 -2
1532179855501760 -1 -1 0 -1 -1 -1 -1 -2
1532179855561599 -1 -2 0 -1 -1 0 -1 -2
1532179855772054 -1 -2 -1 -2 1 -2 1 0
1532179855861797 -1 -1 0 -3 -1 -1 -1 0
1532179855884736 0 -1 -1 0 -2 0 -1 -1
1532179855921637 -1 -1 -3 -3 -1 -1 -2 0
1532179855981477 -1 -1 -3 0 1 -1 -2 -3
1532179856025360 1 -1 -1 0 1 -1 -3 0
1532179856086197 -1 -1 -2 -1 -3 -2 0 0
1532179856124102 0 1 1 -1 2 -1 -2 0
1532179856168995 -1 -2 0 -1 -5 -2 -1 -3
1532179856244780 1 3 14 7 5 -22 10 5
1532179856377438 -4 -4 -2 37 12 -12 -2 -8
1532179856425310 -1 -1 -3 -4 -20 -2 -4 23
1532179856446254 0 1 3 7 -24 -4 -5 4
1532179856461214 -1 -2 -4 -3 9 -16 -6 2
1532179856492131 -2 -4 -4 -8 -9 1 -5 -3
1532179856507091 3 2 -1 6 5 5 4 -5
1532179856542995 -4 0 0 -2 -11 2 4 -1
1532179856560947 -1 -3 -5 -2 26 0 1 6
1532179856612808 1 -4 -5 -7 8 27 -6 -4
1532179856626771 -2 -6 -10 -14 -13 -23 -24 5
1532179856664669 2 -1 -1 12 12 3 9 2
1532179856701571 -1 2 3 8 -14 -6 11 -1
1532179856737475 3 2 2 19 33 -13 -6 -5
1532179856761411 -1 -4 -4 -10 -14 6 4 -2
1532179856784349 9 0 0 5 -6 -12 -18 -2
1532179856798312 -1 -1 0 -7 16 10 18 5
1532179856828232 2 1 2 -8 -10 2 7 -3
1532179856867128 -2 -1 -1 -2 2 -10 -1 -2
1532179856881105 -4 -1 -3 -12 -9 1 -4 2
1532179856926985 -1 -3 -4 -4 -11 -10 -9 -18
1532179856940948 0 1 1 2 -17 -5 1 4
1532179856964883 2 -2 -5 -5 0 7 -4 -3
1532179856993805 -3 0 -3 -8 -8 0 13 8
1532179857009763 -3 -1 -3 -11 -4 -7 0 -1
1532179857046665 -2 0 3 12 -4 -10 -9 -3
1532179857060628 0 -2 0 1 11 3 -7 2
1532179857106505 -1 1 1 2 -6 0 4 0
1532179857112489 -5 -1 -4 -10 3 3 -2 -2
1532179857127449 0 -1 -2 -3 2 -1 -4 -8
1532179857146398 -3 -1 -2 -5 -24 1 -3 0
1532179857168356 -3 -1 2 2 0 3 -1 -10
1532179857197262 2 -1 1 1 -5 0 -5 0
1532179857227182 -2 -3 1 0 5 -8 -4 -2
1532179857249123 -1 -1 -1 -1 -13 7 5 -1
1532179857287022 -2 0 -1 -9 3 -17 1 -1
1532179857301982 1 -2 -3 -1 -2 -4 -2 1
1532179857323923 -1 1 -3 -5 -2 -10 -8 -2
1532179857391742 -4 1 1 0 -1 -4 -5 -2
1532179857430652 2 -1 -2 -5 -1 -6 5 1
1532179857467553 -3 -1 2 11 -15 6 9 4
1532179857505452 -1 -1 -2 -2 -9 0 -1 -2
1532179857526411 -1 -3 -1 1 2 -5 -5 -8
1532179857540359 -1 -2 -1 -3 -29 -5 -6 1
1532179857564295 -4 -2 -3 -4 10 3 -5 -5
1532179857587233 -2 0 -2 -2 10 3 -4 2
1532179857632114 2 0 0 1 3 14 18 5
1532179857647073 0 -2 -1 5 3 -3 -8 -1
1532179857669031 -2 0 0 6 15 -5 -11 -7
1532179857722870 -1 -1 -3 -4 -5 -1 -3 3
1532179857743815 0 0 1 -4 -7 0 -4 -3
1532179857766753 -1 -3 -2 -3 -17 3 8 3
1532179857789692 0 0 0 -2 -2 -4 -5 0
1532179857804652 -2 -2 -1 3 13 4 2 1
1532179857849532 0 0 -2 0 -5 -3 5 1
1532179857864491 -1 -2 -2 -5 -19 0 -15 -1
1532179857886433 0 0 -1 8 -10 -1 2 -2
1532179857909372 -4 -2 -3 -6 -10 -5 -7 -6
1532179857923335 -1 -1 -1 -9 6 -4 5 5
1532179857969212 -1 -1 -1 -1 -13 2 1 -7
1532179857975206 -3 -3 -1 3 -2 5 -3 1
1532179858022070 -1 -2 -1 -3 7 7 6 3
1532179858046006 -1 0 -2 -8 -12 1 4 1
1532179858088911 -2 -2 -1 -5 -23 -4 -3 -2
1532179858103872 -1 -1 0 -3 3 0 -1 -2
1532179858125812 -1 0 -2 2 8 -5 -1 0
1532179858156729 1 1 1 1 2 -1 -1 -4
1532179858209588 1 -1 -4 -3 6 1 2 7
1532179858224548 0 0 0 3 -3 0 -2 -2
1532179858247487 -1 -1 -1 1 -20 -5 -15 -3
1532179858269430 -2 -3 -3 -8 14 9 10 0
1532179858291370 -1 0 -1 0 -8 7 -5 -8
1532179858329268 -2 0 -2 1 5 -11 0 0
1532179858366170 -2 0 -1 1 11 -4 -3 -3
1532179858403071 -3 -2 -1 -1 -22 -4 0 -2
1532179858464906 -1 -1 -2 -1 -2 2 -4 -3
1532179858479866 -2 0 0 14 -4 -4 -1 0
1532179858508788 -2 -2 -2 -1 1 -2 -8 -2
1532179858553700 1 0 -1 -1 7 1 1 -2
1532179858584618 -2 -2 -2 -3 0 4 -1 -5
1532179858629497 -1 -2 0 -1 -7 3 9 2
1532179858659418 1 -1 0 -1 8 1 -2 -1
1532179858696324 -2 -1 -2 -3 -5 -4 3 0
1532179858711279 -1 -3 -4 -4 -1 -1 -2 0
1532179858726239 -1 -2 0 -1 0 2 0 -3
1532179858779097 -1 -1 -1 -3 -3 -6 -4 -3
1532179858809018 -2 -1 -1 -1 1 1 -9 -3
1532179858831955 0 -3 -4 -3 6 -5 -10 -6
1532179858846916 -1 1 -1 -6 -6 -1 5 0
1532179858920719 -1 -1 -2 0 -14 6 6 1
1532179859019455 -3 -1 -2 2 0 4 -2 2
1532179859049374 -1 -1 -2 0 -6 -5 -4 -1
1532179859071316 -2 1 -1 -3 4 0 -2 -2
1532179859087273 0 -3 0 0 -3 -1 -3 -1
1532179859146116 1 -1 -2 -8 -1 -1 -2 -1
1532179859191993 -1 -3 -3 -3 -2 -3 0 -5
1532179859204958 0 0 -1 -3 -2 -2 2 1
1532179859228894 -2 -1 -3 -2 -12 -1 -2 -3
1532179859265796 -1 0 0 -2 5 -2 -1 0
1532179859296712 0 -1 -1 3 0 -1 1 -1
1532179859319652 -1 -2 -1 -1 1 -1 -5 -2
1532179859325636 0 0 1 10 -2 -1 -3 -1
1532179859388468 1 1 -1 -5 -5 0 3 -4
1532179859409412 -2 0 2 11 -5 -3 1 3
1532179859445316 -1 -3 -3 -3 3 1 -1 -1
1532179859477230 0 -3 -4 -3 -2 -1 -2 -3
1532179859492190 -3 -3 0 -7 -10 -1 -1 -1
1532179859505155 -1 -2 -4 -4 -4 -8 -5 -2
1532179859535076 -1 1 0 0 1 -3 -2 -3
1532179859554025 -1 -1 -1 -1 -6 1 -2 -1
1532179859573972 -2 -1 -1 4 1 2 2 -2
1532179859597908 0 -1 2 11 5 -3 2 1
1532179859613870 1 0 -2 -8 10 -6 -1 -1
1532179859635806 -2 -3 -3 -7 0 8 0 0
1532179859672707 -3 -3 -3 -5 -10 6 -2 -4
1532179859694649 -1 -3 -3 1 4 1 -2 0
1532179859716590 1 -1 2 1 0 0 -2 0
1532179859739529 -2 -1 -1 -5 -3 -2 -5 -1
1532179859775433 0 -1 0 0 1 -1 0 1
1532179859805353 3 -1 -3 -10 -5 -1 -3 -4
1532179859836270 1 2 3 9 3 -1 1 -1
1532179859852239 -3 -2 -3 -5 -1 -1 -5 -1
1532179859874168 0 0 -3 -5 -1 -1 6 0
1532179859888132 0 0 0 1 -2 -4 1 2

1532179859904095 -2 -1 -4 1 6 -6 -7 -4
1532179859941988 0 -5 -4 -7 -15 -1 -10 -3
1532179859971907 0 -2 -2 -5 -6 2 -2 -6
1532179860007830 -4 -3 1 -1 -1 -4 2 0
1532179860031747 -3 1 -2 1 -9 0 -1 0
1532179860054686 1 -1 0 9 14 3 3 0
1532179860060670 -2 -1 -1 0 11 1 6 5
1532179860075630 -1 -1 -2 -5 -14 0 6 0
1532179860114526 -1 -1 1 2 -6 -2 -12 -12
1532179860137474 -2 -2 -3 -7 -4 -17 -12 -6
1532179860174366 1 1 1 3 -8 1 -2 1
1532179860196349 -1 -1 3 9 1 2 4 -1
1532179860219295 -1 0 -3 -10 10 4 -8 0
1532179860249213 0 -1 -2 -10 -17 -1 -3 2
1532179860256195 0 -1 -1 -1 -1 -41 4 1
1532179860272154 -6 -4 -6 -7 5 -40 -30 -10
1532179860293096 2 2 2 8 27 81 18 6
1532179860323923 -3 -6 -1 4 -52 -89 -9 0
1532179860353843 -4 -5 -2 -8 -54 -27 -9 -5
1532179860383763 -8 4 4 7 23 -55 13 4
1532179860390745 2 -2 -2 -3 13 33 -1 -2
1532179860421762 3 3 2 1 -10 -41 3 4
1532179860450685 0 -1 -2 3 -1 12 0 -1
1532179860480605 0 -3 -1 1 -13 -14 -1 -3
1532179860518316 -1 -2 -1 0 7 11 0 0
1532179860533276 -1 -2 1 -1 -2 3 -1 0
1532179860571174 1 -2 -1 -5 1 3 -1 -1
1532179860601879 -1 -2 -1 6 23 3 -1 -1
1532179860616839 -2 0 -3 -5 -6 2 -2 -1
1532179860662716 1 0 0 7 12 1 -2 -1
1532179860690641 0 -2 -2 -4 3 1 0 -1
1532179860713588 -1 -1 1 2 1 0 -1 -1
1532179860736924 -1 0 -1 3 -4 0 0 0
1532179860758865 0 -2 -2 0 -4 0 -1 -2
1532179860773825 -2 0 -3 -8 -13 -3 -1 -1
1532179860819703 -1 1 -1 -3 4 1 0 -2
1532179860864582 -1 -1 -2 -2 -2 -2 -1 -1
1532179860916444 0 -1 2 1 4 -4 -1 0
1532179860976360 -1 -2 -1 -1 0 -2 -2 -1
1532179861006280 -1 0 0 0 -4 -4 -2 1
1532179861044187 0 -1 -1 -4 -4 -2 0 0
1532179861073102 -1 -1 -1 -2 -1 -1 0 -1
1532179861141917 0 -2 -1 -3 -1 0 -1 0
1532179861156877 -1 -1 -2 -5 -11 -4 -1 -1
1532179861230680 -1 -2 -1 3 6 0 -2 -2
1532179861275560 -2 -5 0 2 3 -3 -2 -1
1532179861358338 -2 0 -1 10 3 40 -3 -2
1532179861396237 0 -2 -2 -4 -18 -63 -1 1
1532179861410200 -1 -1 -4 -5 -2 13 -6 -1
1532179861457075 -4 -3 -2 -3 -28 -6 -5 -4
1532179861493976 0 -1 -1 -3 -5 16 5 3
1532179861529879 -3 -3 -5 -10 -24 9 -6 -1
1532179861575758 1 -1 -2 1 10 26 8 3
1532179861599693 -3 -2 3 4 30 27 -1 -3
1532179861635605 0 1 -5 2 -1 -3 -1 -1
1532179861659533 1 0 3 7 7 7 1 2
1532179861711395 0 -1 -1 1 -5 -6 4 1
1532179861719373 0 2 -3 -5 -4 -34 -2 -3
1532179861756274 -2 -3 -5 -8 -16 32 -1 -4
1532179861779213 1 1 2 2 4 1 0 1
1532179861816114 -1 -2 -4 -1 1 11 -4 -1
1532179861854025 1 1 6 10 6 1 -5 -2
1532179861898893 0 0 -2 -3 -12 0 -1 0
1532179861936792 -2 0 0 -6 -1 -7 0 -1
1532179861958732 -1 -2 0 -1 0 -29 0 0
1532179861996632 -1 -2 -3 -3 0 13 -2 -1
1532179862019573 0 3 -2 -3 -21 -13 0 -1
1532179862056472 2 1 -2 3 6 17 -2 -1
1532179862079410 -2 -3 0 4 22 25 2 1
1532179862138253 0 0 -1 6 26 18 2 0
1532179862177149 0 -3 -2 -5 -1 -2 1 0
1532179862199090 -3 0 -1 -1 -9 -2 -3 -2
1532179862229010 -1 0 0 0 -11 -2 -1 -2
1532179862258930 1 -1 0 6 21 -5 -1 -1
1532179862303810 -1 2 0 -5 -3 -5 0 1
1532179862356669 -1 -3 -1 1 0 -8 -2 -2
1532179862379607 -2 -1 -2 -9 -26 -32 -4 -3
1532179862439447 -1 -1 0 -3 -2 -16 -1 0
1532179862506269 -2 -4 -2 -7 -34 -7 -2 -2
1532179862559128 0 0 -1 8 7 -9 -2 -2
1532179862595032 -2 -1 0 -4 -5 4 -2 0
1532179862604008 0 0 0 -2 3 4 -2 0
1532179862664860 0 -2 -2 0 6 9 0 -2
1532179862701746 -1 0 -2 -3 -2 20 -3 -2
1532179862730669 -1 1 1 6 4 2 0 0
1532179862799485 1 -2 0 0 -1 0 1 0
1532179862859325 -1 -1 -3 0 -10 5 -1 -1
1532179862986984 0 -2 -1 1 0 -14 -1 -2
1532179863038844 1 1 -2 -1 0 -10 -2 1
1532179863084722 0 0 -1 -2 4 17 -1 0
1532179863108658 -2 -2 -3 -2 4 22 1 -3
1532179863135585 -3 -1 -3 -1 -12 1 -1 -3
1532179863166503 0 -1 0 -3 -7 -5 -2 -2
1532179863195426 -2 -1 2 2 19 3 -1 -2
1532179863219362 1 -1 -3 1 -7 3 0 0
1532179863241304 -1 -3 -3 3 4 -2 -3 -2
1532179863272226 -2 0 -2 -8 5 14 2 -2
1532179863302140 -1 -1 -1 -4 -7 5 -1 -2
1532179863324089 0 -1 -1 -3 -6 -4 0 0
1532179863361980 -1 -1 -1 -3 8 2 -1 -1
1532179863383922 -1 1 -2 -1 2 0 0 0
1532179863421820 -1 -1 0 3 6 42 -7 -1
1532179863465703 -2 0 -2 0 -13 -11 -2 -3
1532179863504599 -2 0 0 3 -20 -13 -2 -2
1532179863518562 -1 -3 -4 -3 19 14 0 -2
1532179863579399 2 2 1 -2 -5 -5 1 2
1532179863601340 3 2 1 0 0 10 0 0
1532179863625277 -4 -3 -2 0 0 -12 -1 0
1532179863638242 0 -1 0 2 -4 -3 -2 -3
1532179863700077 -1 -2 -1 -3 -14 -1 1 -1
1532179863707058 0 -1 0 0 9 -7 0 1
1532179863758919 -1 0 -1 0 -5 -7 -2 0
1532179863788839 0 2 0 4 -2 -8 2 -1
1532179863818759 -2 -1 -2 -3 -4 -5 -1 0
1532179863841698 0 -2 -1 5 11 -2 -2 -2
1532179863864637 0 1 0 4 3 7 0 1
1532179863878599 0 -1 -1 -1 -7 -2 -1 0
1532179863892562 0 1 2 1 1 1 0 0
1532179863909517 -2 -2 -1 1 -3 -4 -2 -1
1532179863933453 -1 -3 -1 -1 -8 -25 -2 0
1532179863961378 0 -3 -3 -3 2 -2 -1 -2
1532179863984317 -2 -1 -2 -5 -1 -4 -1 -2
1532179864013239 -1 1 1 5 3 -8 -2 0
1532179864023212 -1 -1 -1 -3 0 6 -1 -2
1532179864081058 -2 -1 -1 2 -1 33 3 0
1532179864103997 0 -2 2 -1 -9 -5 -1 1
1532179864126935 1 -2 -3 -4 -4 -1 -1 -2
1532179864141895 0 0 1 4 1 -10 -2 1
1532179864171815 -3 -2 -2 0 7 -5 -1 -1
1532179864177799 -1 0 -2 -1 5 -1 1 0
1532179864209713 -3 0 -2 -4 -5 -9 0 -1
1532179864247612 -1 -1 -1 -6 -9 -22 -4 -2
1532179864268556 -1 -1 1 4 -14 -6 -2 -1
1532179864293497 -2 0 -3 -5 0 -3 -1 -2
1532179864329394 0 -2 -3 0 2 2 -1 -1
1532179864366295 -4 -2 -2 -6 -2 -13 0 -2
1532179864412172 -2 0 0 0 -2 -23 -1 0
1532179864427133 0 0 -1 -2 3 5 -1 0
1532179864531852 -2 -1 -3 -7 1 -3 -1 -1
1532179864545815 1 0 1 2 8 5 0 1
1532179864620615 0 0 -1 3 16 7 0 0
1532179864666492 1 1 0 2 19 3 0 0
1532179864704391 0 1 -2 1 -36 -38 -11 -1
1532179864741292 -1 -3 -4 -3 -11 6 -6 -3
1532179864787170 0 0 -1 8 -8 -7 -2 2
1532179864824071 0 -1 -2 -7 5 4 3 -4
1532179864847010 0 0 5 20 37 -5 -3 4
1532179864884908 -2 -4 -2 -3 -5 -4 -22 1
1532179864929789 1 2 8 27 24 -20 -5 -11
1532179864946743 -1 1 4 -7 -9 8 5 2
1532179864968684 -4 -5 1 2 -3 -6 0 -11
1532179865006582 0 -1 -3 -8 0 6 2 -6
1532179865027526 -11 -3 -2 -6 1 -2 -4 1
1532179865040492 1 -2 -6 -7 -2 8 -2 -8
1532179865056450 10 0 -1 0 3 1 -11 1
1532179865094348 2 0 -4 -3 -15 -9 -1 -1
1532179865109309 -3 -2 -1 -3 -11 -2 1 4
1532179865138231 -1 3 3 3 -1 2 -2 -4
1532179865165159 -2 -2 -2 -3 2 13 9 -4
1532179865186102 1 0 -1 -5 2 36 10 2
1532179865198071 -2 0 -2 1 7 -17 -6 -1
1532179865245942 -14 -2 2 -3 2 -7 0 0
1532179865282844 3 -1 -4 1 9 14 -10 -4
1532179865295809 5 -6 -9 -10 -8 9 -1 -6
1532179865319746 -6 0 1 3 -11 -19 7 -3
1532179865365631 -3 2 3 14 15 -5 -1 -2
1532179865386567 -3 0 0 -1 11 -34 1 2
1532179865423468 -1 -3 0 -7 -17 0 -23 -1
1532179865437431 1 5 2 18 6 -13 -8 6
1532179865483308 9 -1 -3 -1 1 2 16 -5
1532179865543148 2 -2 -4 -9 -2 0 10 -2
1532179865558108 7 1 -3 -5 13 17 -2 1
1532179865590023 -11 0 1 -1 1 17 11 13
1532179865602988 14 7 5 16 13 31 5 -5
1532179865648865 6 1 1 2 7 2 -2 -12
1532179865677787 5 -2 -6 -3 -14 12 -14 4
1532179865716684 -1 -9 -7 -3 -4 -23 -12 -6
1532179865769547 5 1 1 -2 -6 -15 -9 -6
1532179865799463 -2 2 3 -3 -16 19 7 0
1532179865820407 -7 -3 1 -3 -13 -6 2 0
1532179865838375 -19 -3 1 6 -2 5 -15 -8
1532179865853327 0 -1 -1 -13 -22 -2 -1 1
1532179865876257 2 1 -2 -1 3 0 0 2
1532179865891218 1 -1 -1 3 4 -12 -9 -5
1532179865927121 -3 -2 -3 -4 11 18 2 -4
1532179865963026 0 0 0 -1 -18 -6 2 -15
1532179865986961 4 0 -2 -12 -5 -6 1 7
1532179866022865 -1 0 1 -5 4 1 -1 2
1532179866046801 12 0 -3 0 0 4 4 -9
1532179866068742 3 1 -2 5 3 -14 -3 8
1532179866076721 -5 -1 -2 -1 26 0 -2 -12
1532179866091681 -2 -3 0 -1 -13 -13 -2 3
1532179866129579 -2 -3 -3 -7 7 10 6 2
1532179866142545 -1 -1 -3 3 1 -10 13 0
1532179866151521 -2 -1 0 0 1 14 -8 -5
1532179866189420 3 0 -3 -2 22 13 -10 -1
1532179866202386 -4 0 1 -2 -15 -29 -2 -2
1532179866234300 -1 -1 -1 -4 -9 -2 1 9
1532179866272199 0 2 2 3 8 -3 4 7
1532179866287158 0 -2 -1 -2 2 -8 -4 -5
1532179866309100 -10 -1 1 1 0 16 0 1
1532179866332038 2 -2 -3 -4 15 52 -4 -5
1532179866353980 -1 -2 0 -6 -23 -18 3 1
1532179866368947 12 0 -2 0 25 -6 -9 -7
1532179866391879 -1 -1 -1 6 7 -62 1 -27
1532179866406838 -2 -1 -2 1 -9 33 5 8
1532179866428781 -3 -1 0 3 3 -1 0 -3
1532179866450721 -5 -3 -3 -4 -2 4 -8 -16
1532179866468686 3 -1 1 -1 -27 -19 -6 2
1532179866488620 -7 -1 0 3 -7 11 2 4
1532179866526518 5 2 1 -1 -4 -7 1 1
1532179866549457 -2 -3 -3 -1 8 22 2 0
1532179866571399 -3 -1 -3 -1 -16 -6 5 3
1532179866593340 -1 -2 0 2 15 1 -4 -6
1532179866654177 -4 -2 0 -2 -1 -5 4 2
1532179866669137 1 0 -2 4 4 5 1 -13
1532179866706039 -1 -1 -2 3 26 6 -1 3
1532179866728977 -5 -1 0 -6 -15 3 -2 -3
1532179866765878 0 -1 2 4 -2 9 -4 4
1532179866788817 -3 -4 -5 -10 -13 -12 1 -6
1532179866825719 0 -1 -1 4 -5 18 -4 -3
1532179866834695 -7 -3 -2 -9 -2 -5 0 -1
1532179866871596 1 0 -1 -8 -31 11 6 -2
1532179866901516 -4 -2 -3 -3 -14 -8 -2 10
1532179866931435 -11 -4 0 -2 -3 -21 -2 3
1532179866960358 -2 -2 -2 -1 4 -16 -14 -11
1532179866991276 0 0 0 -3 13 12 1 1
1532179867014214 -2 -2 -1 -1 2 -12 -3 -6
1532179867052113 6 -1 0 6 14 2 1 -8
1532179867065078 -3 -1 -2 0 14 6 -4 -1
1532179867082032 0 0 -2 3 8 3 4 7
1532179867111953 -3 -3 -2 -2 -3 -2 -3 -9
1532179867124918 1 0 1 2 -7 -5 2 6
1532179867133894 -2 -1 -2 -1 -2 1 0 0
1532179867171793 -2 -1 -1 0 7 0 -3 -1
1532179867185755 -2 -2 -1 -3 -6 -1 -2 -3
1532179867209691 0 -2 -2 0 0 2 -2 -1
1532179867253574 -1 -1 -2 -3 -6 -7 0 5
1532179867276513 -3 -1 -1 -2 -4 1 -1 -3
1532179867328374 -5 -4 -4 -2 -4 -2 0 5
1532179867335357 -5 -2 -1 -1 2 0 -2 -1
1532179867354320 1 0 1 1 2 2 0 3
1532179867381233 -1 -1 -2 -2 -2 6 -2 -3
1532179867396193 -4 1 2 -3 -4 -1 2 -2
1532179867433094 -3 0 1 5 2 -18 -4 -3
1532179867464011 -2 -1 1 -2 -2 -5 -1 -1
1532179867493932 -1 0 0 4 3 14 0 -2
1532179867507894 0 -1 0 0 -10 18 -3 -1
1532179867553772 0 2 1 10 9 4 1 0
1532179867567733 -2 -2 -1 -9 -31 -5 -3 -3
1532179867621590 0 -2 -1 -1 7 11 0 0
1532179867627574 0 2 1 1 3 -16 1 2
1532179867659489 -1 -1 -1 -3 -6 -10 -3 -1
1532179867673452 -2 -1 -2 -2 1 15 2 -2
1532179867687414 0 -1 -5 -1 0 -1 0 -2
1532179867711350 0 -4 -1 5 7 4 0 -1
1532179867733292 -2 -1 -1 -5 -7 -6 -1 -2
1532179867757228 0 0 0 1 -24 -15 -3 1
1532179867771189 0 0 -2 -5 2 -9 -1 -1
1532179867793131 -5 -4 1 -6 -20 2 -5 -3
1532179867816069 -1 -2 -1 -3 -3 12 2 1
1532179867853969 2 2 2 4 -9 -3 5 2
1532179867875910 -2 -2 -4 -8 -8 -19 -4 -2
1532179867913809 -1 0 4 -5 -5 -1 -2 -2

1532179867987611 4 2 -14 -4 20 3 5 9
1532179868010550 10 -5 2 -1 14 7 10 12
1532179868033503 -4 1 -5 -1 -12 -5 -4 -1
1532179868056427 4 4 3 28 1 0 10 9
1532179868093329 0 0 -4 -4 9 -1 -7 5
1532179868116267 -5 -2 -6 -14 -17 -5 -5 -11
1532179868153169 -1 11 12 10 5 1 -1 -4
1532179868177104 -5 -5 -2 -8 -16 3 8 1
1532179868214023 -1 -2 -1 -6 -32 -32 -16 -10
1532179868236945 0 -8 -5 2 3 -7 -14 -2
1532179868310753 -2 -1 -1 -6 7 5 0 -21
1532179868356646 2 43 44 3 27 14 16 10
1532179868393540 -4 -22 -18 -4 4 36 9 4
1532179868416478 -4 -7 -4 -6 16 30 17 -3
1532179868453380 -4 -15 -12 5 -7 -8 5 -3
1532179868476318 3 -8 -12 4 10 -10 12 7
1532179868513220 0 -7 -7 0 -15 -15 -6 2
1532179868537156 3 13 8 6 9 1 5 2
1532179868596996 1 0 10 0 -3 7 6 0
1532179868633897 -2 -2 10 -2 1 6 -2 6
1532179868656835 -1 37 12 -8 19 24 -2 14
1532179868693737 -1 -4 -3 2 -6 -1 0 -2
1532179868716676 0 -2 -2 -2 -33 -3 2 -2
1532179868738617 0 -15 -4 3 8 9 -1 7
1532179868776857 -1 -4 -2 1 4 -2 2 -7
1532179868821737 0 -3 12 4 3 -1 4 -1
1532179868836697 -2 -8 -14 -8 -35 -14 -4 0
1532179868873599 -1 -7 -15 -5 16 2 -2 -2
1532179868896537 -5 7 9 0 8 -11 -16 -4
1532179868956401 -1 7 -9 -4 -10 -18 -2 3
1532179868986322 1 9 15 2 -4 -5 -5 2
1532179869017239 1 -5 3 2 2 -4 7 -1
1532179869046162 1 -5 -6 -3 3 -1 5 13
1532179869084060 -5 -20 -19 -6 -11 5 -5 -7
1532179869113980 -6 -15 -2 -5 -9 4 1 5
1532179869158860 0 15 1 -5 1 -3 -1 -4
1532179869203740 -1 9 10 -3 -13 -1 12 -1
1532179869241639 1 4 5 5 10 5 -1 5
1532179869256599 -2 -7 -3 -2 -16 4 1 -15
1532179869293813 0 6 3 2 -14 -12 -9 2
1532179869316751 -2 -1 4 3 11 33 -2 -6
1532179869376592 -3 0 -14 -10 -1 3 -6 -7
1532179869436432 1 9 14 2 3 -8 -3 10
1532179869497268 -1 -3 2 8 19 -10 -6 -16
1532179869533173 -2 2 3 -1 17 8 0 -4
1532179869564090 1 -2 -5 -2 -21 9 2 5
1532179869616949 0 -9 -7 0 -6 0 -11 -4
1532179869653850 16 -4 -11 -3 -1 -1 0 13
1532179869706749 58 1 -13 1 -2 -2 0 -6
1532179869789881 0 3 0 1 3 8 8 -12
1532179869827780 -8 -4 -1 0 1 4 -7 -6
1532179869841743 2 5 -1 -1 7 5 2 6
1532179869855705 -3 -4 -2 0 -1 -18 4 1
1532179869879642 -4 -2 -3 -4 -5 -11 -14 0
1532179869901583 0 -2 -7 -9 2 95 -2 -1
1532179869931502 -9 -4 -8 -4 -10 21 -12 -6
1532179869961423 -4 -2 2 5 39 89 9 1
1532179869982367 -4 1 -2 2 -1 -70 8 -1
1532179870013284 -4 -4 -5 -8 -8 19 -3 -2
1532179870050185 0 1 -2 -5 5 16 1 2
1532179870104041 0 0 0 3 10 11 7 0
1532179870120192 1 -2 -1 -2 -1 9 1 1
1532179870179037 -1 -2 -2 -2 -2 2 1 -2
1532179870223917 1 1 0 -1 -1 -3 -1 0
1532179870275778 -1 0 -1 1 4 21 0 0
1532179870298731 -2 -2 -2 -5 -7 -1 -1 -1
1532179870321656 1 -1 -2 -1 1 -4 3 -1
1532179870335623 -1 -1 1 0 3 12 -2 1
1532179870396455 -2 -1 -1 -5 -8 -9 -2 -2
1532179870441336 0 -3 1 -1 -1 -8 -2 0
1532179870456296 0 0 0 2 12 25 1 0
1532179870470258 1 -1 1 -1 -3 -2 -1 -1
1532179870502173 0 1 0 -1 -1 19 0 -2
1532179870539074 -1 -1 -3 -2 -1 -6 -2 0
1532179870568994 0 -2 1 -1 -5 -8 0 -1
1532179870589938 2 0 -2 -1 0 1 0 1
1532179870621853 1 0 -1 -2 -2 -2 3 1
1532179870643794 -2 -1 -2 -1 0 0 -1 -2
1532179870659752 -1 0 -3 -1 -1 0 -1 0
1532179870682690 -1 -1 0 0 -1 -10 -3 -1
1532179870695656 -3 -3 -4 -3 -1 3 0 -2
1532179870748514 -2 0 1 -1 0 1 2 -1
1532179870757508 -1 -1 -2 -2 0 13 -1 -3
1532179870779431 -1 0 0 0 -5 -10 -2 0
1532179870801373 0 -1 0 0 -2 -4 -2 0
1532179870824327 -2 -1 1 1 -2 -3 -3 -1
1532179870869192 -1 1 -1 -1 1 1 0 -2
1532179870884151 -1 -3 -2 -3 -1 4 -2 0
1532179870901106 0 1 -2 -2 -2 -3 -1 -1
1532179870923048 -2 1 -5 -1 3 7 0 -2
1532179870943992 0 -3 0 -2 1 15 -1 -1
1532179870981890 -3 -5 -1 -3 -1 1 -2 -1
1532179870987874 -1 -1 -2 -3 -2 -8 1 -1
1532179871004829 -3 -2 -2 -2 -1 -2 -2 -3
1532179871041730 0 -2 0 -2 -3 -7 -3 -1
1532179871064669 0 1 0 -1 -2 0 0 1
1532179871079629 -1 -2 -1 -1 -5 -15 0 0
1532179871124509 -1 -1 -3 0 1 9 1 0
1532179871139469 0 1 1 0 3 13 3 -1
1532179871161410 2 -2 -1 -2 -4 -8 -2 1
1532179871190333 -1 0 -1 -1 -2 0 -1 -2
1532179871221250 -1 -1 -3 -3 1 10 2 -1
1532179871244189 0 -2 -1 -2 0 -6 -3 0
1532179871265133 -2 0 -1 -1 -3 -3 -4 -1
1532179871283100 0 1 -1 0 -1 -1 0 -2
1532179871319006 -1 -1 -1 0 -1 -4 -1 1
1532179871341927 -1 -1 0 1 2 -1 -1 0
1532179871363869 -2 -2 -2 -1 -2 -6 -3 -2
1532179871378829 -2 -2 -3 -1 1 11 0 -2
1532179871401768 0 2 0 -2 0 -1 -3 -2
1532179871423709 0 -2 0 -1 -2 2 -3 -2
1532179871438668 1 1 1 -2 1 2 -2 -2
1532179871461607 -2 -1 -2 -1 1 17 3 0
1532179871484546 1 0 -1 -3 -8 -17 -2 -2
1532179871506487 -1 0 -1 0 0 -1 -1 -2
1532179871521446 0 0 0 1 -3 -3 -1 -1
1532179871544386 -1 -1 -1 -2 2 1 -2 -2
1532179871558348 0 -2 0 1 -2 -15 1 -1
1532179871589279 -2 -3 -2 -1 -3 -4 -1 2
1532179871618188 -2 1 -3 -2 -4 -15 5 1
1532179871642125 0 -3 2 1 0 -4 -1 0
1532179871664066 -1 -1 0 0 -3 -5 0 1
1532179871678029 -3 0 0 -2 -2 -5 -3 -1
1532179871687005 -1 1 0 2 -1 4 -2 -6
1532179871722908 -2 -3 1 0 2 7 2 -2
1532179871737869 2 -2 0 0 -3 -4 5 0
1532179871761805 1 1 -3 -4 -2 0 -4 0
1532179871784743 0 0 -2 1 -1 -4 0 2
1532179871797709 -2 0 -1 -1 -3 -9 -4 0
1532179871821644 0 -2 -1 -3 -2 3 -5 -3
1532179871844582 -2 -1 -3 -2 -1 3 -3 -1
1532179871866524 0 0 0 0 -1 1 0 -1
1532179871904423 -4 0 0 -1 -2 3 -1 -2
1532179871917389 -4 -3 0 0 1 -3 0 -3
1532179871964263 0 0 0 -1 2 4 3 1
1532179871994184 1 -1 -1 -3 -4 -7 -1 -1
1532179872024103 0 1 0 0 1 -5 2 0
1532179872047041 0 1 -1 -1 -2 -10 -3 -1
1532179872061004 0 -1 0 -2 -2 -2 5 1
1532179872106882 -1 -1 -2 -1 1 7 -4 -1
1532179872128823 0 2 2 1 -2 -8 -2 -1
1532179872143783 0 -1 -2 1 4 4 2 -1
1532179872166722 -1 -1 -1 -3 -1 2 -4 -1
1532179872187666 7 -1 0 1 0 2 -2 -2
1532179872226562 -7 -1 0 0 -7 -22 0 -1
1532179872241530 0 -2 -1 -1 -1 5 -2 -2
1532179872264461 3 -2 0 -1 0 -2 -3 -1
1532179872294380 2 0 -1 -2 -7 -20 -1 0
1532179872346242 -1 -1 0 -1 0 -5 -1 -1
1532179872361202 0 1 -1 0 -2 0 -4 1
1532179872392119 -3 -3 0 -2 2 5 -1 0
1532179872413062 0 -1 0 -1 2 8 -1 -1
1532179872465942 1 0 -2 0 2 8 0 -2
1532179872482896 0 -1 -1 0 2 0 -1 -1
1532179872495862 1 -1 -2 -2 -1 0 -1 -2
1532179872520795 -3 -3 -2 -2 2 14 0 -1
1532179872540742 2 3 1 -3 -3 -8 -1 0
1532179872564678 0 -2 -2 1 0 11 -1 -3
1532179872600582 -2 -1 -1 -1 -4 -9 0 0
1532179872624518 0 -1 -1 -2 -5 -15 -4 -1
1532179872646459 -2 -2 -2 1 2 4 5 -1
1532179872684357 -1 0 1 0 -1 5 -2 -1
1532179872706300 2 -2 -1 -2 -1 6 -1 1
1532179872735221 0 -2 -2 -2 -1 3 4 -2
1532179872767135 -3 -1 -1 -2 1 7 -2 -2
1532179872804038 -2 -2 -3 -2 -1 0 -1 0
1532179872826975 -2 0 -4 -2 0 2 0 -1
1532179872839942 -1 0 1 1 0 -2 1 0
1532179872864875 0 -2 -2 0 2 -3 0 -3
1532179872893806 -1 -2 2 0 0 6 -4 -1
1532179872931695 -1 -2 -1 -1 -2 -3 1 -3
1532179872946655 0 -1 0 -2 0 6 0 0
1532179872976576 1 -1 -1 -1 -1 -1 0 0
1532179873006495 -1 1 -1 1 2 1 -4 -1
1532179873029435 -2 -2 -3 -2 -1 -2 -1 -1
1532179873051375 -2 -3 -2 -2 0 14 2 -3
1532179873066336 2 -1 -2 -2 1 4 4 1
1532179873089275 0 -1 -2 3 2 1 -2 1
1532179873103237 -2 1 2 1 -2 -4 0 -2
1532179873135163 0 -2 -2 -1 0 2 -1 0
1532179873150111 -1 0 0 0 -2 -3 1 -1
1532179873170059 0 -2 -1 -3 -1 0 -2 0
1532179873188011 -1 -3 -1 -1 -2 -5 -3 -1
1532179873223915 -5 -1 -1 -2 -4 -7 -2 -2
1532179873254832 0 -1 -1 0 -3 -7 -1 2
1532179873283755 0 1 -1 0 0 2 -2 -2
1532179873297718 -3 0 0 -2 -1 -3 -1 -2
1532179873329631 -2 0 -3 -1 -1 6 0 0
1532179873389471 -1 -3 -1 1 0 -2 1 1
1532179873434352 1 0 -1 -2 -2 -8 -2 0
1532179873449312 0 -1 -2 -1 -2 -1 -2 0
1532179873509152 -1 -3 -1 -1 0 0 0 -1
1532179873532090 -1 -1 0 -1 1 -2 0 -1
1532179873569001 -1 -1 0 1 -1 -5 -4 -4
1532179873591938 0 -1 -1 -2 -3 0 -2 -2
1532179873659749 1 0 -3 0 -3 -3 3 -2
1532179873683692 -2 -1 0 -1 -1 2 -2 -1
1532179873726574 0 0 1 -1 1 5 1 -2
1532179873749509 -3 -1 0 1 -1 -1 -2 -2
1532179873763471 -1 0 0 -1 0 3 1 -1
1532179873809348 -1 -2 -2 -2 0 9 3 2
1532179873839269 0 -1 -2 0 1 -2 -1 0
1532179873846250 0 1 -2 -2 -2 4 3 -3
1532179873928031 -2 -2 -3 1 2 9 -2 -3
1532179873937007 -2 -2 -1 -2 2 3 -3 -2
1532179873952965 -1 -2 -1 1 -3 -2 -1 -3
1532179874027764 0 -2 -1 -1 -3 -2 -3 -2
1532179874041740 -1 0 -2 -2 -1 -3 -1 0
1532179874071647 -2 -3 -3 -2 -1 -4 0 0
1532179874085626 -2 -1 -2 -1 -1 10 -3 0
1532179874131488 0 0 -1 0 0 5 2 1
1532179874146447 -1 2 0 0 -7 -20 -2 -1
1532179874169394 -1 -3 -1 1 2 12 -3 -2
1532179874206287 0 -1 -2 -3 -1 4 0 -1
1532179874252165 0 -3 -1 -1 -18 4 0 0
1532179874266128 3 3 1 -5 -8 0 2 1
1532179874304026 -1 1 0 1 11 -15 1 1
1532179874371845 -2 -2 0 13 10 -18 3 -4
1532179874385814 -3 -2 -4 -11 4 -1 12 1
1532179874409743 -3 -2 -1 -6 -8 7 -6 -4
1532179874431685 0 2 6 9 -4 16 -2 0
1532179874454623 0 0 2 11 -3 5 -5 1
1532179874476564 -1 -2 -5 -19 -17 -2 -5 0
1532179874491524 2 2 -2 -11 -12 3 -3 6
1532179874514463 -3 -3 -1 7 3 -2 -18 -7
1532179874565327 -2 -3 -1 -2 -17 1 4 2
1532179874619195 -3 -2 -3 -13 -6 -2 -3 -2
1532179874692986 -4 -4 -6 -13 -2 31 3 1
1532179874716923 0 -2 -4 -6 -8 8 -5 -1
1532179874753823 1 1 1 12 13 -10 12 4
1532179874836603 -1 2 4 4 -4 -14 -4 -2
1532179874875498 -2 -1 0 -2 4 -1 -17 -4
1532179874912399 1 -1 -3 -5 -13 -14 -3 -2
1532179874933343 1 -1 -5 -5 -27 -24 13 3
1532179874956282 -2 -3 -1 -4 21 37 13 2
1532179875008143 1 -1 -2 -8 -13 -15 -3 -1
1532179875031082 -2 -1 0 -5 -15 20 -16 -4
1532179875054021 2 0 0 -1 -6 11 8 1
1532179875090922 0 2 -5 -13 -5 -38 -6 -1
1532179875113860 -2 0 -2 -2 6 5 -5 0
1532179875151759 -1 -1 -2 1 7 10 1 1
1532179875173700 -2 -3 -3 -6 1 5 4 -1
1532179875188660 1 -2 0 7 12 10 -5 -1
1532179875210602 -1 0 -2 0 11 -1 -1 -1
1532179875233541 -3 -3 -3 -5 -6 17 -3 -3
1532179875256479 0 3 2 1 2 -3 4 3
1532179875293381 -1 -1 -1 -5 -7 5 -6 1
1532179875308341 1 0 -1 0 -5 -22 2 -3
1532179875331279 0 -1 1 1 -4 5 6 2
1532179875353221 0 -1 -2 -3 3 -3 6 1
1532179875391119 0 -2 -2 -4 -6 -1 0 0
1532179875413061 -3 -1 -1 -2 0 -5 -2 -3
1532179875450959 -3 -3 -4 -5 9 -5 -13 -8
1532179875481877 0 1 0 -1 30 8 3 2
1532179875512794 2 0 -2 -1 9 14 2 -1
1532179875518778 -1 -3 -2 -7 -11 -5 1 2
1532179875570639 1 1 1 -2 -11 -1 0 1
1532179875633471 -1 -1 0 -2 16 7 -1 4
1532179875683338 -1 -1 0 -1 7 -3 1 0
1532179875721236 1 0 1 -1 -18 -5 -1 -3
1532179875751156 -2 -3 -2 -1 2 9 -2 -2
1532179875812990 -1 0 -1 -2 -9 -15 -2 -1
1532179875984533 -1 -1 -1 -2 -7 -13 2 4
1532179876073295 -1 -1 2 0 15 -1 2 -1
1532179876098228 -2 -1 0 -7 -11 -5 0 -2
1532179876142112 1 0 0 2 -1 -17 -4 -1
1532179876157071 -1 0 -2 -4 -15 -3 -2 1
1532179876179013 0 -1 -2 1 16 4 0 0
1532179876230873 -2 1 -1 1 -26 -4 -4 -1
1532179876261805 -2 1 0 -1 0 0 -1 -1
1532179876313652 -4 -3 -2 -3 8 3 -2 -2
1532179876373492 -1 -2 -1 -3 -19 3 -1 -1
1532179876419369 -1 2 3 10 24 13 1 0
1532179876433332 -1 -1 -1 3 5 -6 -2 0
1532179876524089 -1 -2 -1 -2 -5 -2 -1 0
1532179876575951 -1 -2 -1 3 3 4 -1 -1
1532179876592905 1 -2 -1 -1 -5 -4 -2 -1
1532179876613849 -2 1 -1 0 -6 13 0 0
1532179876643770 -1 0 -1 -1 -2 -7 -2 -2
1532179876673689 0 -2 -2 3 9 -3 -1 -1
1532179876696628 0 -1 -1 -4 -11 -7 -3 -1
1532179876741508 0 0 -1 0 -5 -7 0 -1
1532179876756468 -1 -1 1 -4 -8 6 -1 0
1532179876779407 0 -2 -2 -5 -8 -1 -1 -1
1532179876803346 -2 -3 -3 -5 8 -7 -2 -1
1532179876839246 -1 0 1 -1 2 -5 -1 0
1532179876884126 -1 0 -1 0 1 -2 -1 0
1532179876899086 0 -1 0 -1 -3 -2 -2 -1
1532179876922025 -1 -3 -2 -1 -7 -6 -3 -2
1532179876958926 0 0 0 -1 -2 -2 -1 -3
1532179876972889 0 -1 -5 1 1 1 0 1
1532179876987849 -3 -2 0 0 7 -5 1 -1
1532179877018767 -1 -2 -2 -4 -4 4 0 0
1532179877041706 0 0 0 -1 -1 -3 -1 -2
1532179877079604 -2 -4 -2 -4 -15 1 -3 -4
1532179877092570 0 1 0 -1 12 0 0 0
1532179877107529 0 -1 1 8 5 -4 -2 -1
1532179877146426 -2 -2 -2 6 11 -3 -1 0
1532179877199283 -2 -1 -2 0 -5 1 1 0
1532179877222223 0 -1 0 -6 18 8 1 -2
1532179877258126 0 -1 2 11 13 -3 -2 -1
1532179877305999 -1 -2 -1 2 -3 7 -2 1

1532179877318964 0 2 0 -1 8 7 2 0
1532179877347886 0 1 1 -1 10 -10 6 1
1532179877358857 -3 -4 -3 -2 15 13 -13 -4
1532179877380889 0 -1 1 0 -11 -39 1 -1
1532179877407833 2 2 -1 1 7 26 0 0
1532179877425769 -4 1 -2 -4 7 -11 6 -1
1532179877440729 0 -4 -2 -2 -13 -38 -8 -3
1532179877461682 0 0 0 1 0 30 1 1
1532179877478198 1 -1 -1 1 -5 -7 -3 0
1532179877522080 -2 0 -3 2 23 2 3 -2
1532179877536043 0 -1 0 2 8 -27 -2 -1
1532179877558981 0 2 2 2 -6 8 4 -1
1532179877572944 0 0 1 2 15 12 0 1
1532179877595883 -1 -2 -4 -6 1 -2 3 0
1532179877610843 -2 -2 -1 -1 6 -5 -2 -2
1532179877649739 -1 -1 0 3 -1 -7 -3 -1
1532179877662704 0 -2 0 2 -2 -2 -1 -1
1532179877680656 0 0 0 0 1 -1 0 -2
1532179877703594 0 1 0 0 0 -2 -2 -1
1532179877725536 0 0 -1 0 -1 0 0 0
1532179877746480 0 -3 -1 -1 -1 -3 -3 -2
1532179877784379 1 -1 -1 -1 -2 0 -1 -2
1532179877822277 0 1 -2 0 12 -1 1 -1
1532179877850226 0 0 -1 -2 -4 2 0 -1
1532179877882141 -1 -4 0 -4 -3 -3 -2 0
1532179877895107 -3 -1 -2 0 -3 -3 -1 -1
1532179877912061 -2 -1 -1 -3 0 2 -1 -2
1532179877928036 1 -3 -2 -2 -2 -2 1 -1
1532179877971919 0 -2 0 1 -5 -3 -1 -1
1532179877978901 -2 2 -2 -3 -2 -2 -1 -2
1532179878008820 -1 -1 1 3 2 0 0 0
1532179878016800 1 0 1 1 -8 0 -1 -2
1532179878085615 2 -1 0 1 3 6 0 -3
1532179878101573 -1 -1 -2 -1 1 4 -1 0
1532179878166399 -1 0 0 -2 -6 3 -1 0
1532179878242197 -1 -1 -1 1 -1 14 -1 0
1532179878280095 0 0 -2 -1 -4 6 3 -2
1532179878302037 1 -1 1 1 1 15 0 1
1532179878323978 -1 -1 1 2 -4 -17 0 1
1532179878339348 0 -1 -1 -1 0 30 2 -1
1532179878369268 0 -2 0 -2 -7 -5 -2 -1
1532179878399187 -3 -1 -1 4 -8 -2 -2 -1
1532179878422126 -1 -1 -4 -6 -9 -34 -2 -3
1532179878435092 -1 -1 1 -3 17 9 -3 -2
1532179878444067 -1 -1 -3 -3 14 5 -5 -2
1532179878480969 -1 22 -1 -3 -3 7 -3 -1
1532179878497924 -2 -1 0 1 3 10 4 -1
1532179878541816 -2 2 -1 1 1 7 -4 -1
1532179878555769 1 4 0 0 -7 -21 -6 1
1532179878601507 -1 -3 -3 -3 -2 15 10 2
1532179878624446 0 0 -2 -2 8 8 -9 0
1532179878669325 1 0 0 -1 -4 -11 0 -1
1532179878706227 -1 1 -2 1 -3 6 -1 -1
1532179878744132 -1 1 2 -1 -2 6 1 -1
1532179878760089 -3 -2 0 1 19 45 5 -1
1532179878788014 -1 -1 -3 1 2 -8 3 1
1532179878805966 1 -2 -1 0 0 -3 -6 -1
1532179878824915 -1 0 -1 -1 0 -1 3 1
1532179878847854 -1 -1 0 -1 -1 -5 -2 0
1532179878878771 0 -1 -1 -2 -1 -3 -3 1
1532179878931630 0 1 -1 -4 -7 3 -3 1
1532179878961550 -2 0 -1 -3 -3 1 3 -1
1532179878997454 0 -2 -2 -1 -3 16 -3 0
1532179879044329 -2 -1 -1 -1 -2 0 -2 -1
1532179879050313 1 0 0 3 -6 -6 1 -1
1532179879068265 0 -1 0 -2 7 10 0 0
1532179879118132 -1 -1 -2 -1 2 6 0 -1
1532179879164250 0 -2 -1 -4 -8 -8 -2 -1
1532179879178213 -1 -1 -2 -2 0 11 0 -1
1532179879261989 -1 0 -2 -3 -3 10 0 0
1532179879297892 -3 0 -4 0 -7 -24 -1 -3
1532179879321828 -1 -2 -1 -2 5 -7 -2 0
1532179879367706 -1 -1 -3 -1 -1 10 -1 -1
1532179879396629 0 1 0 -1 0 9 0 1
1532179879434527 0 -1 0 -1 3 -3 1 -1
1532179879441509 0 -1 -1 -2 -4 3 -1 -2
1532179879471429 -3 -2 -3 -3 -1 15 -1 -2
1532179879516309 -2 -1 -2 -2 -3 -3 1 -1
1532179879538250 -1 -2 -1 -2 1 1 0 0
1532179879562186 -1 -3 -2 -1 -6 10 0 0
1532179879592105 0 -1 0 0 -1 -5 0 -2
1532179879636986 -1 0 1 0 8 2 -2 0
1532179879643967 0 -1 0 5 9 6 0 -1
1532179879673887 -1 0 -3 -3 -4 0 0 -1
1532179879711878 -3 -3 -1 -1 -6 -4 -1 -1
1532179879726837 0 1 -3 -1 1 -2 -2 -2
1532179879748788 0 0 0 -2 -3 -5 -2 -1
1532179879785689 -2 -1 -1 0 -1 5 1 -1
1532179879800641 -3 -1 -1 -1 -11 -7 -2 -2
1532179879831558 -1 -1 0 -3 1 2 -1 -1
1532179879886425 -3 -1 -1 -2 -3 -2 -1 -1
1532179879906357 0 -2 0 0 4 -1 0 0
1532179879959217 -2 -1 -3 -2 -2 0 -1 -1
1532179879975173 -3 1 1 0 12 16 0 -1
1532179879989136 -1 0 0 -1 -2 -1 -1 -1
1532179880027034 -2 -2 0 0 0 3 -1 0
1532179880040997 1 -2 -1 -1 1 3 -1 -1
1532179880086875 -2 -2 -3 -1 -2 0 0 -2
1532179880100838 -1 1 0 -1 -1 10 -2 0
1532179880123776 -1 -1 -1 0 -1 7 -1 0
1532179880146714 0 0 1 -1 2 -8 -2 -3
1532179880160677 0 0 -1 -1 3 -3 0 -1
1532179880206555 -2 -1 -2 -1 -6 -5 -2 0
1532179880244454 -1 -2 -1 -2 -10 -25 -3 1
1532179880280357 -1 -1 -2 0 -1 5 -2 -2
1532179880304294 0 1 -1 0 -1 1 -2 -1
1532179880350184 0 -1 -2 -1 0 2 1 0
1532179880365131 -3 -2 -2 -2 2 7 4 -1
1532179880387072 0 -1 0 -2 -2 -4 -1 -1
1532179880400038 -1 -1 -1 -1 -6 -5 -5 0
1532179880424971 0 -2 0 -2 0 7 0 -4
1532179880468854 -3 -1 0 -1 -2 -10 -3 -2
1532179880483814 0 -1 -3 -2 -2 -1 -2 0
1532179880506751 1 -1 -1 -1 -1 4 0 0
1532179880543654 -1 0 -1 0 -3 -11 0 -1
1532179880551632 -1 -1 -2 -1 -1 -4 2 -2
1532179880566592 -1 -1 -1 -2 -3 -1 -2 0
1532179880596512 0 -1 -2 2 1 -4 -3 -1
1532179880604491 -1 0 0 0 18 19 3 0
1532179880626432 -2 -2 0 -2 -4 -3 0 -2
1532179880657350 -1 -1 -2 -1 -5 -6 -3 0
1532179880686272 0 0 -2 -1 -4 -5 -2 0
1532179880732149 0 -2 -1 -3 0 -2 -1 0
1532179880747109 -1 -1 -1 -2 -6 -2 3 -5
1532179880821909 -1 -3 -1 0 -7 -10 -5 0
1532179880828891 -2 -2 1 -1 -1 -3 -2 -2
1532179880857813 0 -1 -1 -1 -3 -5 -2 1
1532179880888731 0 0 -1 0 2 6 -1 -1
1532179880910672 0 1 -1 -1 -2 0 -1 0
1532179880949567 -2 -2 0 0 6 -2 -2 -1
1532179880963531 0 1 -1 1 1 -2 -7 -2
1532179881017387 -1 -1 -1 -2 3 0 2 -1
1532179881023370 0 -1 0 0 1 -1 1 -3
1532179881053291 -1 0 2 -1 4 2 0 -4
1532179881114128 -1 0 0 1 13 9 -2 1
1532179881152027 -2 1 -2 -1 -6 -9 -2 -2
1532179881175962 0 -2 -1 -2 2 2 -1 -2
1532179881202891 -2 -1 -1 -1 5 1 1 -1
1532179881219845 -2 0 -1 -1 2 1 1 -1
1532179881256747 1 0 0 -2 2 -2 -1 -1
1532179881271707 0 -2 -2 -1 -1 1 3 0
1532179881294645 -2 0 -1 1 1 0 -2 -3
1532179881309605 -1 -2 -1 1 1 -2 -2 0
1532179881339525 0 -1 0 -1 -1 0 1 -1
1532179881346507 0 -3 -2 0 2 -4 0 1
1532179881382411 1 1 0 1 0 -2 0 -2
1532179881429286 -2 -1 -2 0 1 0 -1 -1
1532179881443248 -2 -1 0 -2 -1 3 1 0
1532179881489125 1 0 0 -2 2 1 0 -2
1532179881512064 -1 0 -1 0 6 2 0 -3
1532179881578885 -3 -2 -1 0 -1 -2 -3 -1
1532179881586864 0 0 -1 1 1 -2 -2 -1
1532179881669648 0 -1 -1 -1 0 -2 0 -1
1532179881692582 0 -1 -1 -1 -1 0 0 -1
1532179881751424 -1 0 -1 -2 0 -4 0 -1
1532179881789322 -1 -2 -1 -2 0 1 0 0
1532179881811264 -1 -1 -1 -2 -2 -4 0 -1
1532179881848164 1 0 -1 -1 1 1 -2 -2
1532179881871104 0 -1 -2 -1 -4 -2 -2 -1
1532179881909002 -1 -2 -2 1 1 0 -1 0
1532179881930944 -2 0 -4 -3 0 -5 0 -1
1532179881946901 -1 -1 -1 0 -6 3 -1 -2
1532179881976821 -3 -1 -1 -1 2 -1 0 -2
1532179881990784 -1 -1 0 2 -3 -4 -1 0
1532179882021701 0 -1 1 -2 4 0 0 -2
1532179882028682 0 0 -2 -1 1 3 -1 0
1532179882073562 -2 -3 -3 -1 0 -3 -1 -1
1532179882111461 0 0 -2 1 -5 -2 -2 1
1532179882125424 -3 -1 -1 -1 0 -3 -2 -1
1532179882148362 1 -1 1 -2 0 -4 -4 -2
1532179882171301 -1 1 -2 -1 -11 -10 1 -1
1532179882210197 -2 0 0 -2 -5 0 -1 -1
1532179882247098 0 0 -2 -1 -1 0 1 1
1532179882292975 -1 -1 1 0 1 2 -1 0
1532179882330874 0 -1 -3 -1 1 4 -1 -2
1532179882350821 -1 -2 -1 -2 -1 -1 2 0
1532179882366778 -1 -1 -1 -2 -2 -3 -3 -2
1532179882419637 -1 -1 -1 -3 -5 -5 -2 -2
1532179882440581 -1 -1 -3 -3 -1 -3 -2 1
1532179882501432 -2 0 -3 0 1 2 -2 -6
1532179882607136 -2 0 -1 -2 -2 -4 -3 -3
1532179882651018 -1 0 -1 0 -3 -2 0 1
1532179882689914 2 -2 -1 1 -1 0 0 0
1532179882726815 -2 -3 -2 -2 -2 0 -1 0
1532179882764713 -1 -1 -1 -2 1 -2 0 0
1532179882801616 0 -1 -2 -2 -1 0 -1 0
1532179882884394 -1 -1 0 -2 -9 -4 0 -2
1532179882921296 -1 2 0 3 5 1 -4 -2
1532179882960191 0 -1 0 2 4 -18 14 2
1532179883011055 3 -1 -1 -8 2 74 10 3
1532179883056933 -1 -2 -3 -11 -2 -14 -5 1
1532179883078874 -4 -3 -6 -5 -8 -20 -7 -1
1532179883161653 0 -2 -2 -7 -4 -3 2 -5
1532179883281333 -3 0 -2 -13 -8 6 -1 2
1532179883319231 -1 0 -4 1 8 -3 -2 -3
1532179883333194 -1 -1 2 -3 -9 -11 -1 -1
1532179883357130 3 0 -1 3 7 1 0 -1
1532179883371092 3 -3 -5 -8 -4 -7 -4 -5
1532179883402010 0 -1 0 1 16 -8 -6 -20
1532179883416970 0 2 5 12 -14 -13 -2 5
1532179883438911 9 2 0 8 4 5 4 0
1532179883453871 -3 2 6 13 4 9 2 0
1532179883491770 -4 -7 -7 -13 -10 -7 -5 0
1532179883536650 -1 1 -1 -12 -9 -24 -3 1
1532179883550612 -3 -3 -5 -5 -3 -16 -19 -5
1532179883573551 -6 -3 -4 -6 -3 -74 -1 4
1532179883610453 -3 0 0 1 40 21 -3 0
1532179883633392 -1 -6 -4 -10 -12 -26 7 2
1532179883656330 -1 1 2 10 -2 10 -15 -4
1532179883693255 10 -3 -1 1 12 38 14 -4
1532179883731153 -3 0 1 -5 22 57 -14 -1
1532179883753095 -3 -1 -1 0 -8 -5 -3 2
1532179883790993 1 -3 0 1 1 7 -8 1
1532179883813932 -2 3 0 2 -9 -3 16 5
1532179883837868 -2 -2 1 -3 0 13 9 -4
1532179883873772 0 -1 -5 -13 -4 10 1 2
1532179883896711 -4 -2 -2 -1 -64 -10 -3 -2
1532179883933612 -1 1 1 7 20 32 0 0
1532179883971511 -1 -2 -4 -6 5 -1 -5 0
1532179883994449 2 -1 -1 0 14 -8 5 7
1532179884016391 -6 -3 -5 -17 -5 41 1 -6
1532179884030354 0 1 2 5 3 -5 9 0
1532179884054289 -3 -3 -3 -3 -24 -1 -9 6
1532179884077228 -1 -1 -2 2 9 3 -4 -1
1532179884090193 -9 -3 0 -3 8 6 0 -4
1532179884114129 2 1 1 -3 -14 25 4 -5
1532179884137068 0 -2 -2 -7 14 -17 0 7
1532179884150034 1 2 4 22 21 -11 -19 -24
1532179884166988 0 -2 -4 -4 0 9 16 -1
1532179884175965 -2 -1 -2 1 -15 -5 -12 -2
1532179884197906 -1 -1 -3 -7 -23 -1 -9 -2
1532179884236801 1 1 -2 0 0 -6 -14 -9
1532179884316588 -2 0 -1 -3 0 -9 2 -2
1532179884355484 -2 -1 -1 -6 -6 -16 -3 -8
1532179884361468 -4 -2 0 7 15 -9 -4 -3
1532179884399366 2 -4 -3 -9 3 -5 -2 1
1532179884414327 -2 -1 -3 4 -6 9 -2 2
1532179884436268 -9 0 1 3 -18 -57 -6 1
1532179884473169 1 1 1 -1 -5 -2 2 -3
1532179884497105 1 0 -2 -2 11 9 -1 -4
1532179884519065 -2 0 -2 0 5 0 -1 3
1532179884533009 1 0 -1 2 -4 17 -1 -1
1532179884542982 1 -2 -4 1 -5 3 1 4
1532179884578887 0 -2 -3 -4 5 -5 2 -4
1532179884593847 -4 -1 1 0 -8 6 -3 -12
1532179884600828 1 2 -2 0 5 -4 0 1
1532179884630748 0 -1 -1 -8 -23 -10 -10 -5
1532179884640722 -1 0 1 8 -9 32 4 0
1532179884660668 -1 0 0 0 11 -1 1 -5
1532179884699564 -2 -2 -4 -4 -1 -23 -1 2
1532179884720508 -2 0 0 12 -5 7 3 -3
1532179884745441 0 -1 -2 -1 17 -5 4 -6
1532179884761403 -1 -3 -2 -7 -2 -1 -3 1
1532179884796305 1 -1 0 -6 1 -10 -10 4
1532179884818246 -1 -1 -2 1 3 0 -1 -4
1532179884833206 -1 -3 -1 -10 -4 -4 2 -5
1532179884848167 -3 -3 -2 1 -14 10 -5 -2
1532179884879084 -1 -3 -4 -5 4 4 0 0
1532179884893050 -1 -2 -1 -6 -14 -23 -1 1
1532179884909004 -1 -1 -3 -9 -7 -12 2 -6
1532179884946903 -1 0 -3 -2 6 8 -3 -1
1532179884969841 -2 -2 0 -4 -3 3 0 -3
1532179885012726 1 -1 -1 3 3 -4 3 0
1532179885036663 -2 -2 0 -3 -11 -27 -4 -4
1532179885072566 -2 -1 -2 -3 -1 8 3 -2
1532179885119441 1 -1 -2 -4 -2 14 3 -10
1532179885132407 -2 0 -2 -5 -11 -11 -7 -11
1532179885141397 -3 -2 1 6 18 4 -2 -7
1532179885186262 -3 -1 1 0 16 7 0 4
1532179885209201 -1 -1 -2 -1 -26 2 -3 1
1532179885239121 0 0 -2 -1 -4 3 1 0
1532179885262060 -1 -2 -1 -6 7 -5 0 -3
1532179885299958 0 1 2 2 -11 -14 -3 4
1532179885328881 -1 -2 -2 -11 -9 5 5 3
1532179885336860 -1 1 1 0 -10 2 2 -5
1532179885381740 -3 -1 -2 -4 0 1 3 0
1532179885404678 1 2 3 16 16 -1 1 0
1532179885441580 0 0 -5 -5 -4 -1 1 2
1532179885455542 0 -1 -1 1 -28 -1 3 2
1532179885523361 -2 -2 -4 -2 -1 -2 -1 -1
1532179885561260 2 0 -2 -9 -15 -1 0 -1
1532179885576220 -2 -2 -1 -1 6 -2 0 2
1532179885590182 3 6 3 3 -5 1 2 0
1532179885601153 -2 -4 -3 0 0 -3 1 3
1532179885624091 0 -2 -2 8 -5 -2 -1 2
1532179885658998 -3 -2 -3 -4 7 -2 -3 -20
1532179885681937 0 -4 -5 -7 0 -1 -1 5
1532179885695900 0 -1 -2 8 10 -1 6 0
1532179885733798 -5 -3 -1 -1 -1 -1 -5 -7
1532179885741777 -1 1 -1 0 -5 -4 -6 6
1532179885764715 -1 -6 -6 -8 -9 -1 7 2
1532179885815579 -1 0 2 -3 9 3 -1 0
1532179885824558 -1 -3 -6 0 13 1 -4 -4
1532179885840513 0 -1 -6 -7 7 -1 9 7
1532179885870433 -2 -12 -5 -1 -4 -13 -2 6
1532179885908331 1 8 2 -2 -6 2 11 5
1532179885952214 1 0 5 10 -11 1 15 2
1532179885961190 -1 -3 3 -15 3 -3 -6 7
1532179885995099 -1 -10 22 14 2 4 15 -2
1532179886027013 1 4 -1 14 14 6 6 1
1532179886041974 0 -7 -17 -18 -11 -4 9 1
1532179886078875 1 24 16 -16 -22 -8 -2 4
1532179886101814 -5 -4 -23 -20 -11 -4 -15 -8
1532179886115776 -1 -9 -11 0 8 3 1 2
1532179886161654 0 -1 13 -37 -1 -1 9 -3
1532179886184593 -2 -6 -11 -19 -6 2 -9 -1
1532179886205537 2 -3 -2 5 3 0 3 -1

1532179886230470 -3 8 6 5 -10 -6 11 -3
1532179886258395 -1 5 0 -17 -9 -6 -15 -1
1532179886281333 3 5 -2 26 0 4 2 11
1532179886327211 -5 -14 -29 -11 -7 -6 -18 -2
1532179886387051 -4 -13 -4 -22 -24 -5 -2 -6
1532179886446892 2 -9 19 30 -9 -5 -4 -1
1532179886461851 0 3 13 32 4 4 4 0
1532179886506731 1 1 11 21 31 6 4 -2
1532179886544657 0 23 20 -7 -10 1 7 -4
1532179886566597 -2 -4 -16 -21 -5 -4 9 -3
1532179886583553 0 7 19 -15 3 6 1 -5
1532179886613472 -1 -9 -4 13 11 4 6 -1
1532179886702234 -3 8 -17 -4 3 -6 -13 -8
1532179886747115 1 -3 15 37 -1 -2 -11 -4
1532179886806954 0 4 -16 -14 -1 -1 2 0
1532179886821915 -4 3 -5 -10 -12 -8 1 -4
1532179886857819 2 15 14 22 -10 -10 -4 3
1532179886889597 -5 -34 -42 -28 -12 -7 6 -7
1532179886904540 0 6 2 3 4 8 15 2
1532179886941443 2 34 34 31 10 4 -9 2
1532179886964381 -5 -38 -23 -16 3 -1 7 -4
1532179886978357 2 -2 49 17 10 0 2 -4
1532179887024432 0 10 -9 -7 1 2 1 0
1532179887047370 2 9 3 7 7 6 2 2
1532179887084286 -15 13 15 -11 11 10 -8 2
1532179887098249 7 28 22 2 -13 -24 -14 -4
1532179887135150 -1 -20 -12 -10 -5 -9 -14 -2
1532179887189007 -1 -23 -16 -7 -11 2 11 0
1532179887226905 9 -4 -39 0 -4 -24 5 -1
1532179887286744 -4 10 15 -3 2 5 5 -3
1532179887307689 16 44 27 17 16 2 6 0
1532179887406425 -3 7 -23 -1 -2 1 -9 -5
1532179887420387 -3 9 9 1 6 2 14 1
1532179887481224 1 -8 -11 6 -5 0 -13 6
1532179887504164 -2 -3 4 -2 0 -5 -6 -2
1532179887540067 -6 -14 -19 -14 0 -8 -41 -11
1532179887564004 -1 -4 -5 4 8 2 15 0
1532179887600907 4 -27 -10 1 -4 -2 -9 -2
1532179887654769 0 -22 -5 1 -4 -1 19 1
1532179887660745 1 9 0 -1 1 1 5 1
1532179887676702 -1 9 3 11 6 -1 10 1
1532179887691670 -1 -7 -2 -6 -4 -4 3 -2
1532179887735338 1 -3 -3 0 -2 -9 89 2
1532179887766255 0 3 -4 -2 -1 -3 -94 -2
1532179887849041 -2 -13 -14 -5 0 0 -46 4
1532179887879958 0 -3 -9 0 -1 -2 44 -5
1532179887894410 2 18 2 -2 -4 -2 37 2
1532179887946271 1 5 0 -2 1 -1 3 0
1532179888020073 -2 -5 -2 -4 16 0 -4 3
1532179888079913 -1 -2 -6 -16 -5 -4 -11 -31
1532179888126813 -3 -8 -6 -7 -4 0 0 1
1532179888163714 -2 -3 -3 -14 5 2 -11 -1
1532179888194632 1 1 1 0 5 2 4 5
1532179888232531 3 0 1 3 16 2 2 -2
1532179888246494 -3 -1 -2 3 3 0 -1 1
1532179888276413 -2 -3 -3 -4 4 -2 0 2
1532179888306334 0 -1 -3 -7 -6 -2 1 0
1532179888352210 -2 -3 -2 0 -10 -4 -2 -2
1532179888389112 0 0 -1 -3 -8 0 -3 0
1532179888462915 1 -1 1 -1 3 1 2 0
1532179888486851 -2 0 1 2 3 1 -1 -2
1532179888522755 0 -3 -1 -6 -8 7 1 1
1532179888571624 0 -2 2 11 3 1 1 0
1532179888583592 -2 -1 -3 3 0 -8 0 -1
1532179888629470 0 0 -1 -2 1 -2 -1 -1
1532179888643432 -1 -2 -2 1 0 -2 0 -2
1532179888666371 0 -1 0 -3 0 -1 1 0
1532179888689309 -1 -2 -1 -1 1 -1 -1 1
1532179888727207 -3 -3 -2 -2 -1 -3 -1 -2
1532179888763112 0 -1 -1 -1 0 0 -1 -1
1532179888832926 -2 0 1 0 -2 -1 -1 -2
1532179888838910 2 0 -2 -1 -1 -1 -1 -1
1532179888876808 -2 1 -2 -1 0 0 -2 -1
1532179888928670 0 -1 0 1 0 -2 -1 -1
1532179888952605 -3 -2 -1 -1 -1 0 -2 0
1532179888988509 -1 -2 -2 0 2 -2 -3 -1
1532179889011448 -2 -1 -2 -2 -1 0 0 -2
1532179889048349 -4 -1 -1 -1 -1 0 0 2
1532179889071288 -2 -1 -1 -1 -1 -2 -3 1
1532179889131128 2 -1 1 -1 -1 1 -1 0
1532179889168030 -1 -2 -1 -1 0 -3 -2 -2
1532179889198947 -2 1 -1 0 0 0 -1 -2
1532179889228867 -2 0 0 0 -1 -2 -2 -2
1532179889250808 1 -2 -1 -1 -2 -2 1 -1
1532179889267772 -2 0 -1 1 -1 0 -5 -3
1532179889288706 -2 -1 -1 -2 -2 0 -25 -1
1532179889310648 -1 -1 -2 -1 0 -1 16 -2
1532179889334584 0 -2 0 0 -1 -1 -2 -2
1532179889348547 0 -2 -3 -1 -2 0 -3 1
1532179889371485 -1 -1 0 -3 0 1 6 0
1532179889394424 -1 -1 -2 -2 0 -1 -1 0
1532179889408386 -1 0 0 0 -1 -2 -1 -1
1532179889446285 -2 -1 -2 -1 -1 -1 4 -1
1532179889491165 1 -1 -2 0 -1 0 -1 -1
1532179889506126 -2 -2 0 -1 0 -1 1 2
1532179889528067 -2 0 0 0 -1 -1 -3 -2
1532179889588904 -1 -1 -1 0 0 -3 -2 0
1532179889625805 -1 0 -3 -2 1 0 1 -1
1532179889648744 -2 1 0 -1 -1 -2 2 -2
1532179889700605 0 -1 -1 -2 -1 -2 -2 -2
1532179889739501 -1 -2 -1 -2 -1 -1 2 0
1532179889754461 2 -1 0 -1 -2 0 -1 2
1532179889775405 -1 0 -1 1 -1 -1 -3 -2
1532179889791363 -1 -2 -2 -1 -2 -1 -1 -1
1532179889874141 -3 0 -1 -1 -1 -1 0 -1
1532179889888104 -1 -1 0 -1 -1 -1 -3 -8
1532179889940962 2 0 -2 -2 -1 -1 -2 0
1532179889970882 0 0 -1 -2 -1 -1 0 2
1532179889985843 -2 -2 1 -1 -1 -1 -1 -1
1532179890016760 -2 -1 -2 0 0 1 0 0
1532179890030723 -1 -1 -3 -2 -1 -1 -1 -1
1532179890061640 0 -3 -1 0 0 -1 0 1
1532179890068621 0 0 -1 -4 -1 -2 0 0
1532179890114498 -1 -1 -1 0 -1 -1 -2 -1
1532179890128461 -1 -2 0 -1 -1 -2 -1 -2
1532179890151400 0 0 -2 -1 -2 -1 0 0
1532179890188301 -1 -2 0 -1 1 -1 -1 -1
1532179890211240 -1 -3 -1 0 -2 -1 -2 0
1532179890242157 0 -1 -4 -1 -2 -1 -1 -1
1532179890271080 -1 -2 0 -2 0 1 0 -2
1532179890294018 1 -1 -2 1 -2 -2 -2 0
1532179890308979 -2 -2 0 -1 0 -2 0 -2
1532179890330920 -1 -2 -2 -3 1 -1 -3 -1
1532179890361837 1 1 -1 -1 -3 -1 1 1
1532179890376797 -3 0 -1 0 -2 0 0 -3
1532179890390760 1 -1 0 0 -1 -3 0 1
1532179890414696 -2 -1 0 -1 1 -2 -1 1
1532179890428659 -2 -1 -3 0 0 -1 0 -1
1532179890450600 -1 0 -1 -1 -2 -1 -1 0
1532179890474536 -1 0 2 -2 -3 0 -4 -1
1532179890496477 -2 -3 0 -1 -1 0 -2 0
1532179890519416 1 0 -2 -1 -1 2 2 2
1532179890548338 -1 -1 0 -1 0 -2 0 -1
1532179890618152 -1 -3 -1 -1 -1 -2 -1 -1
1532179890623139 0 -3 -1 -1 -1 -1 -1 -1
1532179890654056 -1 2 -1 -2 -1 -1 -1 -4
1532179890668018 1 -1 -1 1 -2 -1 -1 -2
1532179890690957 -2 -2 -3 -3 -1 -1 0 1
1532179890721874 -1 1 -1 -1 -2 1 -3 -1
1532179890751794 -2 1 -1 -1 0 -3 1 -1
1532179890774733 -1 -1 -1 -1 -2 -1 -2 -2
1532179890810636 -1 -2 0 0 -1 0 1 -3
1532179890834573 -3 0 -1 -3 -1 0 0 0
1532179890871474 0 -1 0 -2 -2 -1 0 0
1532179890916354 -2 -1 -1 -2 -1 0 -1 0
1532179890954253 -1 0 -2 -3 0 0 2 -1
1532179890968215 0 1 -1 0 -2 -2 -3 0
1532179890991154 -1 -1 -1 0 0 0 -2 -2
1532179891014093 -2 -2 -1 -1 -2 0 0 -2
1532179891050994 -2 -1 -1 0 -2 -1 0 0
1532179891103853 1 -1 -1 -2 -1 -3 -1 0
1532179891134770 -1 -1 -2 0 -1 0 2 -2
1532179891156711 -1 0 -2 0 0 0 -2 -1
1532179891194610 -1 -1 0 -2 0 -2 -1 -1
1532179891284370 -2 0 -3 -2 -1 1 -1 -3
1532179891290354 -1 -1 -1 0 -1 -1 -2 -2
1532179891337229 0 -2 -2 0 0 -1 -1 1
1532179891374130 -1 0 -1 -1 0 -2 0 0
1532179891397069 -1 -2 -1 -2 0 -1 -2 -1
1532179891434967 -3 -1 -1 -1 1 6 2 0
1532179891456909 -1 -1 -3 -5 -9 1 0 0
1532179891486829 -1 -2 -2 -3 9 -6 -2 1
1532179891539687 -1 -2 1 14 24 2 -3 -1
1532179891599527 0 0 0 -3 6 1 5 7
1532179891605511 -1 -7 -3 -8 -1 -7 -4 0
1532179891636429 0 0 2 3 -6 3 3 0
1532179891659367 -2 0 5 10 3 -5 -4 -3
1532179891682317 -1 -1 -7 -11 -4 -1 -3 -4
1532179891699261 -2 1 2 7 -2 -1 0 3
1532179891725191 -1 -1 -1 -2 1 -2 -2 -3
1532179891740151 -1 -1 0 1 -2 -2 -2 -3
1532179891764087 0 -1 -1 11 2 0 -2 -3
1532179891779047 -3 -2 2 -11 -5 -4 -3 -2
1532179891799992 0 0 -3 -2 -1 -2 -1 -3
1532179891829911 -1 0 2 13 10 -9 -1 -1
1532179891845869 -1 -1 0 2 -1 28 -1 0
1532179891860829 1 -2 1 -4 -8 -38 4 0
1532179891890749 0 1 3 10 18 12 2 -1
1532179891906705 0 1 1 4 -2 -16 -1 0
1532179891921666 -1 -2 0 -2 6 14 -2 -3
1532179891938621 -2 -2 2 -1 -8 -3 -2 1
1532179891960562 -9 0 -1 -3 6 24 3 -1
1532179891980508 -2 1 -2 0 -3 26 2 2
1532179892019405 1 1 1 -3 -4 -1 -2 -2
1532179892041346 -4 -2 -1 -3 -3 5 0 4
1532179892079244 -21 -3 -4 -8 -7 -16 -6 3
1532179892093207 5 -1 1 2 16 -4 -3 -6
1532179892130109 0 -1 -5 -7 1 6 4 -1
1532179892141079 2 -1 -3 -6 12 22 -1 -2
1532179892163020 -2 -7 -4 -4 7 21 -5 10
1532179892177981 -4 4 5 0 -2 -19 5 -2
1532179892200919 3 -3 1 13 28 32 6 -2
1532179892221863 -2 -1 -4 -8 14 -4 -10 -2
1532179892281704 1 0 -1 2 -10 -5 7 1
1532179892295666 -6 2 0 7 3 16 5 -4
1532179892304642 0 1 -1 -11 3 -1 2 2
1532179892356503 -1 0 2 6 11 -18 -5 -9
1532179892379442 -2 -2 -5 -8 -13 -11 -19 -2
1532179892402380 0 -1 -4 -3 3 -9 5 4
1532179892426317 -1 3 -2 -3 1 2 8 -4
1532179892462221 -2 -5 -3 -9 16 -13 -6 7
1532179892477180 -2 -3 -2 -6 1 -24 -7 2
1532179892515079 -2 1 4 13 11 23 -9 -20
1532179892529041 -2 -1 0 1 -13 0 -4 -1
1532179892538028 -2 -3 -2 -4 6 1 -7 2
1532179892560956 -5 -4 -5 -4 4 4 -21 -21
1532179892581900 4 3 5 15 14 -3 13 7
1532179892618834 0 0 5 15 -1 -3 5 1
1532179892632787 -2 -2 -2 2 6 15 2 -7
1532179892664702 -3 -1 -1 -3 2 2 -1 -2
1532179892679662 -2 -2 -3 -4 -6 -20 -9 -5
1532179892702612 -1 -3 -2 -5 1 -3 -2 -1
1532179892718561 -1 -3 -2 -1 -15 9 -6 -1
1532179892740499 -3 -1 -2 -5 -13 -16 1 -5
1532179892769435 -2 -1 0 1 -1 -6 1 3
1532179892799342 -2 -2 -3 0 -18 -22 -11 -2
1532179892813305 -2 -2 -2 -6 15 20 4 0
1532179892828264 1 0 -1 -3 -1 -11 1 0
1532179892882121 1 1 2 3 -34 11 5 0
1532179892897081 0 -1 2 1 13 -3 5 1
1532179892919038 -4 -3 -2 -4 5 16 -1 2
1532179892941961 -3 -3 -3 -1 -17 -5 -10 -4
1532179892978862 4 1 0 0 3 -7 -8 -4
1532179893001800 -1 -1 0 3 -19 -24 3 0
1532179893015763 1 0 1 5 17 11 2 2
1532179893046680 -1 -1 1 8 -29 -11 1 2
1532179893067624 1 4 -2 -2 4 -13 -2 -1
1532179893121481 -2 1 0 -1 9 -4 1 1
1532179893136441 -2 1 0 1 5 15 3 13
1532179893142442 -1 -1 -2 -9 0 4 -7 -1
1532179893174339 -3 -2 -2 0 20 7 -2 -6
1532179893196280 -3 5 2 4 10 2 1 -7
1532179893210243 -2 -2 -6 -10 2 -8 6 0
1532179893242158 -3 -3 -3 -4 1 -5 -9 -11
1532179893256120 -3 -3 -3 -3 4 -3 6 13
1532179893279059 0 -1 0 1 0 -18 -1 -1
1532179893301998 2 -3 -2 -9 -5 -4 1 -5
1532179893323939 -2 0 0 -3 5 4 6 7
1532179893344883 -1 -21 -15 -3 -7 -14 -1 -9
1532179893375801 -2 0 -1 -1 -1 -1 -12 -4
1532179893398739 1 -1 -1 -3 -11 1 8 -1
1532179893429656 -4 -5 -6 -5 -4 9 -2 3
1532179893466558 -1 -2 -1 6 2 -5 0 0
1532179893481518 -1 9 8 -1 3 -11 -4 -3
1532179893495481 -1 -3 0 2 22 -7 -12 -9
1532179893519434 -1 -5 -6 -10 -21 -4 4 6
1532179893541358 -1 -3 -1 2 -1 0 -2 -6
1532179893555320 0 -1 -1 2 10 -2 7 12
1532179893602206 -2 0 -2 -2 -14 3 -9 -2
1532179893615160 -2 0 0 -6 -11 -31 0 0
1532179893624137 -1 -1 1 7 10 1 -5 -4
1532179893641094 -2 -2 -1 2 -11 -1 3 0
1532179893663032 -2 -3 -3 -2 16 1 -1 1
1532179893686969 0 -1 0 -5 0 -6 -2 2
1532179893704920 -3 -1 -2 -5 -7 -2 -2 -12
1532179893723870 1 -1 -1 0 -4 -5 -3 -1
1532179893745811 0 0 -1 0 10 3 1 0
1532179893760773 0 0 -1 -2 -1 5 -1 -2
1532179893783710 0 0 1 0 1 -5 -2 -1
1532179893804654 0 0 -1 -2 -9 4 0 1
1532179893825598 -2 -2 -1 -1 -1 1 5 2
1532179893843550 -2 -1 -2 -1 -4 -7 -2 1
1532179893865491 -1 -2 -1 -1 3 1 2 -1
1532179893885438 1 0 -2 0 2 0 -1 0
1532179893924334 -1 -1 -3 -4 -2 1 0 -2
1532179893939294 -2 -2 -3 -8 -8 -15 2 -5
1532179893969220 -1 -1 -1 0 0 -1 -3 1
1532179893998136 -1 -2 -1 -2 -2 3 -3 0
1532179894007112 -2 -1 -1 -1 1 5 -1 -2
1532179894044014 -2 -1 -1 -1 5 -1 0 -1
1532179894057976 0 -1 -3 -6 5 0 3 1
1532179894066952 0 -3 -7 -20 -20 -6 -8 -10
1532179894103854 -3 -5 -3 -3 7 -1 -1 -8
1532179894126792 1 -1 3 11 13 -17 -1 1
1532179894164691 -2 -1 -1 -1 2 -5 -7 5
1532179894177656 1 -1 -2 0 18 6 4 -3
1532179894192616 1 4 2 4 13 6 0 3
1532179894207585 -2 -1 -1 0 1 -10 2 -12
1532179894225528 2 3 0 2 -1 -28 0 4
1532179894246472 0 -1 3 8 14 43 10 2
1532179894283373 -1 0 0 6 -8 -1 1 2
1532179894321272 -4 -3 -2 -4 -15 20 -7 -3
1532179894344211 -2 -4 -7 -6 11 25 -2 -4
1532179894358173 -1 -3 -2 -1 5 -10 2 -1
1532179894404051 -2 -1 0 -6 -35 -16 -1 0
1532179894418013 -1 2 -1 -5 2 -6 1 0
1532179894448931 -1 -2 -1 -7 -17 2 -4 -2
1532179894471870 -2 2 -1 6 12 2 -11 -2
1532179894486830 0 -2 1 1 5 0 8 4
1532179894502787 -1 -1 0 0 4 -3 6 10
1532179894524743 0 -2 0 10 18 -2 -1 7
1532179894561629 0 1 1 9 14 13 -5 -8
1532179894584568 -1 -3 -2 -2 -4 -9 -4 -6
1532179894597533 0 -2 -1 4 2 2 0 -11
1532179894620472 -1 0 0 -8 -30 -14 -10 -2

1532179894643411 -4 -1 -1 -7 -10 -44 -11 -3
1532179894658371 -1 -3 -3 -2 -10 -5 5 1
1532179894704248 -1 -1 -2 4 0 -17 -6 -8
1532179894733171 -2 1 -2 1 -23 -17 0 -2
1532179894832151 0 0 -3 -4 3 8 -3 -1
1532179894854092 -1 -1 -2 -7 -10 9 -4 -8
1532179894892005 -2 0 -2 -5 -1 -11 -2 0
1532179894944849 -2 -2 -2 -5 0 12 -2 1
1532179894974770 0 1 0 -3 -2 0 -1 0
1532179895011671 0 0 -1 0 7 -9 0 -3
1532179895026632 -1 -2 -2 -2 1 0 -4 -2
1532179895101442 -1 1 1 1 8 0 -3 6
1532179895139337 -3 -2 -3 -7 -23 -9 -3 1
1532179895184210 -1 0 -3 -2 4 -3 0 6
1532179895221125 -2 -2 1 4 -5 2 1 -5
1532179895252042 -1 -2 -2 -3 8 0 -4 -3
1532179895340879 -2 -1 -1 -3 1 -1 -1 0
1532179895393728 -1 -1 -2 -5 0 -1 0 -1
1532179895409686 -2 -2 0 0 -1 1 -2 -2
1532179895460573 0 -1 1 3 -1 -2 -1 -1
1532179895568285 0 -1 1 2 -8 -1 -1 1
1532179895709053 1 0 0 1 0 -6 -2 0
1532179895746937 0 -1 3 11 -5 -4 -1 0
1532179895828911 -1 -1 -2 -1 5 -1 -3 -1
1532179895858831 -1 -2 -2 1 7 -2 -1 -3
1532179895889322 -2 -1 0 -1 -2 0 -2 -2
1532179896046900 -2 -1 -1 -2 -2 -3 -3 -1
1532179896091780 -2 -2 0 -1 -7 -2 -1 -1
1532179896108735 0 0 -2 -4 -10 7 0 0
1532179896159599 -2 -4 -3 -4 -15 6 1 -2
1532179896205476 -3 -2 -14 -5 -22 -25 -2 -1
1532179896249897 -4 -25 4 -20 -1 -12 -1 -29
1532179896330681 1 -6 0 -25 5 -2 -3 1
1532179896377555 -7 -18 -10 -39 -11 -6 -6 -5
1532179896526172 -5 -1 12 -2 -7 13 7 3
1532179896610960 -2 -2 2 2 -35 -11 34 3
1532179896676784 -4 2 3 4 16 13 18 -44
1532179896713685 -3 -9 -8 2 -4 1 -3 3
1532179896731637 4 -12 1 3 -5 6 9 -6
1532179896797461 22 15 18 4 3 -46 -12 8
1532179896826567 5 1 -6 1 -4 11 8 3
1532179896848510 4 -21 -15 0 1 8 -4 4
1532179896886409 -14 -15 0 -1 -9 3 3 7
1532179896916329 8 6 -3 -7 -20 4 -6 -7
1532179896931288 -3 32 2 -1 10 10 7 3
1532179896956222 -15 4 -6 -7 -4 -10 -59 -17
1532179896992126 -72 -41 -19 0 12 57 -6 4
1532179897006089 4 18 10 6 -16 32 28 5
1532179897088900 42 23 8 -4 30 -8 26 -16
1532179897127796 14 -53 -23 -15 -30 -10 13 32
1532179897180654 3 15 7 5 -4 -7 3 7
1532179897247539 -1 -2 -1 0 9 3 0 0
1532179897285437 1 0 -1 -1 -14 -5 1 -14
1532179897316404 -2 18 37 3 -5 -2 -4 -5
1532179897351297 6 -20 -24 -1 -2 -1 2 7
1532179897381217 21 3 14 5 1 4 2 32
1532179897435076 40 26 5 -1 -5 -2 1 -4
1532179897472972 0 0 -1 -1 -3 -1 -4 3
1532179897509873 -3 13 12 0 -2 0 4 8
1532179897547772 -5 -11 -6 -1 -1 2 1 -15
1532179897592652 -3 0 -5 -4 -3 -1 5 1
1532179897614593 -2 -3 0 7 -3 -2 1 -1
1532179897628555 -2 -4 -4 -7 -32 -9 -3 -4
1532179897681414 0 3 5 23 -5 -4 -1 7
1532179897688396 0 1 -5 -11 19 -1 10 0
1532179897734327 -3 -2 4 19 27 -3 -2 0
1532179897788182 0 -1 -1 -1 7 7 1 -4
1532179897802146 -4 -3 -6 0 -1 -7 -4 -3
1532179897854007 2 3 2 2 14 12 6 4
1532179897913847 -1 -3 -2 -6 0 6 48 3
1532179897928807 -1 -3 -2 -3 -1 1 -23 -1
1532179897997623 -1 0 -1 0 2 -3 -11 -2
1532179898003607 1 1 -1 -1 -2 1 1 -1
1532179898065441 -1 -1 -1 1 0 0 -6 1
1532179898080402 0 -1 0 -2 -3 -1 -2 -2
1532179898103344 0 -1 -1 0 -2 -1 -1 -3
1532179898154204 0 -1 -2 -2 -2 -6 -7 -1
1532179898169164 -2 -2 -3 -2 -4 3 -17 -4
1532179898191106 1 1 -1 -1 -2 -6 3 2
1532179898237980 1 -1 0 0 -2 -3 3 0
1532179898260918 0 0 0 0 -3 2 5 1
1532179898273884 -1 0 -2 0 0 -1 2 -1
1532179898287847 -2 -1 -1 -1 -1 -3 -4 -3
1532179898319762 0 -1 0 0 0 0 0 0
1532179898343697 0 0 0 -3 0 -1 3 0
1532179898356663 -1 -1 0 -1 0 0 -2 0
1532179898393565 0 -1 -1 -2 -1 -1 0 2
1532179898427473 -2 -2 -2 0 -1 -1 0 -2
1532179898463383 0 0 -2 -1 -1 -1 0 -1
1532179898476343 -1 -2 -2 -1 -2 -1 -1 -1
1532179898514242 -1 0 0 0 0 -5 4 0
1532179898537181 0 -1 -1 0 2 4 2 -2
1532179898551143 -2 0 -2 -1 -2 -4 -14 -4
1532179898582059 -1 -2 -2 0 -3 -1 2 0
1532179898597020 0 -1 0 0 -2 1 0 0
1532179898672817 -1 0 -1 -1 1 0 0 -1
1532179898679798 -1 -2 -3 -1 -1 -1 -5 -2
1532179898716699 -1 -1 -2 -2 0 -3 -3 -1
1532179898738641 -2 0 -1 -1 -1 -1 0 1
1532179898792498 0 -1 0 -1 -2 -1 -4 -1
1532179898831394 -3 -2 -2 -1 -2 -3 0 1
1532179898859319 -2 0 -2 -1 -1 -2 0 -2
1532179898874278 -2 -2 -1 0 -2 -1 -2 3
1532179898913175 -1 -2 -2 -3 1 -3 -2 0
1532179898919158 -2 -1 -2 0 0 1 1 0
1532179898980993 1 -3 -1 -1 -1 2 0 -1
1532179898993959 -2 -1 0 0 -2 0 -1 -3
1532179899053799 -1 -1 -1 -1 -1 -2 -3 -2
1532179899098679 0 1 -1 0 -1 -3 -4 -1
1532179899137575 -1 0 -2 -1 0 0 3 -3
1532179899150540 1 -2 -2 0 -4 -2 0 -2
1532179899203406 1 -1 -1 -1 -1 0 -1 -2
1532179899225340 -1 -2 -1 -2 -1 -2 -1 -2
1532179899270220 0 -2 -1 0 0 1 0 2
1532179899294156 1 -2 -1 -1 -2 0 0 2
1532179899330060 0 -2 -2 -1 -1 -1 0 3
1532179899353996 -2 -1 -1 -3 0 0 -2 -9
1532179899376934 -2 -2 -1 -1 -1 -1 -1 2
1532179899382918 -1 -1 -2 -1 0 -1 -1 -2
1532179899400870 -1 1 -2 -2 -3 -1 1 1
1532179899436774 -2 -1 0 -1 0 -1 -1 0
1532179899458716 -1 -1 -1 0 -1 -1 -2 0
1532179899496614 -2 -1 -2 -1 -1 0 0 -2
1532179899535514 -1 0 0 -4 0 -1 0 0
1532179899541494 0 -1 1 -1 -2 -1 -3 2
1532179899558456 -1 -3 0 -1 0 -2 1 0
1532179899600337 -2 -1 0 0 -3 0 -1 -5
1532179899619288 -3 0 1 1 -1 -1 -3 -2
1532179899655191 -2 0 -1 0 2 0 -1 0
1532179899699073 1 -2 0 -1 0 -1 0 3
1532179899714033 0 -2 -3 -1 -3 -1 -1 -2
1532179899775868 -1 -2 -1 -1 -1 0 -1 -3
1532179899796812 -2 1 0 0 -1 1 -1 0
1532179899856652 0 0 0 -1 -2 -1 0 -1
1532179899886572 -3 0 -1 0 0 -1 -4 -3
1532179899900534 0 0 -1 1 -1 -1 -3 0
1532179899969350 -2 0 -3 -2 -1 -1 -2 -1
1532179900007249 0 -1 0 0 -1 -1 0 0
1532179900044150 -1 0 -2 0 -1 0 0 -3
1532179900073073 -2 -2 -2 -1 0 -1 -1 1
1532179900097009 -1 1 0 -1 -2 0 0 -1
1532179900126929 -1 0 -1 -1 -2 -1 -1 0
1532179900170812 -1 -1 0 -1 0 0 0 -1
1532179900185771 -1 -2 0 -1 -3 -1 -1 2
1532179900216689 -1 -1 1 1 1 -2 -1 -1
1532179900247606 -1 -1 -2 -1 0 0 -2 -2
1532179900261587 -1 -1 -2 -3 0 -1 0 -2
1532179900299467 0 0 -2 -2 0 -2 0 -2
1532179900368283 -1 -1 -1 -1 0 -2 -1 0
1532179900375265 -1 -1 -2 -3 -1 -1 -1 0
1532179900419147 0 -2 -2 -1 1 -1 -1 0
1532179900486966 0 -1 -1 -1 -2 -1 1 0
1532179900561772 -3 -3 -1 -1 -1 0 -1 -1
1532179900612636 0 0 -2 0 -2 -1 0 -1
1532179900681452 -3 -2 -2 -1 -1 -2 0 0
1532179900719351 -1 -1 -2 -1 0 -1 -2 0
1532179900741292 0 -1 0 -1 -1 -2 0 -1
1532179900765228 0 -1 0 -3 -2 -2 -1 -2
1532179900803126 -1 0 -1 1 -2 0 -1 0
1532179900824071 -2 -1 0 -1 1 18 -9 1
1532179900862967 -4 -2 -2 2 8 -11 3 0
1532179900892887 -1 -1 -1 0 9 39 12 0
1532179900944748 7 -1 -3 -1 13 4 1 -15
1532179900958711 -3 -3 -4 0 0 11 3 2
1532179901041490 -2 -2 3 -5 -1 -4 -1 5
1532179901055452 -2 1 0 10 3 5 1 6
1532179901109308 0 -2 -1 -3 6 -2 1 8
1532179901124268 -3 -2 -2 6 -13 -3 -2 0
1532179901201062 -3 -4 -8 -7 -6 -6 2 0
1532179901234972 -1 -6 -6 0 15 -26 -3 -1
1532179901281847 6 -4 -5 -4 12 21 -3 -1
1532179901295809 -3 -5 -5 -1 -6 2 2 0
1532179901318748 1 -1 -2 -3 -28 -27 -2 -1
1532179901341686 -2 -2 -3 -2 -3 5 -2 -3
1532179901396540 -1 -4 -3 -3 7 -2 -21 -4
1532179901400529 -7 -1 8 12 5 4 -4 2
1532179901476326 -10 -3 1 3 -2 1 -2 6
1532179901498268 1 0 2 12 24 45 9 5
1532179901522204 -1 1 -1 1 9 49 -2 0
1532179901552124 1 -1 0 -8 -16 1 -1 -6
1532179901591022 -15 -4 0 -1 -5 -13 -7 -4
1532179901617947 0 -4 -3 -9 -8 6 3 1
1532179901648865 -1 -1 -2 -2 -9 -9 -1 -1
1532179901671804 -2 0 1 7 0 -11 -7 -11
1532179901726657 -1 -5 -13 -16 -11 -2 -3 0
1532179901754582 -1 -2 -1 1 -22 -9 -3 -1
1532179901776524 -1 1 -2 2 -21 2 2 -4
1532179901806443 -1 1 2 -1 3 -6 -7 0
1532179901844343 -2 0 0 16 -3 6 1 -1
1532179901890221 -1 -1 -1 -3 2 -23 -1 1
1532179901898205 -1 0 -3 -14 -11 2 1 1
1532179901927122 -4 -2 -2 -6 9 -6 -10 -13
1532179901949062 0 2 3 1 -2 11 -13 -1
1532179901964023 1 -1 -2 -5 -7 -3 15 6
1532179901992945 -2 -1 -2 -2 3 -12 2 3
1532179902009905 -1 1 1 2 -2 2 -2 -3
1532179902031841 -1 -3 -3 -5 1 -21 2 0
1532179902068742 -2 -1 -1 0 17 19 0 0
1532179902122599 2 -2 -3 -10 -26 -2 -3 -1
1532179902241280 -3 -2 -1 -3 -13 63 2 2
1532179902325056 -2 -4 -5 -2 17 8 6 0
1532179902430774 0 -3 -4 -4 2 3 3 8
1532179902436759 3 2 1 -2 3 7 4 -3
1532179902466678 0 0 1 -7 -23 0 4 2
1532179902495601 0 0 1 8 -21 -11 2 -1
1532179902520534 4 0 0 1 -18 5 3 -3
1532179902564417 -3 -2 -3 4 7 3 -5 -2
1532179902624256 -2 -1 0 -3 -13 -11 -1 -3
1532179902668139 -4 -1 -3 -1 -4 -10 -2 -12
1532179902707035 -2 -1 -2 -5 -9 -25 2 -5
1532179902752913 0 0 1 5 1 2 4 1
1532179902768870 -1 -1 -2 -3 -17 -9 -4 1
1532179902849654 -9 -1 -3 0 -17 10 3 -1
1532179902924454 -1 -4 -3 -3 -3 -12 1 -1
1532179902955371 1 1 0 0 9 5 -2 -3
1532179902986289 -2 -1 -1 2 -5 -16 -10 -9
1532179903037154 -2 -2 -1 4 -9 -1 -5 2
1532179903074054 1 -1 -2 6 -6 -12 1 -1
1532179903126913 0 1 3 6 -20 -8 -5 -1
1532179903163814 0 -1 -2 8 11 0 -2 -2
1532179903194732 0 -1 1 0 -2 -6 -2 1
1532179903216672 1 -1 -2 -1 -1 7 2 2
1532179903261553 -2 0 0 -2 -4 -3 2 1
1532179903301446 0 -1 -3 -4 -4 -2 -3 -3
1532179903315409 -2 -1 -2 -5 1 -3 -5 -2
1532179903368280 -3 -1 -3 0 4 -11 0 -6
1532179903419142 -1 0 1 0 5 2 1 -1
1532179903443073 0 -2 -4 -12 -12 1 0 0
1532179903457031 -1 -2 1 7 -14 4 2 3
1532179903494929 -1 -2 -4 -3 3 -1 2 1
1532179903508891 -1 -1 -3 -2 4 0 -3 -1
1532179903547787 -1 0 -2 -2 5 -3 -3 -3
1532179903576709 0 0 -2 0 3 -1 4 -2
1532179903615622 -2 -2 -2 0 0 0 0 -2
1532179903636565 0 -1 0 -1 1 -2 0 1
1532179903659504 0 -1 -2 -3 -1 1 0 7
1532179903711349 -1 0 -1 -5 -1 -1 1 -3
1532179903734288 -1 -3 -2 0 1 -2 -1 -6
1532179903748251 -2 -1 -2 -3 -3 -3 4 4
1532179903786150 -3 -2 -1 1 0 1 1 -6
1532179903817067 -2 -3 -2 1 1 4 2 0
1532179903832027 1 0 0 2 1 -3 -3 -2
1532179903868929 -2 0 -3 -11 1 -4 -5 -1
1532179903891868 -1 0 -2 -4 -2 -3 -2 -1
1532179903944726 -1 -2 -1 -1 10 -6 3 0
1532179903951707 2 -1 -2 -7 -7 0 -1 0
1532179903988608 -1 0 0 -3 2 0 -3 -1
1532179904011547 2 2 0 1 1 -2 1 0
1532179904048448 -2 0 -2 6 3 1 0 3
1532179904095323 -1 -3 -3 -1 -1 2 -2 -1
1532179904132225 -2 1 1 8 -19 -2 2 0
1532179904146186 -1 -2 -1 -3 12 -3 -3 -4
1532179904168128 -1 1 0 -3 2 2 1 -3
1532179904228965 1 -1 -1 -5 -10 -1 -1 -1
1532179904251904 0 0 0 6 6 1 -2 0

1532179904327826 -2 -2 -2 -3 2 -2 -1 1
1532179904333811 -1 1 0 3 -3 -1 -2 0
1532179904385683 -1 -1 -1 0 1 -4 -5 -7
1532179904432546 0 -1 -2 1 -3 3 -1 3
1532179904493389 -2 -3 -3 -9 -14 -1 -6 -9
1532179904506349 -1 -2 -1 -6 1 1 -1 -2
1532179904528290 -1 1 0 3 -3 -3 -2 5
1532179904566189 -2 0 0 0 -10 -5 -1 0
1532179904588131 0 0 1 8 -1 -6 0 2
1532179904626029 -2 -1 2 3 0 -3 3 -2
1532179904655949 -2 -3 -3 -6 -17 -2 -2 -4
1532179904708807 0 -1 -1 -2 0 0 -3 4
1532179904746706 -1 0 -1 -1 -1 1 1 0
1532179904791586 0 -3 -2 -4 -6 -1 -3 -2
1532179904805549 -1 -1 0 -1 -7 -3 0 -4
1532179904828487 -2 0 -2 -2 3 -2 -2 -2
1532179904859405 1 -1 -2 -2 -3 -2 -1 -1
1532179904896306 -2 0 -1 0 9 -1 -4 -3
1532179904972103 0 -1 0 0 -13 -2 0 0
1532179905002026 -1 0 0 1 8 0 4 3
1532179905052888 0 -1 0 1 5 2 2 1
1532179905068858 0 -1 0 2 1 -2 1 0
1532179905091783 -1 -1 0 -1 -22 -6 -6 -1
1532179905105746 -1 0 -4 -5 -27 6 4 -3
1532179905136664 0 -1 -1 4 27 3 -1 -21
1532179905175566 0 -1 0 -3 3 2 4 6
1532179905180546 -1 -1 -3 -4 -2 -2 4 2
1532179905204482 -1 -6 -5 -4 19 6 -1 1
1532179905234402 0 -3 1 7 -3 4 -6 2
1532179905249362 -3 3 -4 -1 -13 -33 1 -2
1532179905294242 -3 3 5 -1 -6 1 -2 0
1532179905308205 -1 1 -3 -9 -1 6 -5 0
1532179905362060 3 -4 -6 -2 4 8 0 0
1532179905377021 -2 -3 -4 -2 -4 -12 -1 0
1532179905398962 -1 2 0 15 23 12 1 -1
1532179905413922 -1 -2 0 -7 -10 -2 -1 -1
1532179905435863 -3 0 0 -1 -1 2 -3 -1
1532179905451828 0 -4 -1 -2 -2 4 4 -2
1532179905474774 1 0 -3 -3 -4 -2 -3 -2
1532179905511669 -2 -4 -3 -8 -13 -3 1 0
1532179905557546 -3 -2 0 -5 -3 2 -2 -1
1532179905564527 0 -2 -3 -7 -5 -6 -4 -2
1532179905593449 0 2 3 12 6 1 -2 1
1532179905608410 -2 -2 -1 -3 1 -1 0 -1
1532179905653290 -2 0 1 0 3 7 0 -1
1532179905692186 -3 -1 -5 -9 -8 -4 -5 -3
1532179905722106 -2 -2 -3 -8 -5 1 0 -1
1532179905759007 1 -2 -1 0 -3 -1 3 0
1532179905781945 -2 -1 0 -2 3 -5 -3 -1
1532179905796905 0 0 -1 0 -3 -2 0 0
1532179905809871 -6 -4 -2 -5 -8 -9 -3 -2
1532179905834804 0 0 1 1 -4 -10 -2 -3
1532179905848767 2 -1 -3 -2 2 4 10 4
1532179905870708 -3 2 3 3 2 -8 -3 -2
1532179905894644 -2 -1 -3 -3 -1 5 -4 -1
1532179905930548 3 0 2 -2 -1 -9 -2 -1
1532179905939525 -3 -2 0 -2 -2 -8 0 2
1532179905967450 -1 -1 -2 -2 -20 -5 -4 0
1532179905991386 -1 0 -1 1 2 -5 -5 -2
1532179906005349 -2 -2 -2 -3 -14 -8 -1 -1
1532179906053221 -10 -2 -4 -3 -2 -4 -3 0
1532179906074164 0 -1 -1 3 7 -19 -6 -4
1532179906088128 -2 -3 -3 -3 -2 8 5 -1
1532179906111066 1 -2 -1 0 -1 3 -7 0
1532179906135002 -1 1 4 3 2 2 9 1
1532179906156950 1 1 3 1 -4 4 0 1
1532179906216783 1 2 5 2 -2 5 1 -2
1532179906231742 -1 -3 -4 2 4 -4 -3 -1
1532179906276623 -1 -3 -1 1 1 -1 -6 -2
1532179906314521 -1 -2 0 -2 -2 2 -1 -1
1532179906336463 -12 -3 -3 0 -4 -13 -1 1
1532179906381343 -2 -1 0 1 -3 -6 -2 -1
1532179906419242 -9 -3 -2 -4 -2 -1 -1 0
1532179906457140 2 -1 -2 -1 -2 -4 1 3
1532179906471103 0 -1 0 -1 2 -6 0 1
1532179906523962 0 -1 2 2 -3 -5 -4 -1
1532179906539919 -4 -1 -1 0 0 -1 0 -1
1532179906576820 0 2 1 0 1 1 0 -2
1532179906616057 -1 -1 0 0 0 1 1 -1
1532179906667920 0 -2 -1 -1 -2 -8 -1 0
1532179906675906 0 -3 -2 -1 -1 0 -1 -7
1532179906734254 -2 0 0 -1 -3 -1 -3 -11
1532179906757192 0 -4 -2 1 -4 -5 0 4
1532179906770158 -2 -2 -4 -2 -3 -8 -2 0
1532179906787113 -2 -4 -1 -1 0 7 1 2
1532179906803070 -1 5 1 -1 -2 -6 0 -2
1532179906829998 -1 -1 -3 -5 -2 -1 -1 -2
1532179906853934 -1 -1 0 5 3 -2 3 1
1532179906876873 0 -4 -4 -4 1 9 6 0
1532179906890835 0 -1 1 -1 -2 2 0 -1
1532179906906793 -2 -2 -2 -2 1 -3 4 4
1532179906960649 2 -2 -2 -3 -3 -4 1 0
1532179906975852 3 -1 -5 -1 0 -1 3 1
1532179906987819 1 -3 1 -3 -2 -6 -2 0
1532179907027713 1 -4 -4 -4 -2 -1 5 0
1532179907064619 -1 -1 0 -1 2 0 -7 1
1532179907079574 -3 -1 -1 -2 0 2 -5 -2
1532179907116475 -1 -3 -1 1 -3 -5 1 -4
1532179907162352 0 0 2 1 1 1 6 2
1532179907170331 0 -3 -1 -4 -2 4 -10 -2
1532179907199255 -3 -1 -1 -2 0 8 6 2
1532179907237153 -4 0 -2 -1 -1 1 0 1
1532179907275052 1 1 1 1 0 -1 0 -1
1532179907303978 -13 -3 -3 -2 -1 1 -2 -1
1532179907318934 2 -2 -2 -1 -1 4 -3 -2
1532179907341873 4 2 0 0 1 -7 -2 -4
1532179907386752 0 -2 -2 -1 -1 -1 -1 0
1532179907446593 1 2 -1 1 -2 -3 -4 0
1532179907461553 -1 1 0 -1 -1 0 -2 -3
1532179907476513 0 -3 0 0 0 3 -1 -1
1532179907499451 2 1 -3 -1 -3 -2 0 -3
1532179907513414 2 0 -1 -1 0 2 0 1
1532179907535355 5 0 2 0 1 3 4 -8
1532179907559292 -5 -5 -4 -7 -5 -4 -2 -1
1532179907582233 7 -1 -3 -2 -2 -5 -3 -1
1532179907620139 -4 -1 -3 -2 -3 -13 -2 1
1532179907633094 -6 -6 -2 -1 1 7 -6 8
1532179907679969 -7 -1 -1 -1 -1 -8 1 -1
1532179907692934 3 -1 0 -1 -3 -23 5 5
1532179907701910 -6 -4 -2 -1 3 10 2 2
1532179907752775 27 1 -3 -2 -1 -6 -5 -7
1532179907776710 -25 0 0 2 1 14 5 -1
1532179907799648 -2 -2 -3 -3 -1 4 1 2
1532179907812614 5 -4 0 -1 0 4 -3 2
1532179907836550 -10 -2 -3 -2 -2 -1 2 7
1532179907859488 1 -1 -4 -4 -3 1 -5 -6
1532179907898385 4 -1 -2 -1 -2 -10 -1 2
1532179907941270 8 -6 1 -2 0 -9 -4 -4
1532179907957227 0 5 0 -1 -3 4 3 7
1532179907987148 -3 0 -1 1 -2 -6 -2 0
1532179907993131 -3 -3 -5 -4 -1 -4 -3 -4
1532179908040011 -12 0 -3 0 -1 -6 2 -1
1532179908068943 -1 -4 -4 -4 -7 -22 -13 -1
1532179908102854 6 0 2 1 -3 0 0 -1
1532179908106827 0 -7 -3 -2 -7 -18 -3 -6
1532179908136748 -2 0 1 0 1 -2 -4 -3
1532179908159686 -1 -2 -4 -1 0 -6 1 2
1532179908182625 2 -1 -1 -3 -1 -7 0 4
1532179908219528 -3 0 0 -2 -1 6 0 -4
1532179908225523 2 4 2 1 0 -4 0 3
1532179908243478 -3 -3 -2 0 2 2 0 -7
1532179908270390 0 -8 -3 -2 -7 -4 -6 -2
1532179908301433 -18 -2 1 16 2 3 3 1
1532179908316393 -4 0 0 -8 -9 -9 -6 -1
1532179908330355 -3 -2 -1 0 10 6 1 2
1532179908377230 2 0 -1 1 -2 3 -4 -4
1532179908384212 3 0 -2 -1 1 2 -1 -3
1532179908399171 1 3 -1 -4 0 -19 -1 -2
1532179908429092 -2 -3 -2 -4 -10 4 1 -1
1532179908450035 -5 -4 -3 -4 -8 -10 -3 0
1532179908489565 -16 -3 3 2 3 1 0 2
1532179908497544 -4 -1 0 0 -2 -22 -3 -1
1532179908519486 2 -2 -1 -2 -1 -5 -2 0
1532179908549429 1 0 -3 -4 0 2 -1 -2
1532179908555413 0 -1 -2 -6 -2 0 0 -1
1532179908572368 -1 -1 0 0 -1 -3 -3 -3
1532179908609269 -2 -5 -3 -2 1 -2 -1 0
1532179908615253 2 1 0 2 3 6 1 -3
1532179908639195 3 0 -1 -2 -1 0 -2 0
1532179908662134 -6 -1 0 1 -9 -3 0 0
1532179908684076 2 0 -2 0 -1 -2 -3 -3
1532179908707015 -1 0 -1 -3 -2 -3 1 1
1532179908728956 -2 2 2 3 1 0 -1 0
1532179908743916 -1 1 3 1 6 2 1 -1
1532179908795777 0 -1 -3 -4 -2 -4 -1 -1
1532179908849633 -2 -2 0 3 8 1 0 -1
1532179908864601 0 2 0 4 8 -1 -1 0
1532179908903498 0 0 0 1 -3 -1 0 0
1532179908933417 -2 0 -2 -6 -9 -2 -2 -2
1532179908955358 0 -2 -3 -8 6 2 -1 0
1532179909024175 0 3 -2 -3 -2 -1 -1 -2
1532179909052105 0 -1 -2 -7 2 1 -2 -1
1532179909089002 -1 1 0 0 -13 -5 0 -2
1532179909149838 -1 2 0 -1 -9 0 -1 0
1532179909181064 -2 -4 -1 3 -4 -9 -2 -1
1532179909216969 1 -2 0 8 36 3 -1 -1
1532179909270826 2 -1 3 20 5 -1 -1 0
1532179909276811 -2 -3 1 9 3 -3 -2 -2
1532179909329669 0 -1 0 0 -11 2 0 -1
1532179909388512 0 -2 -2 -6 -8 -4 -2 -1
1532179909428404 -3 -2 -1 -7 -5 -1 -2 -1
1532179909450345 0 0 -1 -5 1 0 0 0
1532179909606687 -1 -2 -5 -4 -8 -6 1 -2
1532179909614666 0 -2 -1 6 11 0 0 0
1532179909688468 -2 -1 2 0 -10 -2 0 1
1532179909735342 1 1 -1 3 11 -4 -2 1
1532179909787204 0 0 3 5 -5 -2 0 -2
1532179909802174 -1 0 -2 -7 -28 4 1 0
1532179909854989 1 0 2 5 6 -4 0 1
1532179909868956 0 -3 2 14 6 1 -2 0
1532179909997607 1 0 2 14 22 -7 -1 -2
1532179910078903 1 -1 -5 -23 -28 -3 6 10
1532179910102839 -1 1 1 1 2 -1 -9 -1
1532179910124780 4 2 0 0 31 -3 13 -3
1532179910169660 6 2 0 -3 -7 -6 7 -11
1532179910184620 -2 -5 -5 -6 -5 -4 4 2
1532179910206561 1 -5 -7 -7 4 2 0 -13
1532179910235484 -1 -16 -10 -6 -5 -4 -10 -2
1532179910274380 2 5 7 12 11 7 1 1
1532179910281362 3 4 1 0 -6 -6 -8 7
1532179910304299 1 -2 0 -1 3 7 0 0
1532179910327249 6 -1 2 -2 2 -7 -14 -7
1532179910340205 -25 -26 -8 -9 -2 -2 1 -2
1532179910372119 5 9 2 3 31 13 -16 -7
1532179910394060 5 9 -3 -5 -24 -19 -5 3
1532179910409020 -3 0 -3 -10 -5 1 -5 -5
1532179910432956 -7 20 33 -3 9 -6 -8 -11
1532179910447917 -4 -34 -31 -4 -15 7 -9 -1
1532179910469884 3 3 15 3 -10 2 7 1
1532179910506784 -2 5 10 4 14 -5 -2 2
1532179910512769 0 -2 -4 -2 -5 -2 2 2
1532179910530721 1 15 7 -2 2 -2 6 -1
1532179910553660 -2 -20 -25 -6 -23 -8 -12 -6
1532179910568620 1 -1 -6 8 3 -1 2 -1
1532179910604569 -18 -9 8 3 -20 -3 -1 -3
1532179910640473 0 0 8 7 23 5 4 -1
1532179910671390 4 4 4 2 -8 -1 0 -9
1532179910686350 -2 5 5 -4 -2 -17 5 3
1532179910708292 1 -11 1 4 5 -2 -1 -2
1532179910723252 2 -14 -4 -1 10 12 8 3
1532179910754168 -5 3 1 -4 -12 2 -9 -2
1532179910768132 -3 3 -2 6 3 -3 -2 1
1532179910792068 2 -10 -11 1 6 1 2 -2
1532179910806030 0 -8 -9 -6 -18 -4 -3 0
1532179910828969 2 3 2 -3 -3 -6 -6 -2
1532179910844935 -1 8 0 -3 -48 -18 -6 -2
1532179910865870 0 26 24 -7 19 25 -2 -3
1532179910888815 1 14 13 10 18 -9 0 3
1532179910925716 -2 2 15 -2 -11 0 1 0
1532179910948655 -1 -12 -10 9 20 -6 -1 -6
1532179910965624 -1 1 -4 -5 -7 -5 -2 2
1532179910994532 -4 -5 -5 -7 -3 1 -10 -10
1532179911008495 -4 -7 -7 3 5 -14 2 -2
1532179911023455 3 -3 2 -2 10 3 -6 3
1532179911046393 -1 0 0 9 -10 -4 5 1
1532179911068334 1 -3 -6 -2 16 11 5 -1
1532179911106233 0 -4 -4 -1 -9 4 1 -3
1532179911137156 0 0 1 -2 -4 -20 20 1
1532179911151119 -17 1 1 9 11 18 25 -8
1532179911189017 -39 -2 -2 4 -5 -13 -2 -13
1532179911211956 17 0 -3 0 -3 -3 -4 2
1532179911270799 -8 -10 -7 -4 -11 -3 -38 14
1532179911308312 -11 -3 -3 -6 16 31 1 -12
1532179911331251 -4 -10 -6 -9 -34 -30 -42 -10
1532179911384110 7 -1 2 6 -4 -20 5 33
1532179911406583 -2 0 -3 -13 24 43 -20 -7
1532179911428525 -2 -5 -3 2 -21 -36 34 -3
1532179911451470 -18 -3 -1 -3 11 -20 16 -5
1532179911488371 0 2 3 6 -5 14 1 -6
1532179911503927 -1 2 0 -3 26 11 6 -4
1532179911525869 6 -2 -3 -7 -10 33 1 -6
1532179911562770 1 -1 2 8 -12 14 -4 0
1532179911601665 -10 1 -1 5 21 -1 -7 -3
1532179911624605 -4 -5 -1 -3 3 27 7 0
1532179911638567 -12 -1 0 0 7 -19 -6 -8
1532179911676465 -5 -3 -3 -12 -20 -14 42 5
1532179911691426 8 2 2 0 8 3 -2 -6
1532179911721346 -27 -5 -5 -9 18 -4 -28 -4
1532179911758253 13 -2 6 -7 -5 21 -8 12
1532179911864438 2 3 3 7 12 48 36 -1
1532179911886380 6 7 7 15 -1 10 -5 -13
1532179911908321 31 5 -9 -10 -30 -22 3 23
1532179911939289 11 0 3 1 -8 -3 5 -7
1532179911954249 2 2 0 -2 -24 -26 -67 -2
1532179911976190 -13 -2 -6 -2 -1 -3 -12 -27
1532179912006110 -10 -2 -2 -8 20 31 3 -4
1532179912058969 -16 2 0 11 7 -1 -4 4
1532179912073929 -13 -3 -2 -6 -5 13 31 -5
1532179912104846 -6 -2 1 -1 -2 -15 -9 19
1532179912150723 7 3 -3 -3 19 1 -6 -8
1532179912155710 17 -3 -5 -1 8 9 -20 4
1532179912179646 -1 2 -1 -4 -5 7 1 -3
1532179912216460 1 -3 -2 -1 8 47 5 -4
1532179912254359 13 2 1 3 8 -17 11 2
1532179912268321 2 -1 -2 -3 0 -4 -1 5
1532179912337137 2 -1 -1 1 10 2 4 1
1532179912352097 4 2 0 2 0 -13 -2 0
1532179912365063 -1 -2 -3 -7 -7 -1 3 -1
1532179912388999 -1 0 -3 -1 -5 0 -1 -2
1532179912413932 -2 -8 -3 0 -3 0 0 -1
1532179912424903 -18 -1 1 1 -2 1 -3 -3
1532179912448839 5 -1 1 -1 -1 -2 -19 3
1532179912478758 3 0 -2 1 -3 -7 8 -6
1532179912508679 4 1 -2 -1 -3 -1 8 -2
1532179912531616 2 -1 -2 -7 -10 0 -2 -2
1532179912584476 -25 -1 4 0 -3 4 1 3
1532179912592621 -2 -2 -3 -6 15 26 3 7
1532179912621563 7 -2 -4 -5 -24 -11 -5 -10
1532179912628544 5 -1 -4 -6 19 13 -5 -1
1532179912658464 -6 -5 -6 -15 18 -15 -3 -2
1532179912696363 15 27 16 0 -3 -6 -6 -2
1532179912711322 0 -8 -6 -6 5 5 8 11
1532179912734267 -1 -5 0 8 -57 -30 -4 3
1532179912764188 -2 -2 -7 -14 7 21 2 -1
1532179912775165 12 -10 -5 3 16 -7 -3 3
1532179912810827 -9 -8 1 3 1 17 1 -36
1532179912823794 -6 -5 -7 0 17 -5 -1 -8
1532179912831773 -2 -6 -9 -2 -5 1 -1 4
1532179912868682 -2 5 8 8 62 17 9 4
1532179912891613 1 -11 -7 -11 -21 -18 -6 7
1532179912921533 -3 10 3 2 4 1 -7 -1
1532179912947464 -1 3 -1 -3 3 -12 -7 -4
1532179912982370 -4 -3 8 -5 2 -17 -15 -9
1532179913014396 -1 16 17 13 17 6 3 6
1532179913050300 0 -14 -11 -3 3 9 8 2
1532179913103159 -2 1 -5 -2 2 -13 -2 5
1532179913133078 -2 -9 -14 -10 -20 -40 -10 -7
1532179913167985 -4 -1 -2 -5 11 6 0 -5
1532179913199900 0 -8 -2 5 10 4 0 0
1532179913221841 -1 -2 -2 -9 1 5 -6 -2
1532179913289666 -2 -7 -3 -3 10 -4 -3 -2
1532179913304625 2 4 2 4 7 6 7 0
1532179913328572 0 4 1 5 24 -1 7 -1
1532179913343521 -4 -4 -11 -12 22 -21 -8 -1
1532179913372443 1 3 4 1 18 10 2 3
1532179913408347 0 -6 1 25 1 -87 -9 -3
1532179913439265 2 15 23 16 124 110 25 6
1532179913462203 24 -6 -24 -21 -104 -52 -21 -8
1532179913499105 -20 -17 -7 -13 15 9 -16 -4
1532179913537004 0 -12 2 5 -25 -55 9 1
1532179913605495 0 8 0 -1 -16 -28 -3 1
1532179913617463 -6 4 4 3 0 18 12 9
1532179913673314 5 1 0 -1 6 15 4 -2
1532179913687277 -7 0 1 3 9 41 -3 -1
1532179913709239 -1 -1 0 -2 -1 -11 12 1
1532179913725979 -3 -1 0 2 4 10 -1 -3
1532179913737945 -1 3 4 21 0 -7 -3 1
1532179913784820 -1 -3 -3 -7 -14 0 -3 -1
1532179913820725 4 1 1 -1 -2 8 0 0
1532179913830698 -2 -1 -2 -6 28 0 -1 -1
1532179913883557 -2 -1 0 5 0 0 -4 -1
1532179913940560 -1 -1 -3 -6 -15 -16 -2 -1
1532179913979456 0 0 -4 -7 3 4 2 2
1532179914017355 -2 0 1 2 0 -12 -4 -1
1532179914039297 -1 -2 -1 1 -18 -9 -6 -1
1532179914071245 -3 -3 2 1 -1 -13 -1 -1
1532179914124093 -2 -4 -3 -6 -1 -3 0 -2
1532179914129080 -2 -1 -2 -1 -6 -2 -4 -1
1532179914166979 1 2 1 -2 -1 -3 2 1
1532179914257735 -4 12 4 0 2 18 2 0
1532179914333571 -2 11 2 -9 -7 -6 -3 -2
1532179914347532 -3 2 14 -2 -2 2 -1 4
1532179914413357 5 -2 -1 2 -17 -5 9 -16
1532179914474194 -1 -4 -8 -4 -8 -24 -8 0
1532179914497736 -3 -1 0 -1 23 12 3 -3
1532179914533640 -1 0 -1 0 15 -6 -2 0
1532179914586499 -3 -2 -1 -5 1 -3 5 -2
1532179914610435 -3 -3 1 1 3 -4 4 5
1532179914678253 0 0 3 3 6 2 8 1
1532179914716935 -1 -3 -4 -3 -15 -2 -2 2
1532179914729916 2 0 0 0 0 -8 1 -2
1532179914797721 -1 -1 -2 -3 -15 -4 0 -2
1532179914819671 0 0 -1 0 0 -3 -5 2
1532179914863544 2 24 21 5 3 5 4 2
1532179914886980 -2 -6 -5 -9 2 5 -1 -6
1532179914941836 0 -1 -1 -4 -4 -3 -5 -2
1532179914953804 0 2 -5 -7 0 1 2 2
1532179915006662 -3 -4 -3 -4 -1 -11 -5 1
1532179915029601 -2 -3 -8 -4 -14 0 2 0
1532179915050545 -1 -1 0 1 7 10 0 -2
1532179915111406 0 1 9 -3 -20 -10 -1 -2
1532179915126366 0 -5 -4 3 3 4 3 1
1532179915141326 -1 2 -1 -2 -37 -12 1 -16
1532179915165261 -1 -1 -1 5 11 -11 -5 -10
1532179915209144 -2 1 1 1 -27 -21 -11 0
1532179915223107 -3 1 -1 -2 -5 3 3 -1
1532179915268995 1 9 17 2 6 -1 -1 10
1532179915337812 -4 0 1 1 -10 3 5 -4
1532179915388676 1 5 2 -8 -27 -25 7 -14
1532179915442532 2 0 5 5 8 19 1 6
1532179915488409 1 -5 -8 7 1 12 8 -3
1532179915510359 -1 0 2 1 -34 -23 -2 0
1532179915562853 -4 -11 -16 -6 -12 -3 -4 4
1532179915577813 -3 -5 -3 -7 0 18 -2 0
1532179915621708 -6 -8 6 -5 0 4 6 11
1532179915749354 2 4 3 -2 0 -14 0 0
1532179915772293 3 5 6 24 6 1 0 9
1532179915802226 1 8 13 -5 -34 -15 5 3
1532179915840112 -2 -10 -5 -2 7 11 -8 0
1532179915877013 -5 -6 -6 -2 -6 26 -3 -16
1532179915900948 0 -5 -4 -7 -2 -2 -3 -2
1532179915921893 -4 -6 -6 -1 4 -3 -5 -1
1532179915958794 3 -3 -3 -10 6 5 7 22
1532179915982730 -2 -1 1 6 5 7 -20 -3
1532179916043568 10 1 1 -2 -11 -1 24 43
1532179916049551 4 2 1 5 10 11 12 11
1532179916078488 10 8 1 0 24 3 16 21
1532179916116386 -12 -15 3 5 -28 1 28 14
1532179916161266 -16 -12 -1 3 1 -9 -11 -27
1532179916222103 44 9 -1 1 -2 -12 -5 -5
1532179916282941 22 -4 1 9 -1 -3 -5 -7
1532179916342219 -19 -13 -8 -15 -7 -5 -2 -7
1532179916424521 12 2 5 2 -8 -12 0 -2
1532179916522263 -6 -13 4 5 10 18 3 11
1532179916567140 -2 8 3 0 1 3 -1 -1
1532179916619008 -4 3 -2 1 -6 -7 -3 -5
1532179916648922 -3 2 -2 -3 -1 4 -4 -1
1532179916686820 1 -1 0 -1 1 6 3 -3
1532179916846393 1 1 -3 -9 -11 -8 0 1
1532179916874319 21 13 0 2 -7 -4 7 5
1532179916897288 0 -3 -4 -6 -1 -3 -5 -7
1532179916912248 -1 1 0 2 25 15 6 -3
1532179916918233 -7 -6 -1 -4 -5 5 0 -1
1532179916994030 5 6 1 3 0 1 -2 -2
1532179917003006 -3 -1 0 0 2 1 -3 0
1532179917030931 -5 -3 -3 -8 1 0 1 -1
1532179917068830 -3 -1 -4 -3 1 -2 -1 -1
1532179917123683 -2 -5 -4 -8 7 5 -3 -3
1532179917159587 -4 1 4 2 6 4 -1 1
1532179917189507 0 0 -1 2 0 1 1 -1
1532179917257326 -1 -1 -4 -5 -7 -4 -2 -2
1532179917294227 -1 0 -1 -2 3 -4 -3 -2
1532179917302218 0 -1 -1 -2 0 -1 1 -1
1532179917348083 -2 -1 -2 -2 3 -1 -1 -3
1532179917371021 -4 -2 -3 -5 6 0 -1 -1
1532179917385986 -5 2 -2 -5 0 -2 -7 -7
1532179917423887 3 0 -2 0 -4 -2 0 4
1532179917443833 2 -2 -1 14 24 11 4 -1
1532179917488898 -13 -1 -1 -4 -8 -4 -1 -4
1532179917511584 0 -1 -3 -5 -9 -9 -4 1
1532179917557463 8 2 -1 -11 -3 -22 -4 -1
1532179917610341 6 -7 0 -4 20 10 -2 -2
1532179917626306 2 -3 -1 3 -8 -28 -3 -5
1532179917654223 5 5 0 -4 -49 -37 -2 0
1532179917684143 14 3 -1 1 -2 9 -8 39
1532179917716065 -9 4 -2 -9 -13 -6 -9 7
1532179917728032 -7 3 -1 3 8 6 -15 -13
1532179917754982 0 -11 -1 3 -13 -28 5 33
1532179917768945 -6 0 -3 -11 25 12 -3 9
1532179917789889 0 -6 -3 2 31 20 15 -2
1532179917835780 -29 -3 -4 -11 -13 -45 -28 -3
1532179917849739 9 2 -1 -4 5 13 -6 -6
1532179917886812 2 -1 -2 -2 -26 -18 6 7
1532179917955627 -13 -7 -1 12 55 10 2 4
1532179917993526 2 -3 -2 -3 -6 5 3 3
1532179918008492 -2 -3 -3 -5 -14 -6 1 -1
1532179918036639 13 4 -3 -1 -4 -10 -1 3
1532179918075563 4 0 -2 0 4 -15 -3 -2
1532179918113435 12 5 -1 -2 1 17 -6 7
1532179918127400 1 6 1 2 13 23 9 18
1532179918149339 -17 -6 -1 -5 -5 6 6 11
1532179918189232 3 -1 -2 -2 -6 -22 -6 16
1532179918225137 12 10 17 -1 -25 -26 -8 -14
1532179918270835 -12 -12 -10 -14 -32 -39 -14 -6
1532179918275821 -2 -9 -3 1 -1 -12 -6 1
1532179918345371 -22 -18 -5 -2 2 -16 9 6
1532179918351838 4 -4 3 4 -3 -5 1 4
1532179918388738 -8 -6 -2 5 38 6 -1 -5
1532179918441596 13 0 -1 -3 -4 0 0 7
1532179918465533 -11 -4 -3 -7 -21 -4 4 2
1532179918508418 3 10 0 4 7 10 3 12
1532179918525400 1 2 -2 0 -7 -17 -4 -1
1532179918546344 -12 -5 -4 0 22 30 5 3
1532179918568919 21 6 -4 -4 -29 -13 1 -5
1532179918583915 -2 -1 3 3 -4 8 2 -5
1532179918620816 -1 8 -1 -2 -3 -7 -6 -19
1532179918631223 8 5 2 0 -5 -8 0 -6
1532179918666132 3 5 -1 -5 -23 -10 -6 1
1532179918689074 -2 -5 -6 -1 6 -9 -1 5
1532179918725972 -4 -1 2 -4 -6 -4 -4 2
1532179918765865 6 -2 2 -2 -5 -3 -5 -3
1532179918770851 -8 -5 1 -2 -8 2 -1 -4
1532179918808750 -4 0 2 2 2 2 -1 -1
1532179918839668 -1 -2 -2 -3 -15 -10 -2 0
1532179918854627 3 -5 -5 -2 -5 0 -2 -3
1532179918868590 -3 -4 -2 -2 2 1 -1 1
1532179918906490 -2 -6 -5 -9 -2 -1 2 3
1532179918928430 3 -1 -1 -4 7 42 2 5
1532179918944387 0 -3 1 13 12 4 5 1
1532179918988270 -2 -1 -1 -11 -16 -6 -2 -1
1532179919034148 -2 -1 0 -2 0 -17 -3 0
1532179919048110 -3 -2 -4 -13 -6 7 -1 2
1532179919065065 0 0 -2 -6 -4 14 -3 -1
1532179919087006 -1 -1 -1 1 5 2 1 -1
1532179919131886 0 -1 -2 -6 -22 -12 -1 3
1532179919168787 -1 -2 2 4 3 -22 -2 0
1532179919205689 0 -3 -4 -6 3 -7 -2 -3
1532179919238601 -3 0 -1 3 -7 0 -2 -2
1532179919289480 -1 -2 1 3 -2 -14 0 1
1532179919302445 -1 0 1 9 11 13 -3 -2
1532179919326381 1 1 1 3 1 -12 0 -1
1532179919356301 -1 -1 0 0 6 9 2 1
1532179919386221 1 -2 0 9 17 -3 -2 -2
1532179919408167 -1 -3 -4 -20 -8 -4 0 -7
1532179919431117 -2 -1 -3 -4 5 0 -1 -2
1532179919446079 0 -1 2 5 -8 -21 -2 -1
1532179919490959 0 -1 -5 -14 -4 -7 1 -7
1532179919505919 0 -1 1 2 -3 -4 1 4
1532179919527861 1 1 3 6 -1 1 1 5
1532179919551796 -1 1 -2 0 6 -21 -1 -4
1532179919565759 -3 0 0 2 3 20 1 4
1532179919596676 -6 -3 -4 -2 -4 -13 -2 -8
1532179919611635 5 2 3 13 8 7 12 29
1532179919648538 18 4 -2 -4 -2 0 -3 -2
1532179919671476 -10 -12 -5 -4 -2 -3 -16 -17
1532179919686436 55 6 3 2 10 8 7 10
1532179919731316 -22 0 0 0 -5 4 -10 -36
1532179919746276 -7 -6 -1 4 38 53 -9 2
1532179919769214 -77 -39 -10 -2 -15 -23 -10 -7
1532179919806116 14 6 -1 -6 -31 -33 -1 -3
1532179919829059 -14 -3 0 -4 -40 -29 -12 26
1532179919919828 -1 2 -2 -9 -36 -30 -4 -24
1532179919971690 4 -11 -4 7 31 40 11 8
1532179920008591 20 10 1 1 5 17 0 -17
1532179920031529 -36 -15 -2 -1 25 20 -4 -46
1532179920045492 -14 -3 -2 1 47 30 -2 -24
1532179920069448 5 -6 -2 -1 32 20 -1 18
1532179920105343 -26 -8 -4 -11 -22 -21 -21 -28
1532179920143231 -34 13 5 15 1 10 -7 -1
1532179920165172 22 -16 -5 -17 -45 -19 10 7
1532179920189107 -12 0 -3 -10 0 5 0 -15
1532179920212047 6 -5 0 -4 -3 2 -10 3
1532179920225012 -2 -3 -2 0 -2 8 -16 -14
1532179920255929 7 1 -4 -1 9 1 3 -9
1532179920271887 -2 -6 -2 -8 -5 -6 1 -4
1532179920285850 17 0 1 6 22 4 7 -1
1532179920307791 -9 -4 -3 -7 8 6 0 -2
1532179920324746 -22 -3 1 0 -5 -3 -3 -3
1532179920345689 -3 5 7 24 23 -4 1 3
1532179920367631 -10 2 -1 -4 -10 6 0 -6
1532179920391567 -1 -2 -3 -1 -17 -11 -9 -9
1532179920414506 14 0 -2 -4 -6 -8 -2 19
1532179920436447 -1 -2 -4 3 30 31 3 -1
1532179920465369 2 0 -2 2 5 8 2 1
1532179920488308 14 5 -3 -8 -12 -6 3 -1
1532179920518228 2 -7 -3 -2 -2 -1 -15 -8
1532179920548147 -4 -1 2 2 20 5 3 -5
1532179920572108 -11 -6 -3 -5 -13 -7 -3 -2
1532179920594049 9 -2 -2 -6 -4 1 1 -3
1532179920614993 10 -4 -6 -6 -6 -14 -21 16
1532179920633951 -7 2 3 3 -7 -20 15 -14
1532179920661868 -5 -3 0 0 -1 18 3 -15
1532179920675897 -8 -1 1 -1 -25 -16 7 14
1532179920713796 -11 0 2 2 14 -4 6 -15
1532179920728769 3 -2 -4 -6 -17 4 5 5
1532179920803847 3 4 1 -1 -6 2 -7 6
1532179920818807 -14 -4 -3 -6 -4 -3 2 0
1532179920856705 9 0 -1 -5 2 -7 3 6
1532179920894604 6 12 0 -1 -18 -39 2 8
1532179920907569 -7 -1 0 -3 5 7 3 -3
1532179920930508 -6 -4 -1 -1 6 21 3 -10
1532179920954444 1 0 0 1 15 7 -4 1
1532179920976385 -4 2 -2 -5 -5 -2 -7 -17
1532179921014284 -3 -4 -1 -1 -5 -5 -8 -2
1532179921037223 1 2 4 13 21 4 9 11
1532179921059164 -4 -2 -2 -8 -18 0 -5 -10
1532179921074124 0 1 0 3 11 1 0 -3
1532179921097062 1 -1 -2 -1 0 3 -10 -5
1532179921124988 -2 -1 -3 -4 -3 -5 1 -4
1532179921135958 -1 -1 0 4 7 3 3 -6
1532179921156902 -1 -8 -2 3 6 -2 -2 -4
1532179921180841 0 1 0 -6 -2 -2 4 -3
1532179921195810 -4 -1 1 9 9 -3 2 -1
1532179921231702 -3 -4 -1 -6 -7 -1 -5 2
1532179921254641 2 1 1 8 -11 -2 0 -2
1532179921267606 -1 1 -1 -8 -1 -1 7 -1
1532179921298523 -5 2 -1 0 -2 0 -11 -11
1532179921315478 1 0 -1 -2 -8 5 1 10
1532179921338417 3 2 5 16 10 3 2 1
1532179921396262 -3 -2 -4 -6 -4 2 0 -3
1532179921403244 -4 -2 0 4 13 1 -2 -8
1532179921456916 -4 -2 0 -2 1 1 3 0
1532179921471877 -1 -2 -1 -2 5 -10 -2 -8
1532179921493818 -1 0 0 0 -6 1 0 0
1532179921539695 -2 -1 -3 -5 -12 1 -1 -7
1532179921554655 2 -2 -1 -4 -2 0 -3 1
1532179921576596 -3 -1 -1 -4 -8 -3 -2 -3
1532179921590559 -3 0 -2 -11 -13 -8 -1 -13
1532179921599535 -1 -2 1 2 13 3 9 12
1532179921636440 -2 -2 0 -2 -7 3 2 0
1532179921651396 0 0 1 12 21 7 -3 1
1532179921673338 -1 -1 -3 -1 -9 3 -1 0
1532179921711552 -2 -2 -1 0 3 3 4 5
1532179921717545 0 4 0 -2 2 4 2 5
1532179921756432 2 -1 -2 -6 0 -1 0 11
1532179921770394 3 -2 -4 -3 -4 -1 -3 3
1532179921794330 -8 -2 -1 -2 -1 -2 6 4
1532179921825248 -1 1 -1 -2 -12 -7 -6 -7
1532179921830234 0 0 0 0 2 -3 0 1
1532179921854170 -1 2 -2 -9 3 3 -5 0
1532179921899050 1 -1 -3 -3 -7 -1 0 -2
1532179921936954 -4 -2 -4 0 -3 -2 -3 -7
1532179921942933 3 6 2 5 2 0 -3 -12
1532179921975852 3 -6 -2 -2 -3 -2 -1 29
1532179921980831 -2 -5 -3 -4 -1 6 2 -2
1532179922010751 48 9 19 4 3 -1 5 38
1532179922057626 -8 5 -3 -1 -5 -18 -9 5
1532179922062613 -11 -9 -6 -6 -3 0 -9 -8
1532179922130432 0 0 2 2 6 2 1 -1
1532179922243129 0 -2 -3 -11 2 0 12 10
1532179922311946 -6 -3 3 23 21 4 -2 -20
1532179922356826 0 7 5 17 10 -1 3 10
1532179922393727 0 0 -4 -9 -4 5 -9 -4
1532179922431638 3 0 -2 -1 27 5 11 10
1532179922499444 -2 -4 3 6 3 -1 -3 1
1532179922529365 -3 -5 -2 -8 -17 -5 14 -4
1532179922566266 -6 0 -5 -11 17 1 -1 -9
1532179922650041 2 -4 1 -2 0 -6 -29 1
1532179922716863 -1 2 1 3 -1 -14 -1 -1
1532179922745940 -3 -2 -1 0 5 -1 -2 -3
1532179922798799 -1 -7 -3 -2 -5 1 0 -2
1532179922827722 1 0 0 4 -2 6 8 2
1532179922859636 -3 -2 -1 3 -1 -2 -2 3
1532179922918482 -2 -1 -1 0 1 -1 -2 -1
1532179922932445 -3 -2 -1 -4 -11 -3 -3 -1
1532179922986302 -5 -1 -2 1 4 -6 2 -18
1532179923039159 0 2 1 5 7 -4 1 0
1532179923069085 -2 -5 -3 -6 -8 -1 -6 0
1532179923211963 -2 0 -1 -4 -5 2 15 11
1532179923232907 -4 -4 -3 -2 -22 -7 2 3
1532179923278785 -5 -2 1 0 -4 -29 -6 -27
1532179923317681 -2 1 -1 -4 -1 4 9 1
1532179923346603 -1 -2 2 6 2 4 0 2
1532179923399496 -3 0 0 -5 1 16 1 3
1532179923442441 -1 -4 -1 1 6 -7 -6 5
1532179923461390 0 0 -3 -3 -12 7 11 -16
1532179923543171 0 -1 2 4 9 18 6 -4
1532179923563355 0 -3 -3 -6 -2 1 4 0
1532179923581307 0 4 -3 -2 -4 -5 -3 -7
1532179923609238 -4 2 -2 3 8 1 -31 -14
1532179923662091 2 5 -2 -4 2 12 9 3
1532179923676053 3 1 1 1 -1 -4 -2 10
1532179923721931 -1 0 5 21 -8 -3 4 -8
1532179923743884 -1 0 -5 -6 -3 -2 -9 -4
1532179923795908 -1 0 0 5 -15 -7 -3 -3
1532179923817851 -2 -1 -3 -16 -4 5 -15 -4
1532179923871708 -3 3 -2 -4 1 -3 -3 -3
1532179923878694 -1 1 0 -2 -12 0 3 -2
1532179923907612 0 -1 -1 -2 -6 -4 6 -3
1532179923939526 -6 -5 -2 2 11 15 13 -24
1532179923961468 -4 0 -1 0 3 3 -13 -3
1532179923992390 0 -2 -4 -5 -12 2 2 -5
1532179924035480 0 -2 -1 -1 -3 -10 -7 8
1532179924073379 -1 -3 -2 2 -13 -8 7 6
1532179924084350 2 1 -1 -6 -1 1 5 13
1532179924119257 -1 -2 0 2 -6 -4 -2 1
1532179924164136 -2 -3 -4 -10 -1 4 1 3
1532179924179097 -1 1 -2 -5 -14 8 -7 -5
1532179924231955 2 -2 0 0 -10 -6 4 14
1532179924253897 -2 -4 -2 -4 -1 -8 -1 -2
1532179924283816 -1 -1 3 2 -18 -3 1 1
1532179924351635 1 0 -1 0 3 1 4 0
1532179924365598 -1 -2 -3 -7 17 2 0 -14
1532179924428429 1 -3 -3 -4 -14 1 -4 1
1532179924465331 -2 0 0 1 -2 6 3 1
1532179924480291 -3 -2 -3 -8 0 -4 10 -2
1532179924548124 -3 -1 -3 -4 15 4 -7 3
1532179924564082 1 2 -5 -10 8 4 2 -4
1532179924591009 -4 -2 0 0 0 -5 -3 3
1532179924652906 2 -2 -2 -5 9 -1 -3 0
1532179924666869 -1 -1 -2 -8 -9 -3 3 9
1532179924688810 -1 2 2 0 -5 4 -19 -10
1532179924749666 2 1 3 2 -22 2 12 2
1532179924772604 0 -1 -1 -3 4 -7 3 1
1532179924801528 -5 -4 -2 -6 1 2 -6 -5
1532179924837432 3 1 -1 -1 -3 -4 4 2
1532179924861368 -4 -1 -2 0 -3 1 3 6
1532179924908242 2 1 1 -2 -2 -11 10 4
1532179924944181 0 0 0 6 -2 -1 -3 4
1532179924967120 -1 -1 -2 -5 -13 -1 -5 -1
1532179925012000 -1 -3 -3 -2 -3 -8 5 -3
1532179925027956 -2 -2 -1 -4 6 3 7 -6
1532179925063861 -3 -2 -3 -6 -6 -8 -21 -4
1532179925101760 -1 -1 -2 -3 -10 -3 1 6
1532179925139658 -1 -2 -2 -4 3 -3 9 -1
1532179925154618 4 2 2 0 -3 0 2 17
1532179925183541 1 1 0 -2 -4 3 -3 -9
1532179925206479 -4 -2 0 3 -4 -3 3 -6
1532179925251359 -1 2 1 9 10 -8 3 -4
1532179925274298 -2 -1 -1 -5 -7 0 0 9
1532179925289258 -1 -3 -2 -2 0 -1 0 5
1532179925326159 -5 -4 -1 -1 -6 7 3 -7
1532179925342116 -4 -1 -2 -4 -4 -2 -3 -7
1532179925364069 3 4 2 6 -5 1 -1 1
1532179925393978 -2 -1 -2 1 8 -3 -4 -10
1532179925401957 -3 0 -2 -5 -2 -4 -9 -6
1532179925445854 0 1 -2 -4 3 0 8 9
1532179925486731 3 -1 1 4 0 -19 -1 -1
1532179925505680 0 -1 -1 -1 -7 9 0 6
1532179925520639 0 0 -2 -1 -4 1 -4 -2
1532179925551557 -2 -2 0 -2 -4 -1 -1 2
1532179925588932 -1 1 0 2 -2 -2 -6 -10
1532179925603892 1 1 -1 0 0 1 2 -2
1532179925663732 -2 -1 0 0 1 1 1 -1
1532179925685677 -3 -4 -4 -5 -8 0 -14 2
1532179925709636 0 2 -3 -8 -25 2 4 6
1532179925746539 0 -1 -2 -7 0 -6 0 2
1532179925761531 2 0 3 4 4 1 2 -7
1532179925791440 -3 1 2 8 3 -1 7 -6
1532179925829340 -2 -3 -2 -4 1 3 -3 -3
1532179925865896 -3 0 -2 0 11 -2 1 6
1532179925895816 0 0 -2 -7 -1 -2 0 -3
1532179925934712 2 -1 1 1 -25 -5 -5 -7
1532179925972610 -4 -1 4 9 1 -7 -11 -6
1532179925986190 3 -1 -1 -8 1 6 1 -1
1532179926032067 0 -1 -3 -6 -4 -3 -3 6
1532179926054009 0 0 -1 -1 7 5 2 7
1532179926068980 -5 -5 -5 -1 -2 2 1 -5
1532179926091907 0 -1 0 -3 -5 -1 1 0
1532179926161721 -1 0 -1 -1 4 -7 -6 -5
1532179926173689 0 -3 1 6 32 -3 -10 1
1532179926211882 2 -3 -2 -2 -2 0 0 -1
1532179926241801 0 0 -1 -3 -5 -2 1 1
1532179926263742 -3 -2 -1 -2 1 -2 -3 -6
1532179926301641 -2 -3 -2 -1 -6 -2 -2 -2
1532179926309620 -2 0 -1 -2 0 -2 2 -3
1532179926346522 -1 -3 0 0 0 -14 -4 -5
1532179926384420 -1 -1 -3 -9 1 1 -9 -2
1532179926430304 -3 38 -3 -3 -6 8 -10 -3
1532179926451249 1 22 -2 -5 1 2 3 0
1532179926503110 -4 -5 0 2 2 -20 -25 -3
1532179926526065 -1 -2 -4 0 -11 -1 8 2
1532179926563947 -1 1 1 2 4 9 5 0
1532179926623511 3 0 0 0 3 2 13 6
1532179926646450 1 -1 -1 -2 -4 12 20 5
1532179926676370 0 0 -4 1 1 -4 -20 -3
1532179926706290 1 0 3 1 -5 -9 -23 -13
1532179926731223 -19 -4 -1 2 6 12 18 1
1532179926743191 6 -2 -2 -1 -1 -1 11 1
1532179926789068 -3 -4 -3 -4 -3 -6 -29 -7
1532179926811010 -5 -4 -2 -4 -2 -1 -4 -14
1532179926848908 -23 -3 -1 -2 -5 -24 -29 -10
1532179926862871 3 0 -3 0 -1 1 23 4
1532179926888808 5 0 0 -4 16 8 1 4
1532179926924706 10 10 3 1 18 8 3 5
1532179926938668 -2 13 2 -15 -34 -9 9 -34
1532179926983548 1 -7 -4 -8 7 9 -25 -5
1532179927030429 0 -4 2 -2 -22 -7 -8 -4
1532179927097257 -2 -5 -7 -12 -25 -24 -32 10
1532179927112220 0 1 3 2 -20 -27 -4 -7
1532179927126253 0 -2 1 3 2 17 11 -1
1532179927186095 1 1 4 1 -9 5 3 0
1532179927218010 -2 -2 -4 -6 2 -10 7 -3
1532179927231972 -3 -1 5 23 11 -2 9 -8
1532179927247929 -2 -5 -5 -5 9 6 2 -2
1532179927291812 -2 -1 0 2 -8 7 -2 -4
1532179927305775 -4 -3 0 -3 -17 -5 -11 -1
1532179927352649 0 0 -1 1 -3 4 2 1
1532179927375976 1 2 -2 1 5 -1 16 6
1532179927390936 -7 -9 -10 -9 -2 1 -6 -4
1532179927411879 -9 -1 -4 7 2 4 -52 -19
1532179927448781 -7 -2 0 4 6 1 2 12
1532179927471376 1 1 -5 -5 7 4 13 13
1532179927486338 2 1 1 -1 9 -4 -13 -2
1532179927515261 0 -2 -6 -1 7 3 3 -7
1532179927533276 -22 -10 -5 -3 -5 -3 -6 -34
1532179927569172 0 -1 1 2 6 3 -1 9
1532179927599092 0 0 -3 -5 0 -2 -1 -3
1532179927605075 -3 -2 -1 1 10 5 0 -1
1532179927651965 -4 -3 -1 -2 -3 -5 -15 1
1532179927665928 -1 1 3 2 0 0 -9 -1
1532179927696846 -3 -2 -3 -1 0 -1 5 13
1532179927711806 2 5 3 3 0 -3 -9 1
1532179927725769 -5 -10 0 0 -3 0 19 -5
1532179927749704 -9 0 -1 -1 -4 -5 3 -19
1532179927771646 14 2 -2 0 1 2 -3 12
1532179927794585 10 -1 -1 -1 -2 -1 -11 -6
1532179927815528 10 2 0 0 4 2 -12 -21
1532179927841459 7 1 2 1 -3 -2 -7 -5
1532179927868387 -1 -3 -3 -1 -1 -2 9 14
1532179927891326 6 0 -4 -4 -1 0 31 -7
1532179927905288 -13 -2 -4 -4 -1 -2 -7 -2
1532179927929224 -4 -1 -2 -1 2 -1 -19 -6
1532179927952162 -3 -2 -2 -3 -3 2 13 -3
1532179928012003 2 2 2 1 1 2 2 3
1532179928033944 -12 4 6 5 2 1 -3 4
1532179928049902 3 0 -1 -1 0 -3 1 10
1532179928101772 -11 -9 -6 1 -2 -4 0 -5
1532179928139662 4 -1 -2 0 -2 0 -2 -5
1532179928167587 -1 -1 -5 -2 -1 0 -9 -11
1532179928192520 0 -1 0 0 -2 -1 0 0
1532179928214462 -4 -3 -1 0 -3 -2 0 -3
1532179928242387 -4 -2 -3 -3 -1 -2 -8 -10
1532179928253369 2 -2 -2 -1 0 0 0 4
1532179928276296 -3 -1 -1 0 -2 -3 -3 -15
1532179928297240 9 4 9 44 38 6 8 25
1532179928358111 2 3 4 5 41 4 -3 -3
1532179928364095 -1 -14 -14 -23 -33 -10 8 -20
1532179928407978 1 -4 -4 -8 -17 -42 -58 -3
1532179928422938 9 3 1 3 8 25 -30 28
1532179928453855 -7 -7 -7 -5 5 -25 -75 -59
1532179928490778 -4 -4 -5 -11 -1 19 -16 13
1532179928505738 4 2 0 3 14 -6 29 17
1532179928540645 3 4 -1 -5 -3 -32 10 -11
1532179928575557 -1 0 -4 2 2 -26 -15 13
1532179928627412 1 -2 2 -9 -19 -2 2 7
1532179928649354 -9 -6 -3 3 5 8 12 16
1532179928671295 -3 -4 0 7 21 8 -13 -11
1532179928708196 -3 -2 -2 -7 -15 7 0 -13
1532179928755071 3 3 -4 -10 -5 23 3 -23
1532179928768037 -3 -2 2 10 -6 -6 -27 -8
1532179928814911 3 5 12 27 11 15 12 -6
1532179928827983 3 0 0 -6 4 -10 -2 -12
1532179928866586 -2 -4 -2 3 1 1 1 -8
1532179928892517 0 1 -1 -5 -15 -8 -12 4
1532179928928421 -3 0 0 -5 24 -18 -3 -15
1532179928957344 -6 -2 3 17 17 11 4 -26
1532179928978288 -12 -10 -5 -7 -23 6 0 -41
1532179929011200 -2 -3 -4 -19 -16 13 -1 8
1532179929038127 -5 -1 -1 8 6 -5 -4 -27
1532179929071040 3 0 0 9 33 -4 5 -3
1532179929106944 0 -2 -3 -6 -14 -1 -12 18
1532179929130880 1 4 2 -4 -7 -4 2 8
1532179929182281 -9 1 -3 -1 -11 -2 -7 -25
1532179929210628 17 8 1 5 -1 -3 -4 -30
1532179929264486 -6 -3 -6 -5 1 2 -1 -12
1532179929301387 7 -2 -1 1 8 0 -29 15
1532179929316347 -7 -2 -1 -2 -3 2 6 16
1532179929354246 4 1 0 -1 -4 2 1 -1
1532179929377185 0 1 0 -2 -5 -2 0 -7
1532179929399126 -2 -4 -4 -1 4 -2 -2 -4
1532179929444025 -2 -3 -1 11 14 -3 -10 3
1532179929474943 -6 -3 -4 -4 2 1 11 -53
1532179929503865 0 2 1 -1 1 -4 -9 5
1532179929556829 1 -1 -4 -7 -11 0 -12 5
1532179929601762 -9 -2 0 -6 4 -7 1 -19
1532179929649637 5 8 8 32 35 4 15 10
1532179929684540 -3 -5 -5 -4 -4 -1 3 -15
1532179929714460 -3 -1 -4 -2 -1 2 2 -9
1532179929804220 -3 -2 -4 -4 -29 -1 -1 3
1532179929833142 -1 0 1 5 7 -1 -2 8
1532179929857079 -1 -2 2 0 6 0 -2 -19
1532179929907562 -5 -2 0 1 -1 -2 0 -9
1532179929954437 3 3 2 0 2 1 1 33
1532179929976414 3 3 1 2 -4 -17 17 22
1532179930028275 -2 -5 -8 -1 -12 17 10 40
1532179930104072 -3 2 4 9 65 3 120 14
1532179930148952 -2 -29 2 4 -3 1 -20 15
1532179930201810 1 4 -6 -10 -23 15 -12 20
1532179930239710 5 2 -1 -1 8 18 -72 16
1532179930252674 -2 6 0 5 6 -5 50 -2
1532179930269630 5 5 0 0 4 1 54 30
1532179930278606 0 -1 0 5 -3 8 5 -8
1532179930300547 2 0 4 17 27 10 11 3
1532179930323486 -2 3 -1 -10 8 -1 -18 -14
1532179930338445 3 0 -3 0 -9 -5 0 0
1532179930360387 -4 0 -1 -5 -13 -7 -17 -15
1532179930382328 -1 -1 -1 2 -16 -7 4 7
1532179930419230 -4 -3 -3 -1 -3 3 7 -9
1532179930433192 -4 -2 -3 -11 -17 -8 -5 -7
1532179930442169 -4 1 1 2 -22 -5 2 -11
1532179930458125 1 -4 -1 2 -10 -3 -5 17
1532179930481064 -4 -2 -7 -9 -3 2 -16 -11
1532179930502008 2 -3 -5 -5 2 -11 34 0
1532179930537912 -2 -1 -1 -1 -3 -3 23 -2
1532179930546888 -2 -1 5 -1 -2 3 -11 -22
1532179930563875 4 -1 2 1 -2 -6 -3 25
1532179930599772 -25 -7 0 0 1 0 52 28
1532179930612750 7 6 1 -1 2 -2 -42 -18
1532179930621729 -15 8 4 4 1 0 -34 -2
1532179930672577 -2 0 -1 5 1 -7 -9 -8
1532179930696546 2 -3 -1 3 4 -3 -1 1
1532179930718499 -4 -10 1 3 1 5 5 -7
1532179930741426 4 0 -2 -1 1 -1 4 5
1532179930770348 -15 1 1 -1 -2 -5 -10 -5
1532179930788300 8 -2 -1 -2 -1 1 5 -3
1532179930809244 2 2 -1 3 -1 -1 -1 -7
1532179930863131 2 2 -1 0 -4 -4 -4 4
1532179930883077 4 3 3 5 35 0 9 15
1532179930908010 4 0 -1 -6 9 1 11 7
1532179930935936 -2 -3 -2 -3 -9 -3 -8 2
1532179930981813 -1 -4 -3 -6 1 -2 -5 -3
1532179930995775 -3 -1 -1 -1 -1 -5 -11 -7
1532179931026693 -1 -3 -1 1 -1 1 62 4
1532179931041653 2 4 1 1 2 8 -19 -4
1532179931101509 -1 -3 -4 -2 -1 3 -7 -1
1532179931124448 0 2 -1 -3 -29 -2 -11 -1
1532179931139407 1 0 1 3 -6 7 3 2
1532179931169328 2 0 3 20 25 14 -7 3
1532179931191268 -3 -2 -4 -14 -1 -4 -1 1
1532179931222186 -1 -2 -1 -8 -1 -8 -4 -2
1532179931244128 0 3 5 28 20 0 2 7
1532179931289008 -1 -1 -6 -14 5 9 3 0
1532179931303967 -3 2 4 12 -11 4 -9 -4
1532179931341866 1 0 -1 1 -27 -29 1 -1
1532179931363808 -1 -3 2 11 4 2 8 1
1532179931409685 -1 -1 0 4 2 5 5 1
1532179931424644 -1 -1 -1 4 -1 -10 1 -2
1532179931446590 -1 -1 1 2 -4 -2 3 -1
1532179931461546 0 -2 0 1 0 5 5 -4
1532179931490469 0 -2 -3 -2 -2 -15 -5 3
1532179931521386 0 -1 -1 1 0 -5 -3 -4
1532179931535349 -2 0 1 8 0 2 3 -4
1532179931567276 -2 -1 -3 -4 -2 4 1 -2
1532179931582223 -1 -2 -1 -1 0 -1 0 -2
1532179931610149 -2 -1 -1 2 2 -1 -11 -2
1532179931625122 0 -1 -1 -2 1 1 6 6
1532179931643061 0 0 0 1 0 -1 -3 -2
1532179931686944 -1 -1 -1 0 1 2 0 1
1532179931701903 0 0 0 0 0 -1 1 -2
1532179931731823 -1 0 -2 -1 -1 0 -3 2
1532179931745787 -1 -3 -2 -1 0 1 6 -4
1532179931775706 -1 0 -2 -2 0 -2 -4 2
1532179931798644 0 -1 -2 -1 -1 0 -2 3
1532179931829562 0 -1 0 0 -2 -1 -2 -1
1532179931844523 -3 0 0 1 1 0 -1 -1
1532179931858484 2 -1 0 -1 -1 0 0 9
1532179931865466 -1 -2 -1 -1 1 -2 2 0
1532179931883418 -2 0 0 -1 0 0 -2 -1
1532179931920319 1 0 0 -1 -1 -4 -3 -2
1532179931957221 -2 1 -2 0 -1 -1 -3 -8
1532179931970186 -1 -1 -1 0 1 0 1 -1
1532179932010079 0 -2 -2 -2 -3 0 -3 0
1532179932044986 -2 -2 -1 -1 -1 -1 0 2
1532179932093855 -2 -2 -1 -2 -1 -1 0 -11
1532179932099871 0 -1 -1 0 -1 -1 1 5
1532179932143743 1 -1 0 -1 -1 0 -2 5
1532179932151722 -1 -1 -1 -1 -2 -1 -2 -1
1532179932211579 -2 -3 -2 -2 -2 -2 -2 -2
1532179932243477 -1 0 -1 -1 0 -1 0 -11
1532179932263423 -1 1 -1 -1 0 -4 -2 1
1532179932281378 -2 -1 -1 -1 -1 -2 -6 3
1532179932301321 3 -1 -1 -2 -3 -3 -2 -4
1532179932326264 -1 -1 -2 -2 0 3 1 -7
1532179932370190 -1 0 0 2 2 16 5 -3
1532179932406042 0 -3 -1 -2 -8 -23 -1 0
1532179932416015 -3 0 -1 1 -14 -22 -3 -3
1532179932436959 -2 -1 0 -1 -4 -3 -1 2
1532179932474858 -2 0 -1 1 -2 -6 2 1
1532179932488821 2 1 -1 -2 -4 -13 -2 8
1532179932503780 2 -1 -1 1 1 -2 1 -4
1532179932526719 -2 0 0 -2 0 -3 -3 -1
1532179932563620 -5 -3 -3 -3 0 7 2 -4
1532179932594537 -1 -3 -2 -5 -1 2 0 -6
1532179932609498 1 -1 -1 0 0 -1 -4 9
1532179932623470 0 0 1 0 -2 1 -1 0
1532179932647396 -2 -1 -2 0 -2 -1 -1 -4
1532179932683300 -2 -1 -1 -1 0 -1 -5 -8
1532179932714217 0 0 0 -3 0 -3 0 3
1532179932721199 -1 -3 -1 0 1 1 1 2
1532179932767076 -3 -1 -2 0 -1 -1 0 0
1532179932781039 -1 0 -1 0 -1 -1 2 -1
1532179932803978 -2 -2 -2 -1 0 -2 -3 -7
1532179932826916 -1 2 -1 -1 -1 -1 -1 1
1532179932862820 2 -1 0 1 1 -2 -3 4
1532179932886756 -2 -2 -2 -2 -1 -1 1 0
1532179932900718 1 1 0 0 1 2 4 0
1532179932923658 1 2 -2 -1 -1 -1 -4 3
1532179932954575 -3 -2 -2 -1 -2 0 -2 -6
1532179932960559 1 0 -2 0 -1 2 0 0
1532179932991492 -2 -2 -1 0 -2 -1 -3 2
1532179933006436 0 -1 1 0 -1 -1 -2 -1
1532179933021396 -2 -2 0 -1 0 0 0 -4
1532179933043337 0 1 -1 0 0 -1 0 0
1532179933081236 -1 -4 -3 -4 -2 0 0 -2
1532179933112153 0 -1 -1 -1 -3 -1 -1 -2
1532179933164014 -2 -3 -4 -2 -1 -2 -1 -4
1532179933186953 -1 0 -1 -2 -1 -1 -4 -2
1532179933223855 -1 0 1 0 -1 -2 -3 5
1532179933253775 1 1 1 -3 0 -1 -1 1
1532179933260756 -2 -2 0 0 0 -1 -2 -1
1532179933283694 -2 0 0 0 -1 -1 -2 -3
1532179933306633 -2 -2 -3 -1 -3 -1 -1 -4
1532179933320596 1 -1 -2 -3 -1 -1 2 3
1532179933351513 -4 1 -1 -1 -2 -1 -2 -5
1532179933366473 0 -1 -2 -1 -2 1 2 3
1532179933380436 1 -1 -2 -2 0 -1 -1 -2
1532179933403375 0 0 0 0 -2 -1 -1 -1
1532179933426313 4 -2 -1 0 -1 -1 1 4
1532179933440276 -1 -1 -2 -2 -3 0 -3 -2
1532179933464211 -3 -1 -1 0 2 -2 -3 -3
1532179933487151 -1 0 1 -1 -1 1 -2 -2
1532179933509092 -2 -2 -2 -1 -1 -2 -2 -6
1532179933546991 0 -2 -1 -1 -1 -2 -3 0
1532179933568932 -2 -2 -1 -2 -3 0 0 -1
1532179933606842 -2 -2 -1 -1 -3 -1 -1 -2
1532179933629770 -1 -1 -1 -2 0 -2 0 -1
1532179933643732 -1 -2 -1 1 1 3 2 0
1532179933668665 -2 -1 -1 -1 -1 -2 -2 -3
1532179933703571 1 -2 0 0 -2 -2 0 -1
1532179933726511 -2 -1 -1 -1 -1 -1 0 1
1532179933749449 -2 1 0 -1 0 0 -2 0
1532179933763411 -3 0 -1 0 1 -1 -4 -4
1532179933790340 0 1 0 -2 -3 -1 -1 0
1532179933826243 -2 -2 -1 -1 -1 -2 -3 -2
1532179933847188 3 -1 -2 -2 -2 0 1 3
1532179933877108 0 0 -1 -2 0 -2 0 -4
1532179933891070 -3 0 -2 -2 -2 -2 -3 -3
1532179933914009 -1 -2 0 -1 -1 0 0 -2
1532179934003769 -1 -1 1 -1 -1 0 0 -2
1532179934027705 -1 -1 -2 -1 -1 -2 -3 -1
1532179934065604 -2 0 -3 0 -1 -2 -2 -3
1532179934102506 -2 0 1 -1 -1 0 0 -3
1532179934146388 1 0 1 -1 -1 -1 1 2
1532179934176308 0 0 -1 -2 -2 2 -1 0
1532179934191268 0 0 1 -1 -1 0 0 1
1532179934206227 37 -1 0 0 -4 -3 2 3
1532179934229167 -21 1 -2 0 0 0 -3 -2
1532179934267065 2 -1 -2 -4 -2 -1 -1 3
1532179934296984 -1 -1 -1 -1 -2 -1 -1 -1
1532179934310947 1 0 1 0 -1 -1 0 1
1532179934362809 0 -1 -2 -2 0 -3 -1 -3
1532179934386745 -3 -2 1 -1 0 -1 0 2
1532179934445588 -1 -1 0 -1 1 0 1 -2
1532179934469529 -3 -1 -3 -2 -2 -1 -3 -2
1532179934498446 -2 -2 -1 0 -3 -1 -1 -1
1532179934536345 1 -1 0 1 0 -1 0 -1
1532179934551305 -1 -1 0 -1 -2 0 -3 -1
1532179934582222 -2 0 -1 -2 -1 -2 0 0
1532179934589204 0 -1 -2 0 -1 -2 0 0
1532179934628100 -3 -2 -2 -2 1 0 -1 -1
1532179934693924 0 -6 0 -2 -3 -1 -2 1
1532179934708884 -1 2 -3 -2 0 0 2 -2
1532179934761759 0 -1 0 0 -2 0 0 0
1532179934799641 2 -2 -1 -4 -1 -11 -2 -1
1532179934814601 -12 -3 -2 -6 -9 -21 -10 -2
1532179934859488 2 0 3 11 -8 -5 6 -1
1532179934865465 1 -3 -3 -10 -17 5 8 -6
1532179934934281 4 -1 1 -4 -1 1 1 0
1532179934949241 -2 0 -3 1 -1 -9 -10 -13
1532179934985145 -4 -3 0 3 7 3 -2 -2
1532179935017060 7 2 2 6 2 3 -1 2
1532179935091860 -4 -6 -1 -2 -2 -1 -2 -6
1532179935105822 5 -8 -4 -5 11 3 0 -1
1532179935151700 -11 -1 1 1 -4 2 -40 -11
1532179935225502 -7 0 0 -4 2 24 21 -42
1532179935287337 3 0 -2 -2 -5 -18 31 34
1532179935309279 -8 -6 -6 -3 -31 -8 -29 -10
1532179935377097 4 1 0 4 6 4 -8 -54
1532179935436937 -14 -5 -5 -5 11 -24 -9 -58
1532179935525700 2 0 2 -1 18 -1 -4 13
1532179935548637 -3 -4 -4 2 8 5 5 14
1532179935610473 0 -1 2 1 -25 -6 10 -6
1532179935616457 0 -1 0 4 -14 -13 2 14
1532179935654355 -4 17 2 1 7 -10 -7 -6
1532179935684275 0 -4 -2 -1 -4 -8 -11 -20
1532179935714195 0 -15 5 3 12 2 -1 -14
1532179935728158 -5 -2 -5 -4 -2 14 16 22
1532179935773037 -5 -1 -3 -2 1 -3 7 2
1532179935841854 0 -3 0 -7 -12 -5 -9 13
1532179935886734 -2 -1 -1 -8 -13 6 9 -14
1532179935978489 -2 -1 -1 1 3 11 -8 -60
1532179936022371 2 4 1 1 -6 -28 -25 14
1532179936051294 1 -3 -4 -4 2 -6 -2 -3
1532179936082211 -9 -3 -1 -8 -18 0 -10 -25
1532179936134073 -1 -2 1 2 -2 4 26 7
1532179936171985 8 3 0 -4 -2 -2 -10 24
1532179936201891 -3 0 3 -1 -12 11 -8 -46
1532179936320574 1 -1 -8 -3 -4 1 -2 6
1532179936359478 -1 -2 -11 -7 -12 -4 -5 3
1532179936411331 -3 0 -1 -6 -19 9 9 2
1532179936434270 0 -4 -4 -6 12 2 -9 17
1532179936479150 -3 -1 0 -1 -9 6 22 16
1532179936524030 -4 -4 1 0 -3 -4 -20 9
1532179936568909 2 3 2 2 10 -13 3 -1
1532179936636728 -5 -1 1 -3 -10 -5 -17 1
1532179936674627 3 -1 -2 -2 -11 1 10 7
1532179936696568 1 -1 1 9 21 0 5 2
1532179936734466 -2 -1 0 13 -15 -23 -20 -30
1532179936756408 -3 0 -3 0 -21 -18 7 1
1532179936771368 3 -1 -6 -4 0 11 -1 -11
1532179936778350 -3 -2 -3 -4 3 3 1 1
1532179936796302 2 -2 1 -1 11 4 -1 1
1532179936818249 -4 -1 0 3 5 -8 6 3
1532179936854147 -5 -3 -5 -8 4 7 4 3
1532179936891048 -6 -4 -4 -8 -1 -11 7 6
1532179936898030 -4 -4 -4 3 0 2 3 0
1532179936936926 -1 -2 -2 -4 6 4 -5 21
1532179936950889 -2 -1 -2 -6 3 9 -1 -7
1532179936981806 0 1 -3 -3 5 6 -6 -2
1532179937010728 0 -2 0 3 26 5 6 12
1532179937034664 -2 -1 -3 -3 -40 -2 -4 4
1532179937064584 -1 -2 -2 -7 -4 -4 2 4
1532179937070568 -1 -5 2 3 18 3 -6 -8
1532179937094504 2 10 -2 1 -1 -1 5 20
1532179937116446 0 2 -1 -3 4 -11 -5 22
1532179937139390 -1 -5 -4 0 29 0 -14 2
1532179937176286 0 -5 -1 2 6 7 7 5
1532179937191245 4 -1 -1 4 15 0 7 7
1532179937199225 -2 0 0 1 -6 0 -4 -9
1532179937243107 6 0 0 -1 -18 -1 -1 0
1532179937296963 -1 1 -2 -4 -14 6 1 -3
1532179937333865 -1 0 0 -4 -6 -6 0 2
1532179937363784 -2 0 -2 -4 2 2 -27 -2
1532179937394702 0 0 0 1 2 -4 13 8
1532179937400685 -2 -2 0 0 0 2 15 -6
1532179937430606 -1 0 -3 -1 1 -2 -15 -1
1532179937453544 -4 -3 1 1 -1 0 0 0
1532179937484461 -1 0 -1 0 0 -4 -7 3
1532179937522360 0 0 0 -1 -2 -10 -29 -5
1532179937573224 -4 -1 0 1 -1 -5 -10 0
1532179937597160 -2 -1 -3 -2 -2 2 3 -3
1532179937633064 -1 -1 1 0 0 6 -4 0
1532179937657000 1 -1 -1 -1 -1 2 4 -3
1532179937686920 -2 -3 -2 -2 0 -3 -2 -1
1532179937709859 -1 -3 -3 -3 2 -3 -3 -5
1532179937747757 -1 -1 3 8 -9 -16 -4 -7
1532179937752744 -1 -3 0 -1 8 -2 4 1
1532179937799619 0 1 0 -1 11 -1 -11 0
1532179937844499 0 -1 1 -3 -5 -4 -2 3
1532179937882398 -10 -1 -3 1 1 4 -2 8
1532179937910323 5 1 0 -2 -9 -2 0 1
1532179937933261 3 2 0 2 10 -2 2 0
1532179937956200 3 -1 -1 -1 0 -1 0 -3
1532179938009059 0 -2 0 7 3 -7 -6 -3
1532179938024019 -1 -3 -2 -4 4 2 9 3
1532179938061918 -2 0 -1 -2 -1 -1 -1 2
1532179938098818 -3 1 -1 -3 1 -20 -2 3
1532179938112782 -2 0 0 -2 -5 -6 -7 -3
1532179938144695 1 0 0 2 -3 6 2 4
1532179938159656 0 -1 1 0 -1 3 2 -2

1532179938196557 1 -2 -1 -1 2 3 2 1
1532179938226477 -1 1 -1 3 -4 -2 -5 3
1532179938232461 -1 0 1 3 -1 -3 -4 0
1532179938264376 1 2 1 0 1 1 -3 -4
1532179938302275 -2 -1 0 9 6 4 -2 -3
1532179938318232 -1 -4 -3 -4 2 8 8 -2
1532179938383058 -1 0 1 -1 7 -16 -13 -1
1532179938407992 -1 -4 -1 0 15 6 12 0
1532179938459853 -3 -3 -2 -3 -5 -10 -2 -3
1532179938497767 -3 -2 -1 3 3 -9 -7 -10
1532179938526689 1 -1 0 -2 -6 -3 14 4
1532179938541650 0 -1 -1 2 2 1 1 1
1532179938556610 -1 -1 -3 -1 -4 3 -7 -1
1532179938579549 -2 0 -1 0 -10 -8 -7 -6
1532179938609469 -1 2 2 11 8 3 0 2
1532179938624439 -2 -1 -1 -1 1 5 -11 -9
1532179938661333 -1 -1 -2 -5 1 0 -9 -1
1532179938675292 0 -2 -1 -5 4 5 12 1
1532179938699228 0 -1 -2 -2 0 -5 -6 0
1532179938738124 2 -1 0 0 -3 -7 -14 -3
1532179938745106 -2 -2 -3 -2 0 -2 -3 1
1532179938782008 0 0 -2 0 -1 0 -2 -3
1532179938827896 -1 -2 -1 -1 -1 -1 -1 -2
1532179938857817 -2 0 -2 -2 -2 -2 -2 -3
1532179938864798 -4 -2 -2 0 -2 -3 -2 -6
1532179938904714 0 0 0 -1 -1 -2 -3 0
1532179938909700 -2 0 -2 -3 -2 1 2 -8
1532179938939620 -2 -1 0 -1 0 -4 -2 -5
1532179938984500 -1 0 -1 -2 -1 0 0 3
1532179939015418 -1 0 2 0 0 -3 0 -2
1532179939023396 1 -2 -3 0 0 0 -1 4
1532179939059300 -2 -2 -1 0 0 -1 -2 -5
1532179939097199 0 0 0 0 0 0 0 0
1532179939127119 -1 1 -3 -1 -2 0 0 -1
1532179939149060 0 1 -1 -1 -2 0 -1 -1
1532179939178980 -1 0 -2 0 0 -1 -3 -3
1532179939217876 0 0 -1 0 -1 0 -1 0
1532179939224857 -2 -1 0 -1 0 0 -4 -7
1532179939268755 -1 -2 -2 0 -1 -2 -2 -3
1532179939298660 0 0 0 -1 0 -1 -2 -3
1532179939336559 -2 0 -1 -2 -1 -1 -1 -12
1532179939374457 -3 -1 -2 -1 0 -2 -1 0
1532179939412356 -1 -2 -1 -2 -1 1 0 0
1532179939419337 -1 -1 -1 -1 -1 0 -2 -3
1532179939481237 -2 0 -2 -3 -1 -1 1 3
1532179939493205 -1 -2 -1 -2 0 1 -1 0
1532179939503179 0 0 -2 0 0 -1 -1 0
1532179939534096 -3 -4 0 -2 -1 0 -2 -8
1532179939584960 1 0 -1 -1 0 -1 0 -3
1532179939605905 -1 -2 -1 0 0 -1 -3 -4
1532179939628842 0 0 -1 0 -2 -1 0 2
1532179939695664 0 0 -1 -1 0 0 0 0
1532179939720598 -3 0 -1 -1 -1 -1 -1 -7
1532179939742539 -2 -2 -1 -2 0 -1 0 -5
1532179939777445 2 -1 -2 -1 -3 -1 0 7
1532179939824320 0 -2 -1 0 1 -1 -1 2
1532179939848260 -1 -2 0 -2 -1 -3 -5 0
1532179939861221 -2 -1 0 -1 -1 1 -3 -4
1532179939891141 0 -1 -2 0 0 -2 1 -1
1532179939929040 -2 -1 0 -2 -1 0 -2 -3
1532179939944000 3 0 0 0 -2 0 -2 5
1532179939981898 -2 -1 1 0 -2 -2 -2 -1
1532179940003840 -3 -1 0 -1 0 1 -1 -3
1532179940017802 -1 -2 -2 -2 0 -1 0 -3
1532179940049718 -1 -2 -1 0 0 0 1 -1
1532179940071659 2 -2 -1 -2 -3 -1 0 4
1532179940100581 -2 -1 -2 -1 0 2 -4 -1
1532179940131498 -1 0 -2 -1 -3 6 -5 -1
1532179940153440 -2 -1 -2 -2 -2 7 1 -4
1532179940169397 0 -2 -3 0 -1 1 2 1
1532179940191338 -2 0 -1 -2 -2 -3 -1 1
1532179940206299 -2 1 0 0 0 -5 -3 -1
1532179940259157 -1 0 -1 -1 -1 -2 0 -7
1532179940281099 -2 0 -3 -3 -1 0 1 0
1532179940326975 -1 -2 0 -1 0 -1 1 -1
1532179940340939 0 -1 -1 0 1 -2 3 2
1532179940410752 -1 0 -2 -2 0 -3 -2 0
1532179940447653 2 -1 -2 -1 -1 -1 10 2
1532179940453637 -1 -2 -1 -3 -2 -3 -2 -3
1532179940483557 -2 -2 -1 1 0 0 -2 -2
1532179940507493 0 -2 -1 0 -1 -1 0 1
1532179940543396 -2 -2 -1 -2 -2 -2 -4 -2
1532179940575312 0 -1 0 0 -2 -2 -7 -2
1532179940603237 0 0 -1 0 -1 -1 -2 -4
1532179940627173 -1 -1 -1 -1 -2 -1 -3 -2
1532179940641154 -2 -3 -1 -2 -2 -2 1 0
1532179940663076 1 -1 0 -1 -1 1 0 -2
1532179940693994 -3 -1 -2 -3 -1 -3 0 -2
1532179940700976 -3 -1 0 -1 -1 -1 0 -3
1532179940723914 1 -2 -3 0 -1 -1 -2 2
1532179940746853 -1 -1 -1 0 -1 2 -10 -5
1532179940761812 -1 -3 -1 -1 0 0 3 -1
1532179940783780 -1 0 1 -1 -2 -4 -1 0
1532179940806718 0 2 0 -2 -2 -1 1 -1
1532179940843620 -1 -2 -1 -1 0 0 1 -1
1532179940866558 -2 0 -2 -3 -1 -2 -2 -1
1532179940881519 1 1 -1 -1 0 4 -7 -6
1532179940903461 1 0 -2 -1 -1 -3 -1 0
1532179940926399 0 0 -1 0 -1 -2 -4 -1
1532179940940361 -3 0 -1 0 -2 -2 -1 -2
1532179940964297 -5 -2 -2 -2 -2 6 4 -5
1532179940986246 -1 -1 -1 0 -2 0 2 0
1532179941000201 -3 -2 -1 -2 0 -3 -2 -5
1532179941047075 0 -1 -1 0 -3 1 3 3
1532179941069018 -1 0 -2 -1 -2 -1 0 1
1532179941090985 -1 -1 -2 -1 -1 -2 1 -1
1532179941106941 -4 -2 -1 0 -1 -2 -2 -5
1532179941120905 -3 -1 -1 -1 1 -2 -3 -3
1532179941166782 -1 -3 -2 -1 -2 5 2 0
1532179941180745 -1 0 0 -2 0 -1 4 0
1532179941203683 -1 -3 -2 0 -2 -5 -5 -2
1532179941240585 -2 -1 -2 -1 -1 -2 -4 1
1532179941263523 -2 1 0 0 0 -1 -1 -3
1532179941286462 2 -1 0 -1 -3 -2 -3 2
1532179941309401 -1 0 -2 -2 -3 -2 -2 -3
1532179941354281 1 0 -1 -2 -2 -2 -9 -3
1532179941369279 -2 0 -1 -2 0 -1 -2 -9
1532179941391182 -2 -2 -1 -1 0 -5 -6 -2
1532179941429081 2 0 -1 -3 -1 -2 -1 4
1532179941473960 2 0 -2 0 -1 -1 -2 1
1532179941488921 1 -2 -2 -3 -2 -1 -1 -2
1532179941511859 0 -1 -2 1 1 7 4 2
1532179941556739 -2 0 0 -2 -1 -2 -3 -1
1532179941563720 1 -3 -1 -1 0 0 3 -4
1532179941609598 -1 -2 -2 -1 -2 0 1 -4
1532179941623560 -1 0 0 -1 -2 -3 -7 -5
1532179941669446 0 -1 -1 -2 -1 -1 1 1
1532179941683401 -1 -1 -1 -1 0 -1 0 7
1532179941767176 2 -1 -2 -1 -2 -3 -4 -2
1532179941805075 -1 -2 -2 -1 0 -5 -2 -1
1532179941833998 -3 -1 -2 -1 -1 0 0 -1
1532179941871897 -1 -1 -3 -1 0 1 1 4
1532179941886857 -2 0 -1 -1 -3 -1 -1 -2
1532179941939715 -2 -1 0 -2 0 -3 -3 -6
1532179942006537 0 -2 -1 -2 -1 0 -4 -1
1532179942029475 -2 -1 0 1 0 -1 -5 -3
1532179942043438 0 -1 -3 1 1 1 7 -1
1532179942112259 -1 -1 -1 -2 -1 -2 -2 -7
1532179942172094 -1 -1 -2 -1 0 0 -1 0
1532179942187054 -2 -3 -1 -1 -2 -4 -1 -3
1532179942208995 -1 -1 -1 -2 -3 0 0 2
1532179942238915 0 -1 -1 -2 -1 -1 -2 5
1532179942306734 -2 -2 0 -1 -2 1 2 -2
1532179942351614 -1 -1 -2 0 0 -1 2 -1
1532179942374552 1 -1 -2 -3 -1 -2 -2 -2
1532179942411454 -4 -1 0 0 0 0 -1 -2
1532179942449352 0 0 0 -1 0 -1 -1 1
1532179942471293 -2 1 -1 1 -2 -3 -2 -1
1532179942518168 0 -2 -2 -1 -1 0 -2 -3
1532179942538115 -1 0 -1 -1 -1 -2 0 -1
1532179942591971 1 -2 0 0 -2 -1 0 2
1532179942636850 -3 -1 -1 0 -1 -1 -3 -6
1532179942665774 -1 -2 -2 -1 -1 -1 -5 -3
1532179942749549 -2 -1 -2 -1 -1 -1 -1 1
1532179942786451 -1 -1 -1 -2 -1 -1 -1 -3
1532179942809389 -1 -2 -1 -2 -1 1 2 0
1532179942845293 -3 -2 -1 -1 -1 -1 0 -4
1532179942869230 -2 1 -2 0 -1 -3 -2 -2
1532179942891171 1 -2 -1 -1 -1 -1 2 5
1532179942964974 0 -3 -2 -4 -4 0 7 1
1532179943025810 -1 -1 -1 9 9 0 -8 -1
1532179943094627 -7 -4 -1 -3 3 10 -9 -36
1532179943139506 3 3 0 -1 4 -1 8 14
1532179943177406 1 -1 -1 4 1 -29 3 1
1532179943238243 2 1 -3 -3 -2 -3 -1 8
1532179943259187 -5 -1 -2 -5 -7 -4 -5 3
1532179943364904 -3 1 2 2 -1 15 11 4
1532179943401805 5 0 -5 -5 -1 -6 6 6
1532179943484584 1 3 3 1 13 -2 -16 -7
1532179943514504 -5 0 -3 -7 -25 -9 7 -14
1532179943612253 3 -1 0 1 7 -4 6 13
1532179943672083 -4 -1 1 3 -3 -6 -33 -19
1532179943733917 1 -2 0 4 -25 -8 2 4
1532179943753868 6 1 4 21 37 6 -5 35
1532179943791763 -2 -2 -2 -4 -18 -11 -7 0
1532179943827666 -4 -3 -5 -4 -10 -4 10 3
1532179943874541 -4 -1 2 -2 3 -1 11 14
1532179943896482 1 -3 -1 2 -4 0 -1 5
1532179943934381 -5 -2 -1 -6 0 1 -7 -16
1532179943948344 0 -3 -2 -3 6 -1 3 2
1532179943978264 -2 0 -1 -2 0 2 -5 -8
1532179944008184 -5 -5 0 -6 -13 -1 6 -1
1532179944031122 -2 -1 -2 -8 0 8 -2 -5
1532179944038104 -4 -3 -1 1 -2 -11 11 0
1532179944076999 7 3 0 1 16 0 4 6
1532179944090962 -1 -1 2 7 -1 -3 7 -25
1532179944097944 -3 -2 -1 -2 -4 5 -2 -4
1532179944115909 -7 -4 -2 7 -5 -2 -9 -29
1532179944142824 -3 -2 -3 -8 5 -4 -15 1
1532179944165762 0 2 3 11 20 0 5 -3
1532179944175749 2 -2 -1 -6 -13 1 11 17
1532179944198675 2 1 -3 -6 -4 -6 -7 3
1532179944213635 0 3 5 9 15 6 -4 -1
1532179944256520 -3 -5 -2 -2 -6 -3 -5 -17
1532179944271480 -2 -3 -1 1 14 -5 -15 34
1532179944294418 -1 3 0 -2 -3 -3 4 -8
1532179944323341 1 1 -3 -5 -9 8 9 -1
1532179944384178 -1 -3 -5 -6 -13 -11 -11 -8
1532179944399142 -2 -3 -3 1 -11 -2 -2 -5
1532179944436040 3 0 0 -4 11 4 9 1
1532179944450002 3 1 -1 -1 -1 0 1 10
1532179944473938 0 1 -2 -7 12 0 -2 -20
1532179944496877 -3 -2 -3 -3 -11 -4 -1 -10
1532179944510840 -1 -2 -1 0 1 0 -6 -5
1532179944541757 -5 -4 0 1 10 -6 -4 -6
1532179944556717 3 0 1 0 -4 -4 -2 9
1532179944577661 0 -2 -2 -1 -8 1 12 11
1532179944616556 1 -2 1 7 10 5 17 15
1532179944630520 -1 0 -1 -2 6 7 -1 -2
1532179944654456 0 -1 -3 -8 -7 -1 -9 4
1532179944684376 2 0 0 1 -5 8 8 -7
1532179944699335 0 -1 -2 0 -2 1 5 8
1532179944714295 -5 -3 -4 -12 -13 -1 -6 -6
1532179944736237 -5 -3 -2 -3 -4 -2 -3 -23
1532179944767154 1 0 1 -5 -1 -7 1 12
1532179944783111 -2 -1 1 1 -14 -2 -1 -5
1532179944810039 0 0 0 -1 -2 4 3 0
1532179944841954 -1 -3 -4 -1 0 -5 -7 -1
1532179944856914 -1 0 0 3 17 7 13 4
1532179944896808 0 2 2 4 21 11 22 15
1532179944930716 0 1 1 1 -2 4 6 -3
1532179944939694 -2 -1 0 1 3 -5 -8 -1
1532179944961634 2 0 -3 -1 -2 -2 -1 16
1532179944978588 4 -1 0 0 12 -4 -4 -1
1532179945005517 -2 0 2 -2 -29 -7 -11 -1
1532179945036434 -3 -2 -4 -2 -9 0 1 -13
1532179945059373 -1 0 0 5 -5 -3 0 1
1532179945081313 0 0 0 -5 -5 2 3 5
1532179945097272 4 1 -1 -7 -14 -7 -6 3
1532179945119214 -1 -4 -3 0 -3 4 9 3
1532179945157112 3 2 -1 0 4 0 5 3
1532179945180050 -2 -2 -3 -1 -3 -1 -6 3
1532179945194012 -1 0 1 3 11 5 -2 -4
1532179945238902 1 -2 -1 -4 -4 3 0 4
1532179945254850 -1 -1 -1 3 6 2 -9 6
1532179945276791 -3 -1 -1 -5 7 -12 -14 -7
1532179945306712 0 -1 -1 -3 -5 1 0 0
1532179945344609 0 1 0 2 -6 4 4 -9
1532179945380514 -1 0 -1 2 5 1 1 5
1532179945441352 1 -1 -3 -4 -5 3 9 0
1532179945456311 -2 -2 -1 -3 -20 5 -1 2
1532179945479250 -3 -1 1 2 0 1 -3 -7
1532179945493212 -3 -1 3 8 1 -9 -7 -25
1532179945516151 -1 -2 -3 -3 9 3 4 10
1532179945539090 1 1 0 14 8 0 -1 8
1532179945556045 0 -2 -1 -3 -11 6 6 3
1532179945576988 0 -2 -4 -7 -7 -3 -1 2
1532179945598929 0 -2 -3 -5 -12 4 8 3
1532179945621868 -1 -2 -2 4 13 8 3 2
1532179945658770 -4 -1 -1 2 2 1 6 -1
1532179945681709 1 2 0 4 18 2 4 15
1532179945719608 0 -1 0 3 -5 3 -5 1
1532179945732573 -3 0 1 -2 -8 -4 2 0
1532179945741548 -1 -2 -1 -1 -4 -9 -7 0
1532179945779448 0 -1 -1 -2 1 -6 -2 -4
1532179945792413 -1 -2 -3 -2 0 -4 4 -6
1532179945809368 -1 -2 -1 -2 -2 -1 3 -6
1532179945856242 2 -1 -1 -1 -1 0 -2 17
1532179945876189 -2 -3 -1 -1 -1 7 7 -2
1532179945929047 -2 -1 -1 -3 -4 -1 -1 2
1532179945943010 -2 -2 -1 -6 -6 7 6 -4
1532179945981906 -1 1 -2 -3 1 -5 25 -3
1532179946003847 0 -2 -1 -2 -6 5 -6 0
1532179946034764 0 -2 -3 2 7 -3 -26 2
1532179946064685 -2 -1 -3 -1 3 -15 5 -2
1532179946101586 2 0 -1 -2 13 6 0 -1
1532179946116546 0 -1 -2 0 4 3 1 2
1532179946175389 -2 -3 0 2 -3 2 1 -2
1532179946206306 0 3 7 22 11 -2 -4 0
1532179946221266 -1 0 -2 -10 -4 -17 -3 3
1532179946244205 1 0 -4 -3 3 -7 -6 3
1532179946282103 0 -1 -1 -3 -2 6 1 6
1532179946326982 1 1 3 10 5 0 1 0
1532179946348925 0 -1 -1 -13 0 2 -1 1
1532179946378845 -2 -4 -3 0 -13 -4 -3 1
1532179946415751 -2 0 0 -3 5 -3 -2 -9
1532179946439682 0 0 1 2 4 2 2 1
1532179946469602 0 0 -2 -1 -6 7 -1 2
1532179946484562 -2 -1 0 1 -3 2 -5 -1
1532179946522460 -2 -2 -3 -4 14 4 7 -6
1532179946535426 2 0 -1 0 -10 -12 2 1
1532179946552381 -2 -1 -2 5 16 3 2 -3
1532179946582301 -1 0 2 1 -22 2 4 1
1532179946626183 1 0 -2 0 -11 -23 -12 0
1532179946655112 0 0 -1 -4 -4 -9 -9 -1

1532179946708962 -1 -3 -4 0 -7 1 -5 -1
1532179946714946 -1 1 0 -2 -3 3 -9 -1
1532179946746860 -4 -3 0 9 18 13 -5 -3
1532179946761820 2 0 -3 -6 -11 -2 5 6
1532179946798721 -2 -2 0 -9 -20 -26 -1 -1
1532179946821660 0 0 -1 -4 -6 -4 -8 1
1532179946857565 -1 -1 0 2 11 3 0 -2
1532179946904439 -2 0 1 2 -1 -12 -30 -5
1532179946917404 0 -1 -3 0 -1 -7 0 0
1532179946988490 -1 -1 -1 0 -4 -5 7 -1
1532179947002453 -1 0 -1 -3 -17 -26 -7 -6
1532179947038357 -1 -2 1 2 2 8 -2 -1
1532179947092213 -1 1 0 0 -6 -10 0 1
1532179947098197 0 -1 -1 0 1 6 4 -2
1532179947121136 1 0 -1 0 23 24 11 0
1532179947143077 -3 -2 0 -5 -5 -5 -1 1
1532179947213488 -1 -1 -1 0 -5 -17 2 -6
1532179947234431 -2 0 -1 -1 -4 -26 1 -1
1532179947263354 -3 -2 -1 1 8 24 0 -2
1532179947286293 3 -5 -2 -2 -1 11 -12 -2
1532179947302250 -12 1 1 1 -3 -6 8 3
1532179947323194 -3 0 -4 -2 0 16 9 -3
1532179947384031 2 -2 -1 -1 -5 -11 13 1
1532179947406969 0 0 -1 -1 -2 -2 4 -1
1532179947420933 -1 -2 -1 -2 1 12 -1 -1
1532179947443872 4 0 -1 -1 2 6 -4 -1
1532179947473791 -7 -4 -5 -1 23 29 -15 -6
1532179947503712 -1 0 0 -2 -4 -8 1 1
1532179947518671 0 -2 -1 0 -2 -1 -3 0
1532179947563551 -1 -2 0 0 -1 23 1 0
1532179947593471 -2 -3 -1 -3 2 10 5 -2
1532179947609430 -1 -1 -2 -1 -5 -5 -1 0
1532179947623391 -1 -1 -2 0 2 6 2 -1
1532179947661290 -3 -2 1 1 -2 -6 0 -3
1532179947683232 -2 -1 -3 -1 -4 -3 -1 -1
1532179947699193 1 -3 -3 -5 -8 -30 -3 -1
1532179947721130 -3 -1 0 0 1 -1 -1 -2
1532179947752047 0 1 0 -2 -2 1 1 1
1532179947780978 -2 1 -1 -2 -2 2 -1 -3
1532179947819866 -1 -2 0 0 -5 6 0 -2
1532179947871754 -1 0 -3 -6 -23 -3 0 1
1532179947902672 1 0 -1 -1 -11 -4 -1 -2
1532179947946554 0 1 -1 2 22 2 0 1
1532179947961515 0 0 -1 2 2 -1 0 -2
1532179947983456 0 1 -1 -4 0 -3 0 0
1532179948014374 -2 -1 -2 4 6 -2 -2 -1
1532179948068229 0 -1 -2 -4 6 1 -3 -1
1532179948074218 -1 -3 -2 -3 -10 -3 0 -3
1532179948103142 0 1 -1 2 11 0 -2 -4
1532179948134059 -2 -1 -1 2 -5 -1 0 0
1532179948163979 0 -3 -2 -8 -14 -2 -1 -2
1532179948186913 1 -1 0 -2 -2 -1 0 1
1532179948223814 -2 0 0 -3 9 2 -1 -2
1532179948253941 1 2 -1 2 -9 -6 -2 -1
1532179948268900 -3 -2 -4 -5 11 -1 0 -2
1532179948321624 -1 -1 1 -4 -15 0 -2 -1
1532179948343566 -1 -1 -4 -1 -8 -1 -2 -2
1532179948374497 0 -1 -2 -1 -19 -1 -1 1
1532179948380467 -2 -1 -1 -7 -11 -2 0 -1
1532179948426345 0 0 3 14 26 2 -1 -1
1532179948463246 -1 -1 -3 -8 -9 -2 -2 -2
1532179948494164 0 -2 -3 -5 -6 -2 -2 0
1532179948500148 -3 -1 0 -3 -3 -1 0 -1
1532179948548030 1 0 0 -1 0 0 1 1
1532179948569980 -1 0 -1 -3 -7 -4 -2 -1
1532179948606862 -1 -1 -2 0 6 -1 0 -1
1532179948620826 -2 -1 0 3 2 0 0 -2
1532179948666709 -1 -2 -2 -2 -14 -4 -3 -2
