1532261544778073 -3 -30 -13 -16 -1 0 -1 -1
1532261544853870 -4 14 -7 -3 7 0 -24 -12
1532261544868830 -9 -16 2 -1 0 -2 -6 -5
1532261544883790 2 2 -1 7 0 -2 -19 -5
1532261544909721 -3 1 7 2 -1 -6 -6 -9
1532261544928671 -3 -9 -4 2 4 5 2 -2
1532261544950611 -7 -4 -2 -12 -9 -1 -9 -7
1532261544980531 -1 -1 0 -1 1 2 66 9
1532261544995491 6 1 -2 -7 3 6 33 10
1532261545048350 1 -10 -8 -5 2 -4 7 1
1532261545101209 -3 -9 -5 -5 -4 -10 -12 0
1532261545153070 -9 -15 -14 -6 -2 9 46 -1
1532261545198967 -5 43 9 -16 -6 0 -12 -7
1532261545228874 6 14 3 -18 -5 2 -8 -8
1532261545280729 14 -13 10 3 5 7 -38 39
1532261545363507 6 47 13 0 1 1 -6 -12
1532261545402403 -1 -18 3 2 4 15 21 -6
1532261545415368 5 -6 3 11 8 17 21 1
1532261545446286 9 24 -3 -8 -9 -24 -33 1
1532261545468228 -2 -15 -6 -1 3 11 121 9
1532261545485182 -8 -36 0 2 3 1 -60 -22
1532261545506126 -4 22 -8 -5 -6 6 -7 -29
1532261545551006 2 -14 9 8 1 16 31 20
1532261545625806 -15 -79 -25 -9 -8 20 111 -5
1532261545730551 -7 -21 -18 -6 0 6 -47 -12
1532261545761443 -5 -36 -1 11 1 -1 80 24
1532261545783385 4 3 11 3 1 -7 -2 -3
1532261545806323 -1 63 9 0 1 -5 16 8
1532261545821283 -1 0 -12 -1 -3 -26 -25 -12
1532261545873145 -7 -18 -13 -1 -2 14 56 17
1532261545947944 4 22 13 -22 -5 5 18 -34
1532261546000803 5 -40 -20 5 5 3 37 12
1532261546030723 8 -31 5 -7 -2 0 6 2
1532261546045683 -8 -22 -16 -2 1 -2 1 -30
1532261546075603 -6 -27 -9 -5 -2 -2 -8 -8
1532261546090562 -16 56 -12 -4 -4 -4 -32 -3
1532261546143422 7 53 9 5 3 3 11 0
1532261546211240 1 -2 0 3 -1 1 19 -4
1532261546241160 13 35 22 8 3 0 1 0
1532261546286041 3 2 1 -1 -6 -10 -4 -15
1532261546337902 -3 -1 -4 -2 -2 3 13 -4
1532261546375800 -9 23 -11 -2 -2 -8 -21 -5
1532261546443619 -5 -8 -4 -4 -4 -4 -23 -2
1532261546510440 -7 -66 -19 -6 -6 -11 10 17
1532261546608179 -6 -1 -7 -3 -2 3 0 2
1532261546631118 0 27 -10 9 0 1 14 -11
1532261546682979 -9 -28 1 -26 -6 -4 -12 -6
1532261546818616 -3 71 103 -2 -8 -4 -6 3
1532261546930317 2 -15 -24 -3 -3 -9 -2 3
1532261547087897 -1 -4 16 0 -1 0 4 5
1532261547155728 1 6 11 1 2 -5 -3 2
1532261547186632 0 -2 -45 -2 1 3 3 4
1532261547209571 -1 7 1 -4 -1 -8 -1 -7
1532261547255449 -5 -11 -52 1 2 0 3 -2
1532261547306312 2 5 7 0 -4 -3 -3 -1
1532261547455912 -12 -58 83 4 -8 -11 -1 -7
1532261547508771 -3 10 40 0 -4 -12 1 7
1532261547538704 8 38 21 3 -5 32 4 1
1532261547650392 5 8 63 0 3 28 -9 -2
1532261547696269 -2 -10 -36 1 -9 -31 -1 -1
1532261547756115 -1 -8 30 -2 4 -16 -4 -4
1532261547786030 0 11 26 -3 -12 -4 -1 2
1532261547822943 -2 -3 -4 -1 -6 3 -2 -3
1532261547860829 6 1 -18 0 -12 -28 0 2
1532261547973568 -3 -19 -4 -6 -12 52 5 33
1532261548010469 10 23 8 0 -4 -12 1 10
1532261548041401 -3 -13 -19 -6 -3 -15 -5 -42
1532261548063328 7 -10 -8 -3 -2 -1 4 20
1532261548078287 1 19 -3 5 11 1 0 11
1532261548101227 0 16 -2 1 -15 -8 -42 -37
1532261548138128 15 14 -1 2 12 3 -7 30
1532261548176026 0 -11 2 0 3 -5 -20 20
1532261548205959 -5 -42 -1 1 1 5 38 33
1532261548250826 -2 27 -7 1 -1 5 -13 6
1532261548273765 -4 -11 -7 -6 -1 0 -29 17
1532261548288726 -4 -1 -2 1 8 11 54 -9
1532261548318646 7 -22 -11 -3 3 2 -7 8
1532261548348565 0 70 12 0 -1 -1 14 0
1532261548370507 6 -36 1 -1 -2 6 39 -3
1532261548415387 9 46 -5 3 1 -1 23 7
1532261548446317 -9 115 -3 -3 -9 -23 -96 -11
1532261548483208 -3 68 8 2 -3 4 4 10
1532261548537061 -24 -2 3 4 0 8 -66 -16
1532261548551024 5 -45 -9 -6 -4 7 46 2
1532261548567978 -10 -14 1 4 2 18 123 7
1532261548580944 -16 -70 -8 1 2 2 -15 -22
1532261548610863 -11 -96 -25 -4 2 -8 -49 -41
1532261548633802 16 26 4 3 3 6 49 5
1532261548648762 -2 37 -6 0 0 8 5 4
1532261548670703 18 127 2 -4 -8 -11 27 9
1532261548708602 -24 29 2 3 2 -2 -101 -33
1532261548723562 3 -59 -8 2 0 1 41 10
1532261548753482 35 -28 1 0 -2 4 -16 7
1532261548790384 -3 85 -2 -4 -3 -10 11 -26
1532261548805348 4 -6 4 4 3 -3 -30 0
1532261548836261 8 39 0 -8 -3 8 -2 45
1532261548851221 -12 -25 5 5 1 -9 30 -25
1532261548888122 6 57 12 8 4 10 26 6
1532261548911061 11 34 3 -3 3 13 -15 -15
1532261549023760 -3 -15 -1 -3 -2 -6 18 37
1532261549053680 4 -39 -12 -6 -5 -5 9 17
1532261549084597 4 -11 3 5 0 2 1 -2
1532261549098560 -4 33 7 2 1 -3 -25 -19
1532261549135461 -10 17 -5 1 2 8 8 63
1532261549158400 -6 10 -5 -3 -2 6 18 12
1532261549271098 -9 16 -3 0 1 -6 -39 -36
1532261549308005 1 -2 0 3 1 3 -7 -3
1532261549375825 1 40 -4 -2 -4 -6 -6 3
1532261549406741 3 8 -31 4 1 -8 -2 2
1532261549420705 -1 -9 59 1 3 1 1 3
1532261549437658 5 -5 88 0 -3 -3 -4 0
1532261549473563 -5 20 -13 -4 -6 0 0 -2
1532261549593243 -2 27 -61 -14 -4 -3 -2 -1
1532261549616182 -10 -69 -76 -1 0 4 5 -4
1532261549638123 -4 -16 50 15 -1 -1 1 3
1532261549705941 10 -3 85 -2 -2 -1 24 15
1532261549727882 13 46 26 2 -2 -1 -10 3
1532261549848560 30 38 -61 3 4 -1 -14 -14
1532261549908400 20 30 -118 -4 -6 -6 -19 4
1532261549968240 -6 -10 28 0 -1 2 5 17
1532261549998160 -15 -25 -27 -10 -4 -3 5 -10
1532261550185683 1 -23 -19 -5 -10 -4 12 21
1532261550245523 0 18 0 5 9 9 -12 1
1532261550441000 0 0 -30 -3 5 1 1 -9
1532261550515800 -10 -39 -6 -14 -4 -4 -19 -39
1532261550658419 -1 -28 42 2 4 4 2 -6
1532261550688350 6 16 -2 1 -2 1 4 32
1532261550763139 16 44 -15 -10 -3 -7 -2 -9
1532261550795054 -2 -14 -4 -10 2 2 2 2
1532261550837965 -10 38 -66 -9 -4 2 2 -8
1532261550928723 5 1 -124 -35 -7 -2 -4 -5
1532261550988563 -18 -39 16 -4 -5 -4 0 -10
1532261551025502 -7 -21 -33 -38 -7 0 -5 -15
1532261551086339 11 -3 -34 -3 -2 -3 -1 6
1532261551227961 -11 0 -65 0 -4 -1 -4 -20
1532261551288798 -9 15 4 -3 0 -2 -21 -6
1532261551318719 -6 -70 -66 -9 -3 0 -9 -2
1532261551370580 0 18 -13 25 13 6 0 0
1532261551430420 1 18 5 -17 7 7 2 0
1532261551498245 2 -1 40 1 -19 -8 -2 2
1532261551543125 -1 2 0 -4 6 2 -6 -3
1532261551597978 3 -7 -18 5 -7 -4 -1 3
1532261551678785 2 -4 12 -3 -3 -6 1 -1
1532261551708705 1 -3 28 -5 -4 -3 -2 -2
1532261551738625 1 13 54 5 0 0 4 -2
1532261551843344 5 7 -27 -3 -2 -4 -14 10
1532261551904183 -14 -4 -22 -12 -5 0 0 -15
1532261551927122 -19 7 43 3 1 2 -1 -25
1532261551950059 -11 -18 -10 -5 0 -4 -10 0
1532261551977985 28 88 6 4 0 6 67 8
1532261552015884 -8 10 -3 -6 -3 -2 -36 -34
1532261552053783 10 -11 -6 -1 -9 2 20 13
1532261552091682 -4 -7 6 6 2 -6 -23 7
1532261552128583 1 -6 18 4 1 -9 -36 -8
1532261552173463 2 0 26 -2 0 10 11 -22
1532261552263222 -2 9 -4 6 2 -7 -7 -21
1532261552323062 -1 28 -89 -1 -1 -1 4 4
1532261552367942 1 -4 -10 -1 2 3 3 -23
1532261552413820 15 -7 5 -29 -2 21 62 60
1532261552443740 -4 13 -16 -1 -1 -1 -27 -16
1532261552465681 -9 16 56 19 1 -1 -6 -6
1532261552503579 7 -12 11 6 -1 -10 -83 -34
1532261552525521 -24 9 13 -15 -6 3 59 68
1532261552563420 -30 -38 96 -8 -8 -6 -14 -73
1532261552640214 -2 30 -55 6 3 7 10 -32
1532261552750928 10 -48 10 -10 -6 1 71 63
1532261552855638 -6 16 88 20 6 5 0 -5
1532261552908506 18 -12 -21 -11 -9 -3 -8 1
1532261552977313 -5 23 56 -7 2 4 0 -12
1532261552991276 -4 -30 -23 1 -1 3 1 -21
1532261553058097 -2 -6 -41 -5 -9 0 0 -15
1532261553155835 1 17 -20 4 5 -1 4 -5
1532261553232631 -3 -7 12 9 -4 -1 -2 -4
1532261553290476 1 19 0 2 -4 -3 0 -3
1532261553366279 1 -18 -2 -10 -1 -1 0 -1
1532261553388214 2 20 4 5 6 3 1 2
1532261553448054 0 -11 17 5 9 13 2 2
1532261553470993 -1 -1 8 3 -3 -2 1 0
1532261553492934 1 3 7 5 -5 -6 -1 0
1532261553545793 -3 2 -3 -13 -6 -1 -1 -2
1532261553583691 -6 23 1 16 1 -1 -1 0
1532261553613612 1 12 -5 -3 2 0 1 -3
1532261553710353 0 -13 -3 0 1 -1 0 0
1532261553793131 1 -9 -17 2 1 -1 -1 0
1532261553823051 -1 3 -31 -6 -2 -4 -1 1
1532261553845991 6 23 -8 5 1 -1 -1 2
1532261553882891 0 -19 26 2 -2 -2 2 -1
1532261553913816 -2 -22 33 -3 -1 -1 -1 -2
1532261553958696 -2 -10 56 -5 -2 -2 -1 -1
1532261554025528 2 -20 -34 -3 -4 1 1 0
1532261554063416 -4 -5 2 0 2 2 0 -6
1532261554086363 12 4 4 4 1 -3 -8 -38

1532261554123255 -35 -2 11 2 0 8 -6 -12
1532261554153176 -1 24 12 4 1 1 20 3
1532261554183096 9 38 77 26 0 6 6 6
1532261554206042 -5 44 -37 10 -19 -16 -4 -14
1532261554220995 -2 -26 -43 -35 -5 4 1 -1
1532261554250915 5 -5 -19 -14 4 4 3 0
1532261554295795 -4 -22 -4 -9 3 2 -6 -2
1532261554318771 -1 -29 -12 -1 2 2 -1 10
1532261554363652 -2 -5 -23 -17 -1 0 1 -3
1532261554393581 -4 -55 10 -5 -1 -1 1 -1
1532261554423492 4 8 12 -3 0 1 1 0
1532261554468372 -4 -8 -10 -2 1 -1 0 2
1532261554521231 6 14 4 0 -1 0 -2 1
1532261554558132 0 6 24 -6 -3 -3 -1 -2
1532261554581071 1 -4 18 -2 0 2 1 -1
1532261554610991 1 3 9 3 2 1 2 -1
1532261554632932 1 12 2 -7 -6 0 -2 -2
1532261554662852 -2 -2 -13 -5 -1 0 -1 -2
1532261554693770 -1 5 8 4 3 1 -1 -2
1532261554730671 -3 14 20 4 2 1 -3 -4
1532261554753610 0 3 -43 -5 -2 1 1 0
1532261554820431 0 -5 0 0 0 2 1 1
1532261554835391 -1 6 -10 -2 -2 -2 -2 1
1532261554899221 -3 7 25 2 -1 -3 -2 -2
1532261554918169 -2 -8 32 5 3 0 -1 -3
1532261555007929 -2 -3 -20 -2 -1 1 1 -3
1532261555143567 1 4 0 1 -1 -2 0 3
1532261555248287 -2 1 0 1 0 2 -3 -1
1532261555332063 -2 0 -5 -2 -1 0 -3 -3
1532261555420825 -1 -2 -26 -4 -2 3 0 1
1532261555443764 1 -11 -37 -4 -4 -3 1 6
1532261555458730 -1 -3 1 0 5 2 0 -3
1532261555488651 -4 -5 -26 -5 -2 0 -2 -3
1532261555510609 -1 2 15 0 -2 2 0 0
1532261555548508 -1 -11 -19 -2 -2 -2 -1 0
1532261555570449 2 -2 -16 -1 1 0 -1 -1
1532261555585409 -1 0 -17 1 0 -2 0 -1
1532261555600369 -1 6 9 1 -3 1 -2 -1
1532261555631286 2 6 -25 -3 -2 4 0 -1
1532261555646246 0 -9 0 -6 2 0 4 14
1532261555676167 5 2 35 -4 3 15 -6 14
1532261555690887 -3 15 14 4 1 -4 2 -23
1532261555705847 1 4 2 7 -3 -21 13 50
1532261555735767 7 -27 -53 4 8 12 -6 14
1532261555758705 1 0 67 -8 -6 7 -7 -6
1532261555780646 1 6 37 -23 1 4 5 -4
1532261555795607 -2 29 62 -2 -14 -14 -11 -5
1532261555818545 -4 -45 -46 -19 -5 2 -5 14
1532261555840487 2 -16 -43 -6 3 2 -2 6
1532261555878385 4 3 -35 0 2 1 -2 10
1532261555908305 3 1 -6 4 -2 0 1 3
1532261555938225 -2 12 0 3 -2 -1 0 5
1532261555968144 -1 2 -15 1 2 -1 1 11
1532261555991083 -7 -16 1 -1 -4 0 0 -8
1532261556006058 -1 -6 -17 -3 1 0 -3 0
1532261556021004 0 -17 -4 -1 -1 -1 -3 0
1532261556050924 0 -9 -10 -7 -3 -1 -1 -1
1532261556072867 -3 -14 -5 9 1 -3 0 2
1532261556095804 4 6 8 -3 -2 -1 0 0
1532261556110764 -2 -41 -4 -1 1 -4 1 1
1532261556148662 -2 -22 -4 -5 -2 -2 -2 0
1532261556163622 -2 4 -15 -3 2 1 -1 0
1532261556185564 -2 15 11 3 3 0 2 -1
1532261556245404 3 -7 -17 -14 -6 1 0 0
1532261556261362 0 -15 -66 3 2 -1 0 -1
1532261556283302 0 9 15 2 3 2 1 -2
1532261556313222 0 -5 2 -2 1 2 0 -6
1532261556336161 0 -7 -20 1 -1 2 1 -1
1532261556358102 0 -2 -4 -5 -1 0 0 -1
1532261556396001 2 32 14 -3 1 -1 -1 2
1532261556417942 -3 -19 -20 -3 11 2 2 0
1532261556478780 -3 -4 9 16 3 -2 -2 -1
1532261556508700 -1 1 3 -4 0 3 -1 -2
1532261556530640 -1 -10 -4 30 16 0 1 1
1532261556560561 -2 -45 22 33 -1 -3 -5 -2
1532261556590481 6 53 17 9 -2 -1 8 12
1532261556628380 -5 -7 -4 -8 -7 -1 -19 -38
1532261556643340 5 21 9 23 6 -13 -77 7
1532261556673260 -5 -3 -13 -12 -3 2 16 -4
1532261556696198 2 25 -5 -6 4 15 49 18
1532261556726118 -14 -33 -7 -1 2 22 -40 -11
1532261556763020 14 9 19 10 -1 -9 16 16
1532261556777980 -6 -25 -6 -5 0 4 12 -22
1532261556808897 -2 -41 -10 -4 1 1 33 40
1532261556830837 9 -66 5 6 2 -1 -15 14
1532261556860758 2 5 -9 -7 2 -13 -33 33
1532261556875718 3 3 -22 -3 3 5 18 0
1532261556905667 -6 -91 -4 4 -8 -22 -21 -11
1532261556928576 7 -9 9 25 11 1 3 23
1532261556943537 -4 17 3 7 1 4 9 18
1532261556973457 11 39 -13 -6 9 -5 -34 3
1532261557086155 10 14 5 1 -2 -14 -30 2
1532261557108096 -2 -10 -7 0 2 -2 -41 6
1532261557123057 -2 -20 -5 7 2 1 -26 -9
1532261557167937 4 -69 21 7 6 6 26 6
1532261557205836 6 -78 10 -11 -5 -16 -37 1
1532261557258694 7 -66 -3 -2 0 -5 -30 2
1532261557303573 -5 15 12 8 3 0 26 9
1532261557355435 -2 51 1 3 2 -1 -22 18
1532261557416273 8 51 27 9 4 -6 -6 40
1532261557446193 1 -20 0 1 -1 -18 -23 5
1532261557468134 -6 -21 -10 -1 -2 -1 -29 -13
1532261557513020 2 1 2 0 3 -2 61 1
1532261557580832 -4 -10 -5 -7 -5 0 15 1
1532261557610753 -15 -17 12 10 4 0 26 -14
1532261557655633 7 29 -3 2 2 -1 6 6
1532261557700513 -3 -68 -5 -3 -3 -4 -2 -15
1532261557738411 22 50 18 7 3 -3 -17 30
1532261557760353 4 -18 -6 -4 -3 -3 -4 14
1532261557791270 4 9 10 -7 -6 -5 -40 -4
1532261557843131 2 -8 2 -3 2 -2 -17 2
1532261557902972 3 -18 -6 -6 -5 -6 -20 -5
1532261557948849 -4 -54 9 9 5 -6 1 6
1532261557963809 -1 47 13 -2 -1 3 5 3
1532261557985750 9 -17 -17 1 10 3 -3 2
1532261558015670 4 77 -45 3 2 3 -5 -2
1532261558060550 2 -51 67 13 6 -4 2 8
1532261558090469 -5 4 31 0 -2 -10 -4 0
1532261558188209 4 -13 -12 -10 -2 4 3 1
1532261558360763 0 0 -7 -2 0 -1 0 8
1532261558375706 2 1 -27 -2 3 0 -3 3
1532261558390678 13 11 -1 2 3 8 4 6
1532261558420586 -3 -5 -11 -3 -1 6 3 11
1532261558450507 1 -3 1 -2 -1 -12 -5 -2
1532261558518326 -7 -28 -3 -4 -2 -1 -3 -3
1532261558578166 -1 -7 -10 -7 -6 17 5 1
1532261558645985 -3 -8 -11 -6 -7 -18 -3 -3
1532261558667926 -1 1 -34 -7 9 2 2 -2
1532261558713803 -5 5 50 -9 -7 2 -4 -3
1532261558789613 5 1 52 9 -8 -14 -3 0
1532261558863402 -5 -21 -34 11 6 16 -1 -1
1532261558916261 2 -2 51 -1 -4 14 0 -4
1532261558931221 -5 -7 -22 -3 4 -12 -1 -2
1532261558976102 -3 -21 -17 3 -3 -10 -2 -2
1532261559029958 5 14 16 -5 1 -6 0 2
1532261559088801 -3 -12 50 2 6 -16 0 3
1532261559103760 9 19 34 -1 14 -10 0 -5
1532261559140661 0 0 -4 -3 -22 -2 1 7
1532261559163599 10 31 -16 -5 -1 -7 -3 -15
1532261559200501 -5 -7 10 -9 4 3 2 1
1532261559223440 2 1 -5 5 1 -1 1 0
1532261559261339 -8 -59 -13 -2 6 -3 -13 14
1532261559291259 -14 -48 -2 -8 -11 4 -43 -15
1532261559328160 2 10 3 3 -7 -9 4 4
1532261559367061 0 -1 3 5 0 2 13 -5
1532261559388000 2 -15 -3 -1 -14 -7 -5 -16
1532261559403958 7 31 1 -9 -4 -1 42 1
1532261559440859 -9 -86 3 5 6 7 -23 -4
1532261559463798 0 38 7 3 -2 -10 -93 -6
1532261559508677 22 100 17 -3 4 9 7 -1
1532261559530619 5 26 -16 -7 -7 -6 2 9
1532261559560539 -12 -9 3 4 4 6 -11 -6
1532261559590458 -8 -1 -10 -8 -14 -5 -34 -26
1532261559628357 -1 -17 -1 1 3 -3 -32 -16
1532261559658278 -26 -104 -20 -8 -3 3 44 -16
1532261559703158 8 -67 -6 2 -3 6 -16 -2
1532261559762997 10 -27 1 3 2 -6 0 7
1532261559830816 3 49 17 0 -2 -10 12 -27
1532261559853755 -6 21 10 10 7 12 -34 8
1532261559875696 -14 -39 -35 -15 -11 -13 -29 -3
1532261559890656 23 73 22 8 5 -1 -57 1
1532261559920576 4 62 11 10 5 6 37 7
1532261559958475 -7 29 -5 -2 0 4 39 -16
1532261560048235 -2 -23 -1 7 7 2 -22 16
1532261560093114 -15 25 -4 1 -1 -1 29 -18
1532261560175893 -9 -52 -6 -5 -4 -7 17 -14
1532261560250693 22 -27 -3 3 -1 3 -1 27
1532261560370374 -17 -34 -3 -3 -2 1 9 0
1532261560461131 7 15 2 -1 -4 -2 5 -21
1532261560491050 16 21 29 2 -1 1 0 -9
1532261560527952 14 20 42 -13 1 -6 -2 -12
1532261560557872 -42 99 -68 6 -5 -6 -12 -30
1532261560633669 -23 -28 20 7 31 8 -2 -18
1532261560670570 32 14 34 7 -9 -1 -27 2
1532261560738389 1 -48 4 -15 -16 -14 7 67
1532261560761328 11 7 1 2 6 3 -18 -29
1532261560791248 8 24 -73 5 4 3 13 -15
1532261560813189 2 -27 99 -11 -11 -9 -10 -23
1532261560851088 19 22 112 2 0 4 -1 4
1532261560873029 -42 -61 3 1 2 2 3 1
1532261561008666 14 29 31 -5 -3 -3 -6 26
1532261561113387 17 24 16 44 35 12 15 22
1532261561135327 -4 23 -94 -70 -34 -7 7 26
1532261561262986 -10 16 51 22 4 5 -32 0
1532261561285925 -27 -19 12 3 1 3 4 -28
1532261561428560 2 -17 -52 3 -2 -7 -17 -6
1532261561511322 -13 17 74 -2 3 5 3 4
1532261561534261 4 3 -17 -8 -7 -2 -29 5
1532261561593103 -4 2 -63 -29 -3 3 34 -15
1532261561631002 0 1 36 10 -1 10 34 9
1532261561690842 -42 -40 -41 5 1 3 10 -51
1532261561818500 7 -40 -90 2 0 -5 -3 12
1532261561863381 -7 26 23 7 -1 4 9 -24
1532261561946159 2 60 29 -1 -5 -5 -3 1
1532261562097754 -1 -16 -11 5 1 7 7 0
1532261562125679 -1 6 -28 0 -6 -2 5 1
1532261562140639 -4 -12 18 -19 -4 0 1 0
1532261562238394 -5 -16 25 14 9 5 -5 -1
1532261562300213 -2 -6 16 -19 9 11 -2 -1
1532261562366037 -10 -30 -24 2 -16 1 -40 -11
1532261562402938 3 3 -9 -3 -2 -5 -9 1
1532261562464772 9 25 45 34 -4 -5 -7 7
1532261562486713 17 -16 -70 -10 5 -3 3 4
1532261562509652 2 -38 -21 -12 -7 -4 -2 0
1532261562554532 -9 -4 -7 -8 -2 4 0 7
1532261562575477 6 -2 4 -9 -5 0 17 20
1532261562636314 -3 -17 -65 -5 -3 1 3 -9
1532261562658255 -3 -17 86 8 1 -5 -12 -9
1532261562688175 -8 15 74 -9 -4 2 14 0
1532261562711114 -8 -36 17 2 5 2 11 10
1532261562741034 -17 26 6 0 0 -3 1 -8
1532261562777934 -5 11 37 -3 -4 -10 -4 2
1532261562807855 0 4 17 0 0 1 13 3
1532261562838772 -4 7 -53 -9 -5 -4 -14 -1
1532261562905607 2 -2 13 4 1 -8 1 -7
1532261562936511 -2 -10 -33 -7 -2 3 7 0
1532261562965434 -4 6 16 -10 -3 4 1 -3
1532261562982388 -3 -18 -8 9 -2 -1 12 7
1532261563011311 -8 16 127 3 -8 -2 -1 1
1532261563026270 4 6 15 -4 0 -5 -6 -24
1532261563063172 7 10 6 1 2 2 12 14
1532261563078132 2 8 -12 -2 4 0 39 9
1532261563137972 -23 -22 1 -17 -14 -9 -35 -26
1532261563182852 -3 -18 -32 0 0 1 2 -4
1532261563288570 5 34 54 24 -2 10 -32 2
1532261563325471 12 -1 8 -2 -4 12 32 36
1532261563386308 -5 4 35 3 1 -5 -3 -3
1532261563438170 -13 -22 -16 -33 -15 -6 -43 -54
1532261563483050 -12 16 -49 -6 2 -1 7 -21
1532261563505988 6 19 -5 57 26 2 8 2
1532261563527930 16 16 22 26 14 9 -8 0
1532261563544884 3 9 18 -13 1 -15 -20 6
1532261563565828 4 2 36 -9 -5 6 -1 -5
1532261563580789 -2 46 23 6 3 4 -6 -23
1532261563625668 -4 37 41 -1 2 -6 -69 -42
1532261563663567 16 14 -3 17 -7 -1 8 16
1532261563700468 -14 9 23 -6 -5 -5 -10 -12
1532261563730388 3 21 -13 -3 0 -3 -4 7
1532261563762302 3 -1 7 18 8 0 0 4
1532261563784257 4 28 17 -8 14 3 2 5
1532261563798207 2 -4 -5 0 -11 -7 1 0
1532261563828127 -2 -16 -8 -48 -23 -2 -2 -1
1532261563866025 0 7 -22 -28 1 3 4 0
1532261563978724 1 3 4 39 7 -4 -1 -2
1532261564030585 1 1 -12 -32 -11 -2 1 0
1532261564053523 1 20 4 11 1 1 1 0
1532261564083444 3 15 6 -9 2 2 0 0
1532261564105398 3 5 12 1 4 2 0 -1
1532261564143284 3 -9 -5 -2 1 -1 0 0
1532261564188164 -6 -53 -18 5 -3 -5 -2 -4
1532261564270943 -1 -5 -47 -2 -4 -6 -3 0
1532261564323801 -2 -4 -5 -6 2 0 -3 -1
1532261564338761 0 1 -21 0 -1 -1 -1 1
1532261564360703 -1 -2 18 -2 -3 0 0 1
1532261564383642 -3 -6 -24 -6 -4 0 0 1
1532261564413562 0 8 28 11 1 0 0 -1
1532261564450463 0 3 13 1 2 -1 1 2
1532261564465422 -2 -10 11 -3 -2 -2 -1 -1
1532261564496340 3 -8 59 16 8 -1 0 0
1532261564526260 -2 -4 15 -2 -5 -2 -4 -6
1532261564556180 1 -4 -39 -6 -2 -3 -2 -4
1532261564578121 -1 16 -5 2 1 1 -1 0
1532261564630980 -6 2 45 -3 -2 -1 -2 -5
1532261564660899 27 -12 -15 3 0 -2 -1 0
1532261564750659 7 17 -3 5 -3 0 -3 1
1532261564765620 -11 -4 -26 2 2 -2 0 12
1532261564810500 9 25 11 -10 -2 -26 -10 -57
1532261564848398 -7 -16 0 -15 -5 -8 -10 -14

1532261564870340 9 6 -31 -6 -15 5 3 2
1532261564893279 -7 5 -19 -17 -1 0 2 6
1532261564908238 -7 -5 10 -1 1 2 3 -6
1532261564923198 5 -5 -14 -7 -4 -4 -3 -3
1532261564953118 0 -60 -16 -4 -2 -12 -3 1
1532261565035897 1 -10 -51 -13 2 0 -6 0
1532261565080777 4 6 -1 -9 -4 1 -5 4
1532261565110696 -5 7 -4 -1 -4 -2 -3 -2
1532261565148596 0 1 0 2 1 -1 1 -3
1532261565170537 -4 2 -11 -1 -3 -2 -2 0
1532261565185497 5 31 6 -4 -4 -2 1 -2
1532261565208436 -1 -3 -11 10 6 -1 1 -1
1532261565253316 -1 -7 11 1 1 1 -2 -8
1532261565298196 4 -6 -1 -1 0 2 -2 -4
1532261565336094 -7 -15 -6 -4 -2 -1 -1 -2
1532261565419899 -1 -20 -17 -4 -1 -4 -2 -7
1532261565455803 -7 -14 98 -13 -6 -8 -4 -4
1532261565478741 5 28 -23 -20 0 -1 -1 8
1532261565500683 -7 -23 -11 12 1 -3 -3 -8
1532261565515642 4 5 -8 0 3 -10 3 5
1532261565620724 14 -18 -2 -8 -5 12 -16 -37
1532261565695524 4 -8 -1 -4 -1 -6 -2 -6
1532261565725444 3 -4 4 2 -3 -3 2 0
1532261565763343 -2 -17 -13 2 0 1 3 -1
1532261565778303 1 3 -14 -3 -3 -2 -1 -1
1532261565808223 -1 1 -23 2 -1 2 -2 -1
1532261565823182 2 4 -8 14 -4 -6 -1 -1
1532261565838143 -1 6 16 -13 -6 -2 -2 -1
1532261565868063 0 1 2 -3 0 0 0 2
1532261565897983 -1 -3 4 -8 -8 -1 0 -2
1532261565912943 2 11 10 17 6 -1 0 1
1532261565935882 -2 -6 -12 -25 -7 -2 -3 -1
1532261565965801 5 8 -1 15 9 3 0 2
1532261566003700 3 -6 -6 -13 -2 1 4 1
1532261566018668 -6 -1 7 0 -3 -1 6 3
1532261566040601 1 4 2 14 14 2 27 3
1532261566063540 0 17 11 4 -3 -2 -4 -6
1532261566078499 3 11 5 13 5 3 -1 -3
1532261566123380 2 -4 -2 -2 -9 -6 -36 0
1532261566146319 -5 -4 -1 -8 -5 -5 -76 -19
1532261566183220 -4 0 0 0 -1 1 35 3
1532261566206167 3 -1 -3 -2 -2 -2 1 4
1532261566222133 3 37 20 10 4 2 10 2
1532261566265999 -11 -11 -23 5 1 2 -26 -2
1532261566287955 1 -27 -9 -6 -2 4 30 -4
1532261566318857 0 4 2 -12 -7 -7 -27 -5
1532261566348777 -6 -54 -14 -6 -5 3 3 25
1532261566378697 2 -2 23 2 -1 -1 13 -17
1532261566520319 13 -14 7 -1 -1 -3 -53 5
1532261566551235 18 0 15 9 7 -4 17 49
1532261566596116 8 67 8 7 4 -2 -31 -2
1532261566626036 -9 -11 1 -8 0 6 -1 -31
1532261566662937 4 40 -7 -10 2 19 47 10
1532261566753695 -14 -31 -15 -2 -3 11 38 6
1532261566784613 18 13 17 10 5 -3 46 9
1532261566850436 10 17 19 4 5 15 8 2
1532261566956153 15 38 0 0 0 -7 -1 2
1532261566978094 -1 -32 -8 0 -3 -11 -51 13
1532261567143652 20 13 16 4 2 2 1 4
1532261567180553 -32 -41 -4 1 4 9 22 -57
1532261567286270 5 23 -1 0 -1 2 48 27
1532261567338132 11 -15 13 6 2 1 -6 15
1532261567397972 12 29 12 2 1 1 -2 -3
1532261567435870 -4 -63 -2 2 0 -9 5 -8
1532261567480750 6 9 11 0 -4 -5 36 13
1532261567533609 1 3 -5 -5 -3 8 13 -15
1532261567585473 4 59 -7 -2 3 3 5 -2
1532261567608409 4 -47 5 -15 -7 -5 13 4
1532261567661268 1 -11 -1 -7 1 4 28 1
1532261567677225 -2 6 14 14 4 -7 -10 0
1532261567728090 6 -1 -10 -6 -4 3 28 -9
1532261567833806 -18 -6 2 2 3 6 -9 -7
1532261567885668 -1 19 33 3 4 3 -11 -10
1532261567923566 -5 3 -12 6 4 1 -9 2
1532261567945508 1 8 -51 -1 1 0 -7 -7
1532261567975428 10 59 -92 -4 5 4 -3 7
1532261568028286 -4 10 7 36 1 -1 -1 0
1532261568058206 -2 -13 -14 -24 -5 15 -1 -3
1532261568088126 3 47 27 -1 0 1 1 -1
1532261568140985 -4 -54 44 -1 -2 3 3 -2
1532261568155945 3 -5 -48 -14 -4 -7 -1 0
1532261568192846 -2 -7 -9 0 -2 5 -1 -2
1532261568223763 -1 -9 -29 1 2 16 2 3
1532261568245705 2 17 12 -1 -2 -6 -3 -2
1532261568261662 8 15 25 6 6 3 1 4
1532261568305544 6 13 -4 -2 0 -11 -1 2
1532261568320504 -3 8 -18 4 -3 -8 -3 -2
1532261568358403 -6 -12 10 -4 -1 -3 -1 -3
1532261568396302 -1 -4 1 -3 -4 -5 -2 -2
1532261568411262 3 -8 -1 -1 40 8 3 4
1532261568426221 2 12 19 11 -8 -21 2 1
1532261568463123 6 -3 -20 0 8 13 4 -8
1532261568493043 -4 -2 6 -2 -11 -15 -2 -17
1532261568508003 0 -5 -7 -1 0 -4 5 -13
1532261568538921 4 6 2 0 2 3 4 -19
1532261568560862 -1 8 -7 -2 0 2 -2 1
1532261568598761 -2 2 -4 4 7 3 2 1
1532261568650622 1 -6 -7 4 3 6 -1 -14
1532261568673561 -4 -2 3 -3 0 -2 -4 8
1532261568695502 -13 -11 -12 -7 -2 -3 0 -7
1532261568725422 0 0 -1 1 1 6 3 3
1532261568816179 1 -6 -7 0 0 1 0 3
1532261568853081 -1 0 6 3 2 -3 -1 1
1532261568927880 4 2 -3 -2 1 -1 -2 1
1532261568965779 5 3 -8 -5 -3 0 -1 0
1532261569063518 0 -5 -8 -4 -3 -6 0 5
1532261569085460 1 -10 -13 -3 1 3 -2 0
1532261569100419 -2 4 -2 -1 0 -16 -4 -2
1532261569115379 1 0 -24 1 -1 -8 0 0
1532261569138318 -2 -4 0 -4 0 7 -1 -2
1532261569243037 5 4 4 -7 -1 -2 -3 0
1532261569265976 2 14 29 0 -3 6 1 0
1532261569310856 -1 12 16 0 -9 -24 -5 -2
1532261569325817 7 -6 -12 -3 -3 -1 1 3
1532261569370697 -4 -14 -2 2 2 1 -1 -2
1532261569385657 5 17 6 -3 -5 -36 -2 1
1532261569408595 -1 2 -13 -3 -5 -16 -1 -1
1532261569460456 2 1 9 2 17 3 4 1
1532261569505336 -1 2 21 1 -11 3 -1 0
1532261569582131 -2 2 7 -6 -12 6 3 -1
1532261569605077 3 2 -44 -8 -10 -5 -5 -16
1532261569618035 1 -6 0 -3 -4 -6 0 18
1532261569640974 -1 3 3 3 13 7 3 16
1532261569655948 7 -27 7 -1 -3 0 0 6
1532261569692835 -12 3 -10 -4 -5 -15 1 26
1532261569723752 2 24 9 1 0 3 -4 24
1532261569745694 5 14 7 1 3 5 -1 -34
1532261569760653 2 -14 2 -1 14 2 -3 0
1532261569805533 0 28 -3 -5 -5 -6 -6 -10
1532261569867385 -10 -9 -12 0 3 2 9 7
1532261569903272 4 51 -1 -13 -13 -5 -9 0
1532261569919230 -8 -27 -5 4 20 -3 -30 -20
1532261569941170 -2 9 7 6 -3 5 -4 -4
1532261569971091 18 65 9 5 -2 9 98 23
1532261569993032 -4 -128 -4 5 5 -2 -3 -2
1532261570015971 10 45 21 5 3 8 36 -9
1532261570030931 -14 105 20 9 3 6 14 -62
1532261570053870 18 8 5 0 -2 1 -5 18
1532261570105731 -3 -86 -19 -8 -7 -10 -65 7
1532261570128670 0 -15 -5 -7 -9 5 90 19
1532261570143629 1 -46 -2 -4 -1 2 13 -10
1532261570165571 11 72 -2 3 -4 -13 -20 -8
1532261570180531 -19 -6 -10 -2 2 -4 -37 -5
1532261570203469 -14 -26 -6 -1 5 -9 -11 -25
1532261570218429 5 -33 -11 -11 -18 0 14 7
1532261570240370 -6 -17 -6 -8 -11 -7 -22 -12
1532261570263309 -1 -23 -5 -6 -3 -9 -60 12
1532261570293229 -5 33 20 3 1 13 100 -9
1532261570323150 5 3 9 5 6 0 12 -19
1532261570376008 -5 -12 -9 -7 -5 -2 -1 -13
1532261570390968 14 27 -2 0 -3 -3 5 1
1532261570420888 -31 -18 -18 -10 -5 -6 19 -3
1532261570435848 14 -15 2 -4 -5 6 39 8
1532261570458787 -4 -2 -5 1 1 -1 -6 -2
1532261570473747 -10 -12 -11 -11 -8 -11 -8 -21
1532261570503667 12 36 14 -2 0 2 3 8
1532261570518627 -14 -37 -16 -4 0 2 4 -1
1532261570548546 1 -19 -11 -5 3 -3 -1 -17
1532261570570488 12 44 9 3 2 2 29 3
1532261570585448 9 -37 13 3 14 0 -34 -7
1532261570600408 -6 30 2 1 -1 1 11 -3
1532261570638307 -11 -41 2 4 1 3 0 0
1532261570661245 -14 -1 1 -3 -2 2 26 9
1532261570691165 4 -5 -17 -9 -5 -5 0 -6
1532261570713106 9 34 17 5 3 3 -29 -8
1532261570743027 -21 -2 -41 -14 -11 -2 37 -2
1532261570765965 -8 15 3 -1 -3 -2 10 13
1532261570780925 0 -53 -12 -7 -4 6 4 -5
1532261570833783 -4 -11 25 6 4 6 27 -4
1532261570923544 -3 79 10 0 0 -3 -30 -11
1532261570953464 -2 0 -9 1 0 -3 15 -1
1532261571021282 -4 -47 0 1 1 -1 10 -7
1532261571043224 4 66 -2 -1 0 2 19 -29
1532261571088104 -5 -32 3 -4 -6 -3 -20 8
1532261571140962 7 -10 1 1 1 4 34 15
1532261571215762 4 -8 -8 -5 -4 -4 20 24
1532261571275603 -7 -38 -4 -1 1 -2 -29 -50
1532261571314498 -3 -68 -13 -5 -4 -1 1 -14
1532261571358381 -5 -14 11 -2 -1 -2 -3 -2
1532261571388301 3 -1 -15 0 0 -1 -1 7
1532261571426200 1 -2 -12 0 -2 -2 -1 5
1532261571458114 -1 -16 64 -2 0 -2 -5 0
1532261571507987 -1 9 -18 -2 -2 2 1 2
1532261571537907 2 -11 -65 4 0 0 -3 -3
1532261571575805 1 15 14 13 5 3 -1 1
1532261571628664 3 -5 -83 21 -4 0 1 -1
1532261571673544 -1 17 21 -7 -2 -4 -2 -2
1532261571710445 -8 -69 7 15 17 5 0 -1
1532261571793223 -17 -47 6 0 -7 -8 2 -5
1532261571816163 -10 -2 -53 -6 -8 -6 -11 -3
1532261571853064 3 -16 28 -4 -14 -3 -7 5
1532261571882984 16 46 30 11 6 -40 -13 6
1532261571905923 -22 1 -1 5 -7 6 33 22
1532261571927864 19 -22 -30 3 0 7 2 -1
1532261571950803 -3 -33 12 19 9 12 -3 -42
1532261571965762 16 10 3 0 2 15 4 -6
1532261571995682 23 33 -44 -20 -9 3 20 17
1532261572040563 39 5 29 10 11 4 14 66
1532261572063501 -5 -54 2 -20 -14 -8 -13 -26
1532261572085461 -21 -5 -19 -9 -4 -2 13 -18
1532261572108382 -4 -18 -38 -19 -17 -12 -3 1
1532261572146280 -15 0 36 -16 -10 -2 -4 -33
1532261572161240 -6 15 19 12 2 1 -1 -2
1532261572191160 27 -30 -1 19 8 2 -11 26
1532261572228061 -4 -1 21 7 8 -3 -7 -2
1532261572257981 -22 59 6 -3 -1 -6 -14 -11
1532261572302861 -19 -40 28 9 -1 3 10 11
1532261572325800 -12 16 23 5 -1 1 -2 -27
1532261572370679 -7 16 -6 6 2 -5 -8 -11
1532261572393618 6 -47 -76 -3 -1 0 -5 26
1532261572408578 7 -8 -20 -7 2 0 -6 13
1532261572423539 0 -5 64 11 3 0 -7 -9
1532261572438498 16 -48 -35 -28 -9 -3 -13 -11
1532261572475400 11 11 33 10 0 -4 -5 6
1532261572558179 -8 -23 -5 9 0 -1 -5 -1
1532261572611037 38 35 58 5 3 0 -44 0
1532261572662899 -7 -8 -23 -24 -6 5 7 -8
1532261572677859 17 -1 29 9 -2 -11 -57 15
1532261572700797 9 33 48 -4 -5 -1 18 -9
1532261572715757 -13 12 -22 9 7 -4 8 -5
1532261572745677 -11 -11 -80 -6 2 -5 5 -3
1532261572783576 5 -15 49 -4 -5 3 -21 -22
1532261572799533 3 26 53 6 0 5 20 -19
1532261572866354 -1 -16 -23 4 0 4 20 9
1532261572926195 -4 -12 26 1 -2 -7 -54 -14
1532261572957121 -6 22 -72 -9 -6 -2 12 -3
1532261573007976 0 -28 5 7 6 1 9 4
1532261573090754 -1 -27 -3 -1 -3 1 7 0
1532261573165554 -1 -10 9 -10 -7 -4 1 -2
1532261573188492 -4 -19 -11 -19 -14 -2 3 -4
1532261573233373 -2 -10 -13 2 -36 -4 1 0
1532261573280248 1 1 -17 -6 2 -1 0 3
1532261573316152 -2 -1 12 3 18 9 2 -1
1532261573390951 2 -7 0 -14 9 12 1 -1
1532261573549528 4 1 22 4 -37 -14 1 5
1532261573578450 3 60 -15 -5 2 -6 -32 -6
1532261573600391 -1 -45 -8 -2 17 0 -9 -3
1532261573653250 4 -9 -6 -14 -16 2 12 12
1532261573676189 -1 -2 107 -23 16 6 4 4
1532261573728050 2 -14 -24 5 7 -1 9 -3
1532261573757970 -6 -17 -28 14 7 2 2 -10
1532261573780909 -5 -22 2 -4 -5 -1 1 -15
1532261573833767 0 -15 -15 0 5 3 13 0
1532261573870669 6 11 -7 -3 -2 1 9 13
1532261573960429 6 17 -29 5 2 10 -5 -2
1532261574028248 4 18 -11 1 3 5 78 14
1532261574066146 -3 -4 -3 -5 -6 -7 -2 -25
1532261574081106 -6 5 -27 1 2 4 55 36
1532261574125986 -5 13 34 2 -4 -1 7 6
1532261574155906 1 -11 -106 -18 -5 0 -21 -2
1532261574223725 -21 8 1 -3 -6 -7 -18 -32
1532261574283564 -4 6 33 17 14 8 -27 -1
1532261574373325 7 -9 26 -7 -4 -4 25 21
1532261574486023 23 -8 -128 -4 -4 -18 -8 98
1532261574560824 -13 4 39 9 -5 19 120 28
1532261574583762 7 39 79 -1 10 5 -10 -3
1532261574614680 -13 0 -63 -14 -1 7 -35 -14
1532261574650584 -24 -26 -24 18 3 -1 -12 -28
1532261574673524 10 -5 28 -15 -18 7 35 17
1532261574725383 -7 3 45 -25 -10 7 -21 8
1532261574824119 -7 -3 -17 -4 1 -8 -16 -9
1532261574846060 2 36 26 -13 1 5 -3 9
1532261574905444 -3 -15 -20 -20 -11 -6 -4 -3
1532261574922399 -3 -31 -22 2 -2 -1 -1 -1
1532261574951322 3 23 -4 13 -7 -6 0 -1
1532261574988754 -3 -9 5 -15 -12 0 -4 -3
1532261575048594 1 19 4 -2 1 -7 -1 -1
1532261575130375 -2 -5 9 -2 6 -1 0 0
1532261575153313 -2 7 9 -2 -1 -4 0 -1
1532261575179245 -1 1 -6 -15 -5 -3 -1 -1
1532261575191212 -1 26 15 3 4 2 2 -1
1532261575266012 -2 -12 -3 4 5 -1 0 0
1532261575332833 -1 12 -8 4 1 -1 -1 0
1532261575378711 -1 5 13 2 -2 7 1 -1
1532261575445532 0 -1 -8 2 5 -6 0 -3
1532261575483431 -1 2 22 -1 -2 -4 1 0
1532261575498391 -4 -6 -23 -4 2 1 2 0
1532261575581170 2 3 9 3 -3 -4 -3 1
1532261575760689 -4 28 -12 -35 -3 36 7 24

1532261575798588 5 8 -13 32 27 1 6 -6
1532261575843468 0 43 -14 -11 -10 17 2 0
1532261575926247 -9 -66 8 -12 -8 -15 -3 6
1532261575948188 6 28 -2 -17 -4 -25 11 15
1532261575978191 2 -7 7 13 4 -4 -1 2
1532261576001129 1 -2 -21 -7 -1 -1 0 -4
1532261576045836 -4 -4 -4 6 1 -4 2 2
1532261576075756 2 -11 2 2 -1 2 0 -2
1532261576105676 -2 -7 -5 -9 -4 -1 -1 0
1532261576165516 -2 -6 4 2 -1 -1 -2 -1
1532261576188308 0 -1 0 -7 -4 1 -1 1
1532261576211247 -2 -5 -5 -1 0 -1 0 0
1532261576248149 1 -5 3 20 1 1 0 3
1532261576278068 -1 -3 -2 -5 -2 4 -1 -1
1532261576315967 1 3 9 -7 -5 -3 -3 -2
1532261576330927 -6 9 45 3 0 -3 -2 -3
1532261576383786 1 -6 7 -6 -2 -1 1 0
1532261576488506 -2 -6 -12 10 2 1 -2 -2
1532261576563306 0 -4 7 -1 -3 0 0 0
1532261576594223 -1 -6 -8 0 -2 -1 0 0
1532261576623146 -1 5 1 -3 -2 -3 -1 -3
1532261576646085 -7 1 7 4 0 -3 -6 -6
1532261576676004 2 -4 -9 2 1 0 2 0
1532261576697946 0 3 -7 -3 -5 -2 0 0
1532261576720884 -1 1 -7 -3 -2 1 0 -1
1532261576750804 -1 1 29 4 0 0 0 -1
1532261576788702 -1 9 29 4 -1 0 0 -1
1532261576827600 -1 8 46 2 -2 -1 -1 -2
1532261576855525 0 3 9 1 1 2 -1 0
1532261576885444 -1 -2 -34 1 -1 -2 -2 0
1532261576915365 -1 -1 5 0 -1 1 0 0
1532261576953263 -3 2 12 2 1 -1 1 0
1532261577013103 -3 -17 -15 7 3 -1 0 0
1532261577036041 -2 -15 -6 9 4 1 0 1
1532261577080922 -1 8 -14 -6 -7 -2 -1 -1
1532261577096879 -12 -9 -5 -8 -4 -3 -2 -4
1532261577125802 -2 63 9 -2 -1 0 0 -2
1532261577155721 -1 -53 -12 0 -2 -1 -3 -4
1532261577170682 8 -55 4 0 -2 -2 -1 0
1532261577200602 -3 -18 -10 0 0 0 -2 -2
1532261577230522 2 0 1 -5 -2 0 2 -1
1532261577253474 -1 -2 -15 0 1 0 0 -1
1532261577313317 -1 -5 0 -1 -3 -8 -5 -1
1532261577343236 -4 9 -16 2 0 10 7 4
1532261577381135 0 7 -47 -5 1 8 4 2
1532261577403076 -10 29 19 -1 3 -1 -2 -4
1532261577426015 7 -9 -2 -11 -5 0 0 0
1532261577440975 1 -14 -58 6 0 -2 0 5
1532261577485497 8 -19 31 -7 2 -2 1 5
1532261577508435 5 -18 -25 6 1 2 -2 -3
1532261577538355 -1 -18 -27 -5 -7 -4 -1 -6
1532261577576261 5 7 12 -5 -2 -1 0 3
1532261577628115 4 -31 25 -7 -8 -4 -4 2
1532261577643075 5 11 -32 14 6 13 6 1
1532261577672995 -4 16 77 -1 0 9 2 -4
1532261577695934 2 19 -11 11 -2 -13 -1 5
1532261577710894 1 -2 -6 -15 -5 8 -1 -1
1532261577733832 1 -4 -1 5 1 -2 -1 -1
1532261577748799 1 6 -11 -4 -3 -9 -2 -2
1532261577785693 -8 -8 -67 3 0 0 -3 1
1532261577800665 -4 -10 -19 4 0 1 -1 0
1532261577830577 -1 12 25 -7 -4 0 -3 1
1532261577875454 1 -5 -23 -20 -3 -4 -2 -1
1532261577913352 13 -18 36 4 1 2 1 0
1532261577951266 -11 -12 -17 -4 1 13 3 1
1532261577966211 7 -3 -35 9 0 -12 2 0
1532261577981171 -4 5 -25 -11 -4 0 0 2
1532261578003112 -18 10 -48 17 4 5 1 -4
1532261578026050 1 -6 0 -4 -4 5 0 -1
1532261578062952 0 1 22 3 0 -2 1 2
1532261578108830 2 1 -38 -2 -2 0 1 3
1532261578123789 -3 -1 59 4 0 -1 2 0
1532261578145731 -7 11 32 2 -4 -18 -1 -8
1532261578175650 -15 -6 -100 -9 -2 -4 -5 -3
1532261578190611 2 11 46 12 0 7 1 -3
1532261578213550 11 1 71 -12 0 13 3 2
1532261578250450 6 1 77 13 3 10 -1 -4
1532261578265411 -13 8 36 -23 -10 -6 -2 -1
1532261578318270 12 -48 -49 -3 0 -16 -4 12
1532261578333229 -5 -62 -41 7 1 10 0 -11
1532261578356168 -3 -5 38 -1 -4 -6 -5 -1
1532261578408642 -6 -20 -19 13 2 0 1 -1
1532261578438564 -3 5 -5 2 -1 -3 -5 -6
1532261578468496 -1 -1 -55 -9 0 -3 -2 -4
1532261578484438 -7 -1 27 7 0 -10 0 4
1532261578505381 10 22 58 3 2 6 -1 -4
1532261578520342 2 -16 -2 1 2 -1 1 0
1532261578536299 -3 1 29 -11 -9 7 0 -4
1532261578551259 8 6 -27 -11 -2 -5 -5 -2
1532261578588160 -10 -14 39 7 -1 -2 -1 -1
1532261578611099 -7 -5 -61 -25 -4 -2 1 1
1532261578641019 -2 -3 10 -2 -2 11 0 -2
1532261578677920 1 -21 -6 3 3 -3 1 2
1532261578745738 -6 -9 31 0 1 16 8 -1
1532261578820539 1 -5 -18 -14 -4 0 -1 0
1532261578835499 9 -2 -14 6 -3 0 1 4
1532261578873398 1 -6 47 23 4 2 3 12
1532261578895339 -4 -21 -31 -11 -2 -6 -1 1
1532261578918278 -5 -12 -70 -11 -6 -5 -3 -5
1532261578955521 16 9 -8 20 2 -1 0 2
1532261579000401 -6 -5 24 -4 0 2 1 3
1532261579039298 -3 -4 -14 -14 -5 10 5 -2
1532261579061238 2 10 -8 3 2 3 0 5
1532261579076198 -3 3 2 2 2 -1 -2 -2
1532261579098139 0 4 -58 4 4 1 -1 -3
1532261579113099 6 -3 -4 2 -1 -9 -3 -3
1532261579136038 -1 7 36 -1 0 6 3 -1
1532261579165958 -3 -5 1 2 -1 1 0 -2
1532261579202873 6 -10 -11 8 1 1 -3 2
1532261579233790 1 -4 22 -7 -4 -9 -2 0
1532261579255732 2 0 15 -14 -5 4 1 5
1532261579278670 4 2 14 -2 -2 6 0 -1
1532261579330531 -4 -10 -22 -10 -6 -14 -6 -2
1532261579360452 0 1 2 2 3 2 0 -3
1532261579383390 5 -15 1 7 -4 -1 0 2
1532261579466168 0 3 -8 -6 -4 3 0 -2
1532261579518030 -7 0 -5 -2 3 0 0 0
1532261579585848 1 -3 10 -2 1 3 0 -2
1532261579705868 1 0 -4 -1 1 -4 -1 -2
1532261579750497 -2 3 0 -5 -1 1 -1 -5
1532261579811334 0 7 10 0 -4 -4 -1 -3
1532261579878156 -1 0 26 1 -1 0 2 -2
1532261579916054 1 19 49 -3 -3 0 1 2
1532261579975894 -2 -6 -18 7 0 1 2 -2
1532261580050694 7 -4 16 -1 -3 -3 -2 0
1532261580065666 -1 -4 -31 2 0 4 0 -3
1532261580110545 2 0 11 -3 -2 -3 -1 -2
1532261580133484 2 2 -10 -1 0 3 2 0
1532261580155426 3 4 26 -1 -2 1 -2 0
1532261580193324 -1 -4 -13 -4 -1 -9 -4 -1
1532261580216263 -1 7 1 0 -1 2 2 0
1532261580261143 0 -3 -13 0 0 -5 1 -1
1532261580283084 -2 15 16 -2 0 3 -4 -3
1532261580342924 2 -7 1 1 2 4 2 0
1532261580365863 -4 -1 16 0 -2 -7 -10 4
1532261580440663 -4 0 4 0 0 -1 -1 -1
1532261580455649 1 -2 19 -2 -3 2 1 0
1532261580493521 -3 5 -6 -5 -2 2 1 -2
1532261580530423 -6 -9 -16 -1 0 4 1 0
1532261580621150 -1 -7 -8 0 1 2 -2 -1
1532261580710910 -4 5 -25 -13 -6 -1 -2 -4
1532261580732852 -3 -6 7 3 0 6 0 -2
1532261580755790 -2 -2 -30 -1 -1 8 1 2
1532261580793698 -1 -1 -5 0 -4 -6 -3 0
1532261580815631 3 1 7 1 3 2 -1 1
1532261580853126 -5 2 -3 -6 0 1 2 -1
1532261580876065 3 4 -20 -3 -1 -4 0 3
1532261580950864 -2 -3 47 13 2 -3 -2 -2
1532261581048147 0 -3 4 1 -1 -9 -4 0
1532261581093026 -7 11 11 -1 -1 2 1 -2
1532261581137906 -3 -7 3 -3 -3 -3 -1 -1
1532261581265565 0 -6 2 5 0 -2 0 -1
1532261581288503 0 2 -3 4 1 2 2 -1
1532261581310445 -2 -1 24 5 2 -2 1 -1
1532261581333384 -1 -5 6 5 1 2 1 -1
1532261581363303 -4 3 1 -2 -2 -1 0 2
1532261581386242 1 -6 -41 2 -1 -1 0 -1
1532261581408184 -1 -4 -4 0 -2 -2 -2 2
1532261581431122 -1 7 46 0 -2 0 -3 -2
1532261581453063 -3 -3 -14 -2 2 -1 -1 1
1532261581476001 0 -9 -19 1 -1 -1 1 -1
1532261581497943 -1 0 -38 -2 -1 -1 -1 -1
1532261581520881 0 1 -7 -1 -1 1 2 1
1532261581565762 4 -3 11 0 -1 2 -3 -2
1532261581588709 -2 -4 -9 3 1 2 2 0
1532261581603661 1 4 35 -2 -4 -1 0 0
1532261581640562 2 6 -65 -9 -1 -3 -2 -1
1532261581663501 1 -1 20 1 0 -1 -1 1
1532261581678461 -2 -1 -17 1 -1 -1 1 -1
1532261581708381 1 -8 25 5 2 -1 -1 -1
1532261581738301 0 -2 16 -3 -3 -3 -1 -1
1532261581768221 -4 4 22 7 1 -1 -7 -3
1532261581783181 0 -31 -9 -8 -1 3 8 0
1532261581813101 -4 -6 -53 1 -2 -1 0 -1
1532261581828061 0 -7 -29 -2 0 2 -1 1
1532261581851000 -1 1 4 -4 -4 -3 -3 -1
1532261581872940 -4 8 52 -5 -3 -3 0 -2
1532261581887900 3 9 -8 4 4 2 -2 0
1532261581918818 -4 -24 -57 -17 -5 -3 -2 0
1532261581948738 -2 -7 3 -7 -3 0 -1 0
1532261581963697 -2 1 6 1 -2 0 1 0
1532261581985640 -2 0 15 -5 -1 -1 0 -1
1532261582038505 -3 9 -9 5 -3 -1 0 -2
1532261582075399 -2 -6 -9 -7 -2 -1 0 0
1532261582090359 -1 3 12 9 -2 -2 -1 0
1532261582105887 1 -4 -10 2 0 -2 0 1
1532261582135796 -2 -1 0 -5 0 -1 0 -2
1532261582150756 -1 -5 5 1 0 1 5 -2
1532261582173695 0 1 10 0 0 0 -7 0
1532261582188656 -1 1 -16 -6 -1 0 -8 2
1532261582218575 0 -6 -11 3 0 -1 -3 0
1532261582240516 -4 1 -8 6 2 0 -8 -1
1532261582255476 1 -3 -13 6 1 0 4 1
1532261582285396 -3 -2 -30 -2 -1 -2 -2 -2
1532261582316313 2 -8 1 3 1 0 0 -1
1532261582346234 -1 -2 11 -3 1 0 -1 0
1532261582376153 -4 -2 0 0 -2 0 -3 0
1532261582413055 -1 -3 17 -1 -3 -2 0 0
1532261582435994 0 -5 34 1 -1 2 0 1
1532261582457935 1 1 21 0 -3 -2 0 0
1532261582510793 -3 -1 -24 -1 -3 -1 -2 -3
1532261582548692 -1 -1 -3 -4 -1 -1 1 0
1532261582570633 2 2 -4 -2 -1 0 5 3
1532261582585593 0 0 -12 2 -1 -1 -5 -1
1532261582615514 3 6 9 0 1 2 -3 1
1532261582630474 2 -5 4 0 -1 3 -2 -2
1532261582653412 3 3 -8 -4 0 -4 -6 0
1532261582676350 -4 -8 21 5 -2 0 1 -2
1532261582691311 0 5 -105 3 -1 4 -2 1
1532261582713252 2 -4 53 3 3 12 -1 -1
1532261582736190 9 5 21 2 2 2 0 -2
1532261582758147 -8 -8 24 -3 0 0 1 -3
1532261582796031 -6 7 -4 7 1 2 1 1
1532261582825951 7 -3 20 3 -1 -3 4 3
1532261582847892 -1 -2 -23 -4 -3 -3 -3 -2
1532261582870831 -3 6 -87 -21 -5 -3 -2 0
1532261582893775 9 -5 -9 7 2 1 0 -1
1532261582908729 5 1 5 -2 -4 -5 -4 0
1532261582923689 -3 9 71 4 -1 -4 -2 -2
1532261582945631 1 3 5 2 -1 2 0 0
1532261582968584 1 -10 4 -8 -4 -1 1 1
1532261582990510 1 2 7 5 3 0 1 0
1532261583005479 4 5 -57 -23 -5 -2 -2 1
1532261583028409 3 3 3 1 -2 -2 0 2
1532261583051348 1 -8 22 1 0 1 0 0
1532261583066307 -6 -5 -4 0 -3 -3 0 2
1532261583096227 6 12 70 28 9 1 0 1
1532261583126148 0 -7 33 7 4 1 0 -1
1532261583156068 18 21 -26 -3 -5 0 1 3
1532261583185988 2 -7 -49 -11 -2 -1 0 0
1532261583207930 1 -1 7 -5 -5 -3 -3 -3
1532261583222889 12 -4 11 1 0 2 0 0
1532261583253806 -2 -5 -37 0 0 1 0 0
1532261583275747 4 4 39 8 1 8 3 1
1532261583290708 0 10 72 9 1 2 1 -3
1532261583313646 6 -8 -19 2 0 -1 -2 2
1532261583350548 -7 -16 -64 6 1 0 -1 1
1532261583365508 -2 -8 16 -10 -1 3 -1 -4
1532261583395428 -1 16 -16 -2 -1 0 0 -1
1532261583418366 1 -2 37 2 0 -4 -7 2
1532261583463246 2 -11 33 6 -1 -1 -2 0
1532261583486222 -5 -4 -9 -3 -2 -1 -2 -1
1532261583546061 4 0 -14 -5 1 4 1 0
1532261583575982 -11 -2 4 0 2 3 -1 -1
1532261583605923 2 7 18 4 0 -4 0 0
1532261583635843 -4 -1 -16 -1 -1 -3 -1 0
1532261583650803 1 7 13 8 1 3 0 -1
1532261583718621 0 0 0 3 1 2 0 1
1532261583740563 -2 -5 9 -5 0 0 -1 -2
1532261583770483 2 1 -14 -5 -2 -3 -4 -1
1532261583785442 0 2 -50 0 4 2 1 0
1532261583823343 -2 0 8 -2 -1 -5 0 1
1532261583853262 -9 7 -51 -2 0 -3 -2 -3
1532261583891161 4 -16 -7 1 -1 6 -1 0
1532261583920903 1 -7 37 1 0 1 0 0
1532261583973762 4 -5 -20 -2 1 -2 0 1
1532261583988722 -9 -2 13 6 -1 4 2 0
1532261584010663 -1 1 27 2 -1 -2 -2 -1
1532261584033847 1 3 -14 1 2 -6 -10 -1
1532261584055790 -3 2 -19 -1 -2 -10 2 -1
1532261584078729 -3 -2 4 0 0 2 1 -2
1532261584093688 -12 -25 -11 -4 -4 -1 -2 -2
1532261584115630 -2 20 1 -2 -1 0 4 -3
1532261584138569 -3 -2 5 1 0 -8 -7 -7
1532261584153529 7 31 -3 0 -1 2 -1 2
1532261584183449 4 6 -1 -1 1 -1 -1 1
1532261584228330 -4 -6 -4 6 -1 0 0 1
1532261584266236 -4 17 -17 -8 -5 0 -2 -1
1532261584303129 4 -4 -68 -20 -6 -4 -2 -3
1532261584385919 0 3 6 5 0 -4 -5 1
1532261584430788 -4 1 -8 -3 -1 2 0 0
1532261584445748 -6 -35 -16 1 -3 -3 -3 -3
1532261584490629 3 0 -42 1 0 0 0 1
1532261584543486 6 4 -16 -4 -2 0 -2 1
1532261584558446 -5 -2 22 -1 0 -1 -2 -2
1532261584573414 6 2 -7 -4 -3 -3 -3 -1
1532261584611305 -5 -1 1 0 -2 0 -1 -2
1532261584632877 1 -9 -1 -2 0 -1 -3 1
1532261584663795 2 6 -11 -5 -1 1 0 -1
1532261584685736 6 -6 0 -5 -2 -1 0 0
1532261584715656 2 0 -8 -1 0 0 -2 1
1532261584738594 2 2 -29 -2 -2 0 -2 -1
1532261584761543 -3 -1 -16 0 -1 -4 -3 -1
1532261584806414 1 3 -22 -4 0 1 1 0
1532261584828355 -1 -12 -25 -2 1 2 1 0
1532261584843329 2 -13 -17 5 -1 -3 -1 -1
1532261584858274 1 16 0 -2 -3 2 -1 -1
1532261584888197 6 30 17 -24 -5 -1 -1 0
1532261584903154 -7 -16 3 5 1 -1 -2 -3
1532261584926097 4 9 20 -3 -3 1 0 -1
1532261584956013 -1 2 1 0 -3 -6 -5 0
1532261584977957 8 -1 -9 1 3 -2 0 1
1532261585000892 0 10 -3 -8 -1 -4 4 5
1532261585015853 -7 -6 12 6 1 -4 -1 -1
1532261585038792 -5 -8 -19 -1 0 0 -2 0
1532261585068712 -2 13 4 -1 -1 3 -2 -3
1532261585083679 2 -5 -3 -3 0 8 4 -1
1532261585120573 3 0 11 2 -1 2 1 0
1532261585150493 0 6 -1 22 5 2 -2 0
1532261585188392 -1 7 11 -11 -6 -3 -5 -4
1532261585203352 2 -8 -32 -11 -4 1 0 0
1532261585226295 -1 5 -6 0 0 3 1 -2
1532261585241253 -4 1 11 -8 -4 -1 1 1
1532261585271170 5 -9 18 -1 -1 3 -1 0
1532261585293115 0 4 3 -11 -5 -3 -3 1
1532261585345970 -1 4 7 -2 -3 -9 -5 1
1532261585360938 0 -12 -59 1 0 -13 -3 0
1532261585375890 -4 -4 -12 0 2 -1 -3 -1
1532261585390850 -3 -5 -4 1 -1 -3 -1 -2
1532261585420769 -5 -1 10 6 1 -3 0 1
1532261585443709 -5 9 16 10 -2 -1 2 1
1532261585458669 4 -5 -2 -7 -1 1 0 -3
1532261585480614 5 -9 9 0 -1 2 3 3
1532261585503548 -8 11 12 -3 -1 -3 1 2
1532261585525490 6 -5 32 -2 0 -1 0 1
1532261585548445 0 -16 -31 -7 -1 -4 -3 -2
1532261585586327 -8 24 -2 -3 1 7 4 -3
1532261585646167 3 -7 -21 0 -1 -13 -5 -16
1532261585683070 -2 0 -6 -1 2 1 -1 -5
1532261585720975 1 1 10 19 9 -1 0 2
1532261585750887 5 12 39 -1 -4 -1 -2 2
1532261585772831 0 -30 12 -10 -5 -10 2 2
1532261585803746 7 -4 -25 -6 -4 12 -4 -1
1532261585818707 -3 -6 13 -6 -3 -3 -1 -2
1532261585833666 -1 21 -7 -3 0 -1 -1 -3
1532261585915448 -1 2 7 2 2 3 -1 1
1532261585945375 2 7 -10 1 2 -1 1 -1
1532261585998226 -8 18 0 -5 -4 0 0 -4
1532261586021165 -6 -9 3 5 1 11 6 -2
1532261586066058 -9 -16 -5 -2 -2 -7 -4 -1
1532261586095964 2 -2 13 4 -1 6 2 -7
1532261586117906 -4 -7 -10 1 2 -6 -2 0
1532261586163783 -3 11 1 -1 -2 2 4 -2
1532261586238583 0 3 -11 -1 -2 8 0 4
1532261586268503 6 6 -6 1 1 -2 0 -1
1532261586343317 2 1 0 -8 -1 -7 -1 2
1532261586358263 -4 -20 -6 -11 -3 -8 -4 -6
1532261586388183 0 8 3 -1 0 3 1 0
1532261586403143 -5 -3 -11 -1 -1 3 -1 -1
1532261586448023 5 -1 1 -1 3 2 1 0
1532261586500882 0 17 -12 -8 -5 -2 0 -1
1532261586560721 -5 5 -14 -6 -3 6 -2 -2
1532261586575682 -1 -12 -11 -2 -4 -6 -4 -2
1532261586598620 0 -6 1 -1 0 5 2 4
1532261586643501 2 -12 -3 1 -1 -12 -4 -2
1532261586680414 1 1 -14 0 1 0 3 4
1532261586696361 2 -14 -2 -2 -3 -2 0 -3
1532261586726279 -7 -7 2 0 -2 0 0 -1
1532261586809075 -6 2 3 -13 -5 -1 2 2
1532261586830999 0 -15 -5 8 2 2 -1 0
1532261586860971 -4 6 -11 0 -2 4 5 10
1532261586875881 2 -5 -13 -4 -4 -6 -4 -4
1532261586988577 1 0 -3 -2 0 0 1 -1
1532261587033457 5 3 -9 0 -3 -3 -1 -2
1532261587183057 -6 0 13 -4 -3 -12 -7 0
1532261587325676 -4 -20 -33 -15 -4 4 2 -1
1532261587393495 -6 11 -1 -1 -1 -4 -1 -7
1532261587423415 2 -8 -32 -2 1 5 -1 -1
1532261587505717 -5 11 13 2 2 0 0 -2
1532261587558282 -2 13 -7 -9 0 2 1 -2
1532261587752872 -16 -18 0 -7 -3 3 -3 -1
1532261587813709 -1 -4 -5 -6 -2 -1 -1 -1
1532261587993229 -4 -4 8 -1 -1 -5 1 0
1532261588046088 -1 -13 2 1 -3 -3 -2 -4
1532261588090968 -15 -27 -12 -10 -7 -5 -2 -4
1532261588150808 -4 1 -4 3 -1 -4 -2 2
1532261588165768 -5 -14 -22 6 3 0 5 0
1532261588195688 2 19 -7 -1 3 10 2 8
1532261588210648 -4 -10 20 -1 0 2 0 -1
1532261588248546 -6 -7 -34 -5 -2 -4 -1 -5
1532261588278467 -8 -12 -3 -4 -1 0 -2 -4
1532261588323347 -8 -12 -8 3 -3 -10 -5 -4
1532261588413119 1 5 1 1 -2 13 3 2
1532261588503881 0 5 10 -3 -1 -7 3 2
1532261588525818 -12 -8 1 -3 -3 -1 2 0
1532261588540778 9 -1 4 -7 -3 -5 -6 0
1532261588563717 -1 -4 -5 -1 -1 -3 2 -2
1532261588608597 3 -7 -1 2 0 -8 -1 -1
1532261588631330 6 -9 14 0 0 1 -1 0
1532261588676215 0 1 -4 -8 -2 5 0 -3
1532261588713116 -6 -4 30 -5 -6 -10 -8 -5
1532261588751015 9 -3 -48 -5 -3 -11 -2 2
1532261588772970 -2 -14 -19 -15 -4 3 -1 0
1532261588787917 -4 -10 -7 -2 -2 -9 -1 -2
1532261588810855 -3 -6 -10 -6 0 8 5 0
1532261588825815 -1 0 -17 -8 -4 -8 -5 0
1532261588885555 -3 -20 28 1 0 -2 0 -4
1532261588930436 7 -4 19 2 3 2 1 0
1532261588970329 -1 4 8 -30 -11 -3 -3 1
1532261588998257 -1 -12 -10 2 -1 -3 2 -1
1532261589051113 -14 -6 -8 3 3 -4 -1 -1
1532261589066073 -5 -5 4 1 1 -8 1 -1
1532261589081033 -3 1 9 2 -2 13 6 0
1532261589133892 7 15 -3 -10 -4 -8 2 1
1532261589245594 3 1 85 13 6 -6 -3 0
1532261589268532 -1 8 -47 -6 -2 1 0 -1
1532261589335457 3 8 -21 3 -2 0 -3 -1
1532261589358396 -1 -13 11 4 -1 0 2 0
1532261589403749 3 -5 -8 -1 1 -6 -1 1
1532261589448630 4 -7 -39 -4 -1 2 -2 -2
1532261589485531 -5 3 25 -5 -4 -2 -3 -3
1532261589508470 -5 2 32 -1 0 8 2 -5
1532261589530411 -3 -8 12 -5 -1 -8 -6 -1
1532261589545371 -3 -3 -27 -2 -2 -2 1 1
1532261589576288 -2 0 9 0 -1 1 1 1
1532261589598229 -2 -11 -8 2 0 -4 1 -1
1532261589621167 -2 -8 15 3 1 -4 2 1
1532261589636127 -1 -2 -11 -5 1 -6 -2 -1
1532261589666048 2 1 -16 -2 -2 -2 1 -2
1532261589687989 -2 -7 -31 -2 -1 5 0 -3
1532261589717910 0 6 -47 -4 1 -1 0 -1
1532261589740848 -1 -7 -30 2 1 1 -2 2
1532261589763787 -2 3 6 2 -1 2 2 1
1532261589785728 -1 6 19 7 2 -3 -3 -2
1532261589823627 0 2 -29 -6 1 -2 0 0
1532261589838587 1 8 0 -1 -1 -2 -1 1
1532261589853547 -3 -3 19 0 -2 -2 0 1
1532261589890448 1 4 16 2 0 -4 -3 -1
1532261589905408 1 -2 10 1 0 2 1 1
1532261589936333 -2 3 6 -2 -4 1 -3 -1
1532261589958274 1 -12 6 -1 -1 -4 -2 -1
1532261590003154 -3 1 -1 -2 -1 -2 1 -2
1532261590033074 2 6 41 2 1 1 1 1
1532261590056013 -4 -7 18 -10 -3 -3 -2 -3
1532261590115853 1 7 -13 -1 1 -2 0 1
1532261590145773 -2 1 -14 -4 -1 -1 -1 0
1532261590183671 -3 -6 -4 -2 -1 -3 0 0
1532261590205613 0 -5 -26 2 -1 -10 -1 0
1532261590220584 -3 9 -24 -1 1 -3 -6 -3
1532261590243511 -2 -2 -3 -2 -2 1 0 -1
1532261590273804 0 -2 -3 -1 -1 -3 -1 1
1532261590295777 -2 -8 16 4 -1 -7 1 1
1532261590355616 0 10 2 -4 -1 -1 -1 0
1532261590378554 0 -3 8 4 1 7 0 -3
1532261590415455 -2 0 -2 3 1 -2 -2 -1
1532261590431413 -2 -6 -11 0 0 -1 -2 1
1532261590453354 -1 4 9 0 -1 0 -1 -1
1532261590483274 0 -2 -1 0 1 4 3 -2
1532261590506213 -1 -9 -1 1 -3 -4 -1 1
1532261590536132 -3 -23 0 1 -3 -7 1 -1
1532261590558074 -3 -3 -71 -2 -4 3 -2 -2
1532261590595973 -1 3 26 3 0 2 1 -1
1532261590640852 -1 -15 31 -2 -1 4 4 1
1532261590670772 1 1 25 -4 -3 -8 -1 1
1532261590693716 2 22 -2 0 0 -4 -1 1
1532261590708671 -3 -4 -2 -1 0 -11 -3 0
1532261590730613 1 7 -5 -1 0 1 -2 -2
1532261590760532 1 2 0 1 -1 1 1 -1
1532261590783471 -1 -8 -29 -3 -2 3 5 0
1532261590805414 0 -2 7 -2 0 -2 -2 2
1532261590828351 1 1 -4 1 0 1 0 0
1532261590866250 -1 3 16 4 1 7 -1 0
1532261590896170 -2 1 8 2 0 2 0 -1
1532261590933071 -3 -16 22 2 -1 -2 -2 -1
1532261590956020 -3 -5 7 -5 -1 -1 1 -1
1532261590977951 2 -19 7 -1 -1 0 -2 0
1532261591000889 -2 0 -7 0 -1 -1 0 0
1532261591023828 -3 1 1 2 0 2 -1 -2
1532261591045770 -1 7 -3 1 -1 -8 -5 -1
1532261591067933 -1 -21 -6 -3 -2 -5 0 1
1532261591105832 -4 -3 4 0 1 3 2 1
1532261591150712 -1 -1 8 0 0 6 1 -1
1532261591180632 -2 -2 0 -1 0 -3 -1 0
1532261591240472 -1 -1 3 -1 0 -9 -2 -1
1532261591285875 -1 -1 2 -1 0 0 0 -2
1532261591315796 -1 3 -15 -4 -3 -1 1 -1
1532261591338748 1 12 5 -1 -1 1 -1 0
1532261591353695 -1 5 1 -1 0 -5 -3 -1
1532261591375636 -1 -4 2 -4 -1 3 -1 -1
1532261591398575 -3 -6 3 0 0 -2 0 -2
1532261591420516 1 -22 5 0 1 2 -2 -1
1532261591451434 -1 5 5 -1 0 2 -3 0
1532261591480356 0 6 -12 -6 -1 -1 -2 1
1532261591496313 -1 1 8 1 0 1 1 -1
1532261591518254 2 4 12 -4 0 -3 1 1
1532261591556154 1 10 2 0 0 1 1 0
1532261591586074 -1 -1 -9 -1 -1 -1 -1 1
1532261591608015 -2 2 -2 0 -1 0 -2 2
1532261591637935 0 2 1 -4 -3 3 2 -2
1532261591675833 -1 3 8 -3 -3 1 0 0
1532261591705754 2 -4 -7 -2 -3 -9 -1 -1
1532261591728692 0 8 16 -2 -1 0 0 -1
1532261591758612 0 -10 -61 -6 -1 -2 0 0
1532261591773572 0 11 10 3 1 4 -2 0
1532261591788532 -3 1 5 -1 -2 1 0 -2
1532261591818451 -2 -11 0 0 -1 -5 -1 1
1532261591833412 1 4 -21 -2 -1 3 2 1
1532261591871310 -1 1 19 1 -2 -2 -1 0
1532261591900792 0 6 3 0 -1 -1 -1 -1
1532261591930713 -3 -3 14 0 -2 0 2 -2
1532261591945673 0 2 2 -2 1 1 -1 -1
1532261591975592 1 -5 -19 -2 1 6 1 1
1532261592020472 -3 3 -1 -1 0 2 0 -1
1532261592058371 1 8 -11 0 1 2 -1 0
1532261592111230 0 1 -2 1 -2 -6 0 0
1532261592126190 0 5 3 0 -1 -6 -1 0
1532261592171070 2 20 16 -2 0 6 1 -1
1532261592193011 0 1 7 0 -1 -4 -1 1
1532261592230910 1 -13 -40 1 -1 4 2 0
1532261592268808 -3 -6 -3 -1 -3 2 0 0
1532261592305715 -2 -6 -30 0 -1 1 0 -2
1532261592328649 -2 2 -3 -4 -1 1 1 -1
1532261592358568 1 1 24 -4 -1 3 -3 0
1532261592381516 -3 -4 3 -1 0 -3 -1 0
1532261592403448 -2 2 2 -1 -1 -2 1 0
1532261592441347 -1 3 9 0 0 -2 1 0
1532261592486332 0 0 6 -3 -1 -1 1 1
1532261592516252 -1 1 -1 2 0 1 0 1
1532261592546172 0 -1 2 -1 0 -1 0 0
1532261592576092 2 1 7 0 -2 -11 -2 0
1532261592612995 -2 1 2 -2 -1 3 -1 -1
1532261592642912 -2 -6 6 1 0 -1 -1 -1
1532261592658878 -2 1 3 2 -1 1 -1 -3
1532261592673830 -4 -9 -7 -1 -2 -4 -1 0
1532261592695772 -3 0 0 -2 -2 2 0 -1
1532261592710732 0 -3 9 1 0 -3 -1 0
1532261592748630 0 7 -3 0 -1 -3 -1 -2
1532261592770572 -1 -8 -9 0 -1 1 -1 -1
1532261592800492 -1 0 0 -2 -3 -2 -2 0
1532261592898229 -2 -3 -1 -1 -3 -6 0 -1
1532261592913190 1 1 14 -2 0 2 -1 -1
1532261592951089 -3 -6 6 3 0 2 1 0
1532261592981009 2 -3 4 -1 2 1 -4 -1
1532261592995969 0 1 5 -1 -1 5 0 0
1532261593017910 0 -20 -2 0 -2 -2 0 1
1532261593040849 -1 3 8 -1 -3 -2 -2 -1
1532261593063787 1 -1 -7 0 0 -6 -4 -2
1532261593093708 -1 7 7 0 -2 -12 -3 0
1532261593115649 0 -3 7 -2 -1 1 1 -1
1532261593145569 -1 3 0 0 -1 1 2 -1
1532261593175489 5 8 0 1 2 0 1 -3
1532261593198427 -9 -20 2 -6 -4 3 0 -3
1532261593236326 2 0 3 1 0 -4 2 0
1532261593266246 2 8 9 -2 -2 -1 -1 0
1532261593288188 -5 0 4 -4 -4 -3 -5 -3
1532261593326086 0 4 6 0 -1 2 -2 1
1532261593362987 0 2 5 2 1 2 -2 0
1532261593392907 -4 11 -1 2 3 5 3 0
1532261593438784 -5 9 44 -1 -3 5 0 -5
1532261593460739 1 -6 -32 -11 -3 -12 0 -4
1532261593498625 4 -14 -56 3 -2 -1 2 -2
1532261593529549 -2 -43 67 3 -2 1 -2 5
1532261593551484 5 23 -4 13 3 3 -1 -2
1532261593573428 -1 0 -14 -1 -3 -3 -5 1
1532261593626283 1 -14 -5 2 -1 2 2 5
1532261593686123 -8 8 -1 -2 3 2 3 0
1532261593708065 2 -2 -25 -1 -4 5 4 1
1532261593752945 -2 10 34 -2 -3 -5 0 -3
1532261593790843 2 -11 -19 -2 0 0 -1 9
1532261593814779 0 8 19 -5 -4 -10 -5 -6
1532261593880603 0 23 5 -5 2 -1 0 -3
1532261593903541 1 15 6 3 0 1 -1 -1
1532261593948421 -1 2 15 3 -1 -1 -3 0
1532261594001280 9 -4 25 4 3 7 2 1
1532261594031201 9 1 -17 1 2 3 3 3
1532261594053142 -1 21 -16 -4 -4 3 3 0
1532261594091046 -1 2 -10 -13 -5 -4 0 -4
1532261594112982 -4 -14 -10 1 0 0 -1 -2
1532261594180800 0 9 -13 1 -1 0 -4 -1
1532261594233551 0 1 9 4 4 4 0 0
1532261594255492 -1 -6 -18 -1 -2 -3 -1 -1
1532261594278430 -1 6 25 11 3 7 0 -2
1532261594301369 -2 -17 25 2 2 3 1 0
1532261594346249 2 62 -25 -13 -3 -3 -4 -10
1532261594368190 -2 36 -55 -3 -3 12 7 -1
1532261594457951 1 1 20 -23 -1 0 -1 3
1532261594540729 0 -2 12 73 19 3 -1 1
1532261594593588 -1 -5 -30 -6 1 1 0 -1
1532261594675782 -3 -5 9 -4 1 2 0 -1
1532261594705702 0 18 -3 -4 -3 -1 -2 1
1532261594735898 0 -7 -28 -1 2 0 0 -1
1532261594818682 -4 -15 33 -15 -2 -4 -1 -1
1532261594855599 -1 0 6 -3 -1 0 -3 -1
1532261594901483 -4 5 -15 -13 -6 -2 -2 -4
1532261594998231 -11 -24 -4 9 -3 0 0 -4
1532261595051077 5 14 -11 24 5 -1 -1 1
1532261595125877 -1 16 -12 -1 -2 0 -4 -1
1532261595155803 4 -29 4 12 1 -1 0 2
1532261595223616 -2 5 16 0 -1 0 -2 -3
1532261595268495 -2 3 -17 -5 0 0 1 1
1532261595321354 0 6 7 -3 -3 1 -1 -1
1532261595396154 1 0 -24 0 -1 1 0 -3
1532261595411114 -2 -6 -3 -11 -2 0 0 -1
1532261595477936 -1 -4 -25 1 2 7 0 0
1532261595530794 1 -16 6 2 -2 -6 -2 1
1532261595575693 -5 2 67 11 3 7 13 0
1532261595801089 -4 -22 -36 -11 -1 -19 -7 -3
1532261595974625 1 15 67 5 1 0 0 1
1532261596055409 -1 -14 -121 -7 -1 -3 -1 -2
1532261596228958 -3 0 22 -1 -1 -2 1 -1
1532261596250886 3 22 11 2 -2 -4 0 -1
1532261596295766 -7 5 22 -4 0 -3 0 2
1532261596385526 4 22 13 14 1 0 0 0
1532261596521164 -1 -19 -44 -5 0 1 -1 1
1532261596543105 0 4 -21 -1 0 -2 1 2
1532261596730604 5 5 30 1 -1 3 2 -1
1532261596783462 14 -4 -22 -6 -4 -4 -5 -3
1532261597030528 -1 -17 -3 0 0 17 5 0
1532261597106326 -4 -17 2 -1 -2 -3 -4 -2
1532261597151205 -6 -10 15 -61 -15 -7 -3 -6
1532261597188107 2 -6 -9 -4 -4 -1 -2 0
1532261597338706 -1 0 14 25 9 8 4 3
1532261597360645 3 16 -2 23 4 1 1 1
1532261597398551 -1 -18 -8 11 2 -1 -2 -1
1532261597428464 0 -10 -27 -2 -4 0 1 0
1532261597541168 0 1 -1 2 2 -8 -2 0
1532261597637910 3 10 -7 1 0 -1 2 1
1532261597840377 0 3 -10 -1 0 -3 -3 1
1532261597916172 2 26 -4 4 -3 2 -2 -1
1532261598050812 0 1 -7 -6 -3 4 -1 1
1532261598187744 1 -9 -3 -6 -4 0 -1 -2
1532261598215669 0 1 0 3 1 -1 0 -1
1532261598238625 -1 13 -3 -8 -7 -5 1 -1
1532261598260549 -1 7 41 -1 -1 0 0 0
1532261598470986 0 -15 -37 9 1 -1 -3 -1
1532261598508885 1 4 4 4 2 -9 -6 -1
1532261598530826 3 2 -4 1 -1 1 0 1
1532261598628588 0 -5 -32 1 2 -3 -2 0
1532261598665490 2 -5 -7 2 1 -2 1 -1
1532261598748268 -2 -4 16 -5 -1 1 -2 -1
1532261598852988 -2 -9 -5 -4 -3 -2 -2 0
1532261599025530 1 3 0 -3 -5 0 -2 -1
1532261599093346 1 0 -6 3 2 1 -2 -2
1532261599138225 -1 1 2 13 7 3 1 0
1532261599363637 0 -3 45 1 -2 -1 0 1
1532261599430458 1 13 26 1 12 2 -1 -2
1532261599468356 5 30 -30 1 1 1 0 1
1532261599498277 0 7 -2 -7 -6 -3 -1 -1
1532261599529200 1 -3 -18 0 -1 -1 -2 0
1532261599566101 2 -15 -26 1 0 -3 0 -3
1532261599610981 -2 38 7 -4 -3 -1 -2 0
1532261599648879 1 -24 -4 -2 -2 2 1 -1
1532261599678800 1 41 -62 -4 -2 -3 -1 -1
1532261599753625 -2 -21 79 8 1 1 2 -2
1532261599775568 -2 -21 -42 9 3 -1 1 0
1532261599798507 -4 -20 -27 -6 1 -2 -3 0
1532261599828427 -2 -2 -10 -8 -3 1 -1 -3
1532261599852057 2 0 -23 -10 -6 -1 1 1
1532261599873000 0 -12 -25 1 2 1 -2 -4
1532261599895940 2 6 12 -7 -6 0 -1 -3
1532261599971189 8 22 61 9 6 7 -2 5
1532261599993131 1 -10 5 8 1 -6 0 -2
1532261600008091 3 11 -24 -9 -5 -2 -1 1
1532261600045989 -9 7 2 4 1 -7 -5 -2
1532261600098847 0 8 -12 -11 -2 0 0 1
1532261600135749 3 0 21 16 6 2 1 0
1532261600158688 4 7 16 -18 -7 5 2 0
1532261600195589 -1 5 20 -5 2 4 2 -4
1532261600218528 -8 -1 38 9 1 -3 0 0
1532261600277907 -4 -4 1 2 0 7 3 -2
1532261600293866 -1 -16 1 -1 -1 5 2 -1
1532261600360686 1 17 -1 0 1 -26 -13 -1
1532261600451443 1 -23 19 -3 -3 -4 5 9
1532261600496323 3 -4 -35 -11 -3 -3 -1 -3
1532261600526243 -9 -30 41 -10 -2 -1 0 -1
1532261600571123 4 9 -7 -4 -1 -5 -2 -6
1532261600608024 -7 -10 -1 5 0 4 2 -1
1532261600683822 -2 -7 -20 -10 -4 3 1 -2
1532261600713742 2 -4 13 4 1 4 1 0
1532261600750644 0 -14 18 17 11 2 5 5
1532261600773582 -1 -10 7 52 5 3 1 -2
1532261600810483 4 15 10 -2 3 3 0 0
1532261600841400 -3 -10 49 1 -5 5 8 0
1532261600901240 -2 -3 22 -11 -12 -4 -4 -3
1532261600938142 -2 -6 -7 -9 -7 -3 -4 -1
1532261600968062 2 -3 -2 -1 0 -1 0 -1
1532261600997982 -2 -1 -4 0 2 -1 1 -1
1532261601042862 0 2 4 -2 0 -1 -1 -1
1532261601073779 -16 25 32 8 5 0 0 -2
1532261601238339 4 6 -8 -4 0 1 -1 0
1532261601276233 -5 -5 -13 -14 0 -4 -1 -2
1532261601298169 2 -3 -12 -8 -4 -2 -1 0
1532261601336067 -1 13 69 36 9 -3 -4 0
1532261601365987 5 9 -38 -3 -1 4 2 2
1532261601455747 4 -16 -21 -3 -5 0 -3 0
1532261601494643 2 41 -2 -5 -3 -2 -1 -1
1532261601545520 4 -24 -13 -15 -4 -2 0 1
1532261601560466 2 -35 -15 -6 -3 -3 -2 1
1532261601583406 -4 9 2 -2 1 0 2 -1
1532261601621304 -14 -75 13 60 18 7 2 -1
1532261601636265 2 -7 -28 2 -2 -1 2 2
1532261601681144 0 6 -1 -2 4 2 0 -1
1532261601718046 -2 -33 -1 1 -2 2 0 -3
1532261601755957 4 0 1 -15 -6 1 1 4
1532261601778885 -2 0 -8 -5 1 0 -1 1
1532261601800824 -2 8 11 1 -3 -7 0 -1
1532261601823763 -8 -10 2 0 1 1 1 -4
1532261601853683 0 -12 -7 4 -2 2 -1 0
1532261601875624 3 9 4 -6 -3 -1 -2 0
1532261601905560 3 0 5 -1 -2 -3 0 0
1532261601935464 7 -19 -48 -2 -1 0 1 -1
1532261601973363 4 -3 -51 1 -1 0 -2 0
1532261602018242 1 -12 -22 0 -1 -6 -1 1
1532261602048162 0 7 52 1 -3 -2 1 3
1532261602063123 -2 -9 0 -2 -1 1 -1 -1
1532261602078083 0 2 -4 -1 -1 3 3 -2
1532261602108007 1 -4 40 2 -2 0 -3 -1
1532261602122963 1 15 11 -3 -2 -1 -1 1
1532261602152882 1 -4 -1 -7 2 -3 -2 1
1532261602182856 -6 -38 -22 -4 -2 3 1 0
1532261602205609 -2 -6 -4 7 1 -4 1 -2
1532261602250489 12 -8 -24 -3 -3 -7 -2 1
1532261602266446 -1 -20 10 1 -1 -3 -1 0
1532261602288388 0 9 8 -4 -1 -2 -2 -2
1532261602310341 0 5 -28 1 1 0 1 0
1532261602349238 -3 3 22 -11 -3 -2 -2 -1
1532261602378160 -3 -6 -46 6 2 -4 -2 -3
1532261602401099 -3 1 8 1 0 2 0 -1
1532261602431018 1 12 48 9 4 1 0 1
1532261602460939 9 5 -25 -5 2 6 2 2
1532261602520793 -4 -10 -5 -2 0 13 -3 -18
1532261602535739 24 9 -1 1 -6 -46 -29 -26
1532261602580619 0 -11 -30 0 7 36 14 14
1532261602595579 0 15 17 -22 -9 5 3 1
1532261602618517 -3 -4 -23 15 4 10 0 -6
1532261602633477 1 -4 -13 1 0 5 2 1
1532261602648437 -4 -4 -35 -1 -2 1 -2 -4
1532261602663398 4 6 0 -9 -1 -1 -1 1
1532261602686336 -2 -2 11 -2 -1 -4 0 1
1532261602708277 2 0 -4 1 9 2 2 -2
1532261602723238 -1 4 9 -10 -3 -3 -1 0
1532261602746176 -4 -2 -4 -8 -5 -3 -2 -3
1532261602768117 -2 9 -7 9 -1 -1 0 0
1532261602791056 0 -5 1 -31 -7 -2 0 0
1532261602820977 0 -3 -11 -9 -2 -3 -2 2
1532261602850896 4 9 22 15 -5 -1 -1 2
1532261602873850 -2 2 5 15 -3 -3 -9 -1
1532261602888811 -2 -7 -5 3 2 2 1 0
1532261602910736 -1 1 3 6 -1 -4 5 1
1532261602933675 4 9 6 9 4 1 4 4
1532261602948635 -1 -5 0 -6 -2 -2 -3 -1
1532261602970576 1 -1 -6 7 2 -2 -8 0
1532261602985536 1 5 -3 -4 1 -2 0 2
1532261603008474 1 5 4 -4 -3 0 -19 -4
1532261603038395 1 2 1 -8 2 -2 4 -3
1532261603053355 0 2 5 5 0 0 7 3
1532261603083275 1 3 13 14 1 2 -6 -1
1532261603136133 -6 -17 -19 -3 1 -3 -18 -13
1532261603181013 -2 -4 -4 -6 5 7 8 -4
1532261603202954 -4 -1 -5 -2 -3 0 -8 -5
1532261603233871 -2 3 -5 -4 1 2 7 0
1532261603248832 5 20 12 13 4 2 -8 4
1532261603270773 3 20 9 8 1 -1 -49 -1
1532261603293711 -1 -10 -1 -6 0 2 -4 -3
1532261603353552 -1 -2 -6 -2 -1 0 -6 -3
1532261603375493 -1 4 -3 9 -3 -4 -4 2
1532261603405413 2 -4 3 8 -1 1 11 2
1532261603451290 0 -3 0 2 -2 -2 -1 -2
1532261603481211 -6 5 4 -2 1 0 0 -2
1532261603518847 -1 -4 6 10 2 -1 0 -1
1532261603548767 -1 -1 -5 -11 0 2 -13 1
1532261603578687 -1 9 -4 -3 0 -3 0 -2
1532261603600629 0 -17 -1 -11 -4 1 0 -1
1532261603623568 1 10 -4 -6 -2 -1 -3 1
1532261603638527 3 9 -1 20 5 -1 -44 -9
1532261603660469 1 -8 -1 -7 0 2 7 0
1532261603683408 -1 -18 -4 -2 0 1 0 -4
1532261603706352 0 -3 0 3 1 0 19 1
1532261603721306 -4 -19 -4 -9 -2 -2 6 1
1532261603743247 -1 4 3 0 0 -3 -1 -1
1532261603758207 -5 -5 -6 -1 -3 -1 28 -1
1532261603781146 0 2 1 2 -1 -1 -2 0
1532261603818047 5 36 4 28 5 2 -4 1
1532261603840986 -3 5 -28 -5 -3 -2 -2 -6
1532261603870906 -2 0 1 7 0 -1 0 1
1532261603945705 12 -6 -11 2 -3 -5 -3 4
1532261603968645 -10 -47 -30 -23 -5 1 -6 -6
1532261603983604 1 -17 -12 -5 -1 0 -1 -2
1532261604035473 -1 -19 40 3 3 1 0 0
1532261604058404 -4 -9 17 25 4 0 -2 0
1532261604096303 -2 12 -38 6 2 2 2 0
1532261604118244 -1 0 -47 -2 -3 0 -2 1
1532261604133205 4 49 3 -2 1 0 -3 1
1532261604148164 1 -7 -72 -6 0 -3 0 -1
1532261604163124 -3 -13 0 -1 -1 2 -1 0
1532261604208005 -2 -9 42 6 0 -2 1 -2
1532261604237924 2 7 -43 -13 -4 -2 2 4
1532261604253885 -1 -8 63 13 6 1 -2 -1
1532261604268849 0 -12 -15 -2 -5 -2 -2 -3
1532261604290782 -11 -4 -1 1 -1 -1 0 0
1532261604320795 -9 23 8 19 3 1 1 1
1532261604350716 -3 -10 20 -13 -2 -1 0 -2
1532261604380635 5 -18 2 -12 2 0 -2 0
1532261604403574 -2 -5 -23 -2 -1 -1 -2 1
1532261604441480 2 -4 -5 0 -4 -4 1 -1
1532261604486361 -3 -8 30 -4 -3 -1 0 -1
1532261604508294 -4 17 92 -7 -6 -4 -5 -5
1532261604531233 -14 6 -28 1 0 0 -1 0
1532261604553174 -3 3 -8 6 2 0 -2 0
1532261604569131 -1 -3 -1 -4 -1 -2 0 -1
1532261604583094 0 -4 -51 -8 -3 -1 0 -2
1532261604613014 6 -26 0 19 2 3 1 -1
1532261604635952 -5 -18 6 -14 -5 -2 0 -2
1532261604672855 -2 -7 14 6 2 0 0 -1
1532261604718731 3 11 21 5 -3 0 0 -1
1532261604793531 -2 16 14 0 -4 -6 -12 -35
1532261604853371 3 4 8 0 -4 -1 0 -10
1532261604868332 9 0 -40 -1 0 -5 -1 5
1532261604897915 3 -5 -12 23 3 0 7 13
1532261604943793 15 -4 -73 7 3 1 5 7
1532261604973712 1 -14 -15 6 3 0 3 5
1532261605063473 1 -12 -23 1 0 0 0 0
1532261605078432 0 -10 -8 2 3 9 1 1
1532261605138273 -5 -4 -22 5 6 3 -4 -3
1532261605153232 2 -7 74 -1 -6 -6 -6 -2
1532261605183392 1 4 -16 0 -6 -8 -6 -3
1532261605213395 -2 2 0 1 -3 -2 -2 -1
1532261605258275 0 0 -2 -4 -4 -2 -1 1
1532261605303165 -1 3 17 1 1 0 0 -2
1532261605348042 -7 8 -8 3 1 3 2 -2
1532261605400901 4 -11 -2 2 1 0 0 -1
1532261605430820 0 8 3 -6 -1 -1 1 -1
1532261605475701 3 -6 -7 -6 0 0 1 4
1532261605498639 -1 -7 -13 -1 0 0 -1 -1
1532261605528559 3 18 14 -2 -1 -2 0 1
1532261605550500 2 26 -18 -5 -1 -4 -1 -1
1532261605573439 9 111 -1 -3 -4 -2 -3 0
1532261605595381 -3 -25 -48 -11 1 -1 -1 2
1532261605618324 -2 -28 11 -2 1 0 1 -3
1532261605633279 3 -6 0 11 -4 0 1 1
1532261605648239 1 35 36 9 -1 -1 0 -2
1532261605671178 -2 -16 -48 -15 -4 -1 -1 0
1532261605693119 -4 -23 -2 -1 -2 3 5 1
1532261605716058 -13 3 -18 -5 0 2 1 0
1532261605731018 -5 -14 21 -10 -3 -1 -2 -2
1532261605752959 -1 1 0 -3 -3 -1 -2 -1
1532261605775898 0 -3 -19 -3 -2 -1 -1 -2
1532261605805817 -3 0 -3 -1 -1 0 -1 2
1532261605865657 1 -6 -3 4 3 0 -2 1
1532261605895579 2 9 21 9 -2 -3 1 2
1532261605925498 -1 3 9 0 -2 0 0 1
1532261605948308 -1 3 6 5 0 -1 0 -1
1532261605971246 -2 0 17 -3 -1 -3 -2 -1
1532261605985442 -1 1 4 -8 -4 -2 -1 -2
1532261606008380 1 -4 1 -6 -3 -2 0 -2
1532261606031318 2 -13 20 1 1 0 1 -1
1532261606053260 -1 -13 -18 -5 -1 -3 -1 1
1532261606091158 1 -1 -6 -4 1 1 2 0
1532261606120526 -9 8 22 0 0 1 -3 -12
1532261606173385 -8 6 40 2 -1 12 5 6
1532261606241203 7 36 23 3 3 11 15 28
1532261606301043 4 32 -10 -8 -4 -5 0 -7
1532261606367865 5 -7 0 3 0 -2 0 7
1532261606405776 4 6 0 1 0 8 -2 -1
1532261606527445 -1 4 -6 1 0 0 -1 -1
1532261606540411 2 10 -10 4 -1 1 1 1
1532261606563355 0 -17 -15 -4 0 0 -2 -2
1532261606578315 2 1 13 -8 0 -1 0 -1
1532261606593276 0 1 -4 -2 -1 1 0 -1
1532261606638155 -2 10 -6 -3 -1 -1 -4 -1
1532261606712955 2 6 -5 5 3 -1 1 0
1532261606773793 2 1 -19 -3 -3 0 -1 -2
1532261606795734 0 1 -13 -4 0 -1 0 -1
1532261606833632 0 -6 2 -2 -1 -1 1 -1
1532261606848864 -5 -4 -31 1 -3 3 0 -3
1532261606885767 -2 -4 13 -2 -2 0 -3 -2
1532261606915687 -1 5 0 0 0 -1 -2 -1
1532261606975527 2 3 39 -2 -2 0 -1 -1
1532261607006444 -2 -3 -5 -4 0 0 -1 2
1532261607028400 1 -2 16 0 2 4 1 0
1532261607073280 -2 -7 -15 0 1 -2 3 -2
1532261607096218 1 -2 -14 -3 -2 -3 0 0
1532261607126138 -3 5 3 -1 -1 0 1 -1
1532261607148090 -3 3 1 0 -2 -3 -3 -1
1532261607185988 -2 1 2 0 -2 0 0 -1
1532261607222889 -2 1 12 -2 -3 -2 -1 -2
1532261607260788 0 7 12 3 0 -5 -3 -2
1532261607305685 0 10 14 1 0 -1 1 -1
1532261607328606 1 -6 -10 0 0 2 1 0
1532261607365508 0 4 20 -1 -3 0 0 -1
1532261607388446 -5 -5 -18 -4 -2 1 -1 -2
1532261607448286 4 6 18 -2 -1 -1 1 2
1532261607567966 -3 -7 0 0 1 4 0 -2
1532261607590905 3 -3 -9 -2 -1 -2 -2 2
1532261607635785 -2 -3 8 -1 -1 0 -2 -1
1532261607688643 -1 12 21 -4 -3 0 -2 0
1532261607725545 0 -7 -8 -2 1 0 0 0
1532261607755465 0 8 40 0 -1 0 0 -2
1532261607793187 -2 4 38 4 0 -1 -2 0
1532261607809145 1 1 -5 -2 -2 -2 0 0
1532261607853027 -3 0 6 1 0 1 -2 -2
1532261607875966 -1 2 -8 2 -1 0 1 1
1532261607928825 -1 6 10 0 0 -6 -1 -2
1532261607973705 0 2 0 2 -1 2 -1 -3
1532261608025566 -1 4 14 0 0 -1 -2 -1
1532261608055486 2 -9 -34 -1 0 0 -1 0
1532261608093385 -3 -7 -10 -4 -2 3 0 1
1532261608139262 4 2 3 0 1 -2 -1 -1
1532261608206113 2 0 12 -1 -1 -2 -1 0
1532261608243015 -2 -10 -7 -1 0 -1 -1 -2
1532261608280914 -3 1 9 -2 -3 -1 -1 0
1532261608303852 -1 4 13 1 -1 1 1 1
1532261608318812 2 -6 -5 -4 -2 -2 -1 3
1532261608348732 1 -7 -21 -2 0 0 -1 1
1532261608378652 0 0 16 -2 -1 -4 -2 -2
1532261608400593 -1 -2 7 -1 -2 -8 1 0
1532261608423533 -1 2 2 0 -1 0 1 -1
1532261608453452 0 2 -11 1 -1 0 0 -2
1532261608468854 0 -3 -3 2 1 0 -2 -1
1532261608505757 -2 -2 -2 0 0 5 -3 -2
1532261608543655 0 -2 -11 0 1 5 -1 -2
1532261608588535 0 -1 -3 -2 -2 -2 -1 -2
1532261608663335 -1 -1 -6 -1 -2 -1 -2 0
1532261608679292 -1 -1 -2 -3 -2 -2 0 -3
1532261608708216 0 1 -8 0 -2 2 -1 1
1532261608723175 0 -5 -42 -3 0 2 -1 -1
1532261608738135 0 5 9 0 -1 -3 -2 -1
1532261608761074 -1 -1 -6 -1 0 -3 0 0
1532261608790994 1 6 16 2 -1 1 -1 -1
1532261608805954 1 1 10 2 0 1 0 1
1532261608843853 -1 -1 14 -1 -1 -1 -2 0
1532261608888769 1 -4 1 -1 -1 -2 1 0
1532261608903739 -2 5 9 0 0 -1 1 -2
1532261608925668 -1 5 34 0 0 -1 -3 -2
1532261608948608 0 2 0 1 -3 -3 -2 0
1532261608993488 -1 3 14 -1 -1 0 0 -2
1532261609015428 1 1 14 -2 -1 -1 0 1
1532261609053327 -1 -1 7 -2 -2 -5 2 1
1532261609076293 0 -6 -24 -2 0 0 0 2
1532261609121173 -1 0 5 2 0 2 0 -3
1532261609136132 0 3 17 0 0 -2 -1 0
1532261609151093 -1 1 3 0 -2 1 1 0
1532261609187994 0 -4 -3 0 -1 -1 -2 -1
1532261609225892 -1 1 -19 -1 -1 -3 -1 -1
1532261609240853 2 -1 3 -1 0 3 1 0
1532261609255829 2 -1 22 0 -1 -1 0 0
1532261609300692 -3 -7 -8 -3 -3 -1 0 1
1532261609323631 1 10 19 3 1 3 0 0
1532261609345573 0 0 3 -1 0 -5 -1 0
1532261609360532 -1 5 17 -2 -3 0 -1 -1
1532261609390453 0 -7 -25 -3 -1 -1 0 1
1532261609413391 1 5 27 1 1 -2 -2 1
1532261609443328 0 2 39 -1 -3 2 1 -1
1532261609458285 0 5 -79 3 -2 -3 0 -1
1532261609481210 -1 -6 25 8 2 3 1 0
1532261609511130 2 -18 62 1 -1 16 -1 5
1532261609541050 2 46 15 1 2 13 33 -47
1532261609562991 -5 -31 -8 1 2 0 -6 -6
1532261609585929 -6 -8 -10 2 7 6 6 -10
1532261609615850 0 0 26 5 0 -8 7 -6
1532261609638800 -6 34 -121 -28 2 -6 4 -18
1532261609683669 -2 20 25 8 -1 38 -6 7
1532261609713589 -1 -29 -31 11 8 9 -10 47
1532261609750490 -23 10 11 -7 -12 -10 -3 -7
1532261609773453 -3 -10 -73 -25 -1 -4 19 7
1532261609811352 -5 -5 27 52 15 12 7 -2
1532261609833293 -1 -22 -26 -3 0 -9 1 2
1532261609848254 3 7 3 0 -6 -1 16 21
1532261609863213 -4 5 7 2 2 9 2 -5
1532261609886152 -3 -23 12 -1 -3 -5 2 -2
1532261609916072 0 -17 -37 -22 -7 -4 -2 -2
1532261609938013 -2 -4 -7 20 7 3 0 -2
1532261609960952 1 3 -11 -6 0 2 0 2
1532261610013810 6 -7 14 7 1 3 -2 0
1532261610043731 -2 -8 -18 -6 -3 -1 -2 -1
1532261610088619 -1 -2 -9 -2 -1 0 0 -4
1532261610110559 -1 0 3 1 0 -1 0 1
1532261610125520 -2 -1 -16 -4 -4 -3 -2 0
1532261610148458 -1 -4 -42 -4 -2 -2 -2 -1
1532261610163890 -1 -5 -8 -2 -2 0 -1 1
1532261610193812 -3 5 36 -3 -1 -1 0 -1
1532261610215753 -1 4 26 -1 1 0 -2 -1
1532261610245672 -1 5 12 0 0 -1 0 -1
1532261610283572 -2 -4 7 2 0 -1 -1 1
1532261610313491 0 -3 -8 0 -1 -3 -1 -1
1532261610343411 0 6 6 -1 -1 -1 1 2
1532261610381310 -3 1 44 0 -3 -4 -4 -2
1532261610418217 1 1 7 1 1 2 0 2
1532261610448136 0 1 -35 -3 1 -1 -3 -2
1532261610463097 2 0 12 1 -1 0 -1 1
1532261610486035 1 -5 -7 -1 0 1 0 2
1532261610500995 0 2 2 -2 -1 -2 1 -1
1532261610561839 0 3 30 -2 -4 -3 -1 0
1532261610575802 -2 2 24 -2 -1 -3 0 -1
1532261610643620 -1 2 5 -1 -1 0 -1 0
1532261610690670 -1 -1 -1 -2 0 0 -3 -3
1532261610710615 -1 -4 -7 1 1 0 0 -1
1532261610725575 -3 -7 -12 -1 1 -1 1 0
1532261610780429 0 8 9 -3 0 1 0 1
1532261610831293 -1 -1 -2 -2 -3 0 0 -1
1532261610906099 1 -3 2 -2 1 -1 -1 0
1532261610936013 0 -7 -5 1 0 -1 1 0
1532261610957954 -1 -4 1 -2 -1 -1 -2 -1
1532261611003831 -3 6 -16 2 0 -3 -1 0
1532261611033751 -3 -3 -1 -1 1 0 -1 -1
1532261611055692 1 -1 13 4 0 -4 -1 0
1532261611093592 0 -1 0 -1 0 3 1 -1
1532261611236209 4 -5 -20 -2 1 0 -1 0
1532261611251170 2 -7 -8 1 1 -3 1 -1
1532261611265976 -1 3 6 -2 0 0 0 -1
1532261611287917 -2 13 22 2 0 -1 0 -1
1532261611325816 -1 6 9 -2 -1 2 -1 -2
1532261611340776 -1 -6 -9 0 0 -1 -2 -1
1532261611378675 -4 7 10 0 -1 -3 0 0
1532261611400616 1 4 -4 -1 0 1 1 -1
1532261611453484 -2 13 18 2 1 -3 -2 1
1532261611476413 1 -6 -13 1 2 2 0 -1
1532261611513314 -1 -4 -5 -3 -3 0 0 0
1532261611537250 1 5 25 1 1 -1 0 0
1532261611581133 -3 -3 16 -4 -2 -2 -2 -1
1532261611618034 0 -3 -2 0 0 1 -2 0
1532261611647954 -2 2 14 -2 -1 3 -1 2
1532261611685853 -1 -5 -17 1 0 -4 0 -1
1532261611730737 0 2 -13 -1 1 -2 1 2
1532261611760653 -2 -5 -10 1 -3 -1 0 0
1532261611775613 0 2 -6 -2 -1 1 -1 1
1532261611835453 -1 6 11 -2 0 2 -2 0
1532261611866370 0 6 23 0 -1 5 -1 -1
1532261611896290 -2 8 56 2 1 2 -1 -1
1532261611918232 -2 -12 -28 -2 -3 -9 -1 -3
1532261611993031 -2 -2 -15 3 1 2 0 0
1532261612007991 -2 -4 -5 -3 -2 -2 -3 1
1532261612030930 -3 -3 -4 0 -2 1 0 -1
1532261612068828 -2 -11 -19 -4 -1 -6 -1 -1
1532261612090770 -4 -1 13 2 1 -4 -2 -2
1532261612158589 0 -3 8 -1 0 2 1 0
1532261612195490 2 -6 -13 -1 2 1 0 0
1532261612256328 -6 4 -49 -18 -3 0 -3 0
1532261612278269 4 -4 -65 -7 -2 -2 1 1
1532261612331155 6 -57 -5 -5 -6 -31 -29 8
1532261612346115 3 17 -29 -4 -3 -2 -3 3
1532261612368057 3 17 3 40 18 2 0 9
1532261612390997 2 -3 50 13 8 0 2 3
1532261612420919 -1 -13 -3 -12 -6 -10 2 0
1532261612465796 3 -6 6 1 1 16 2 20
1532261612503694 -3 -1 18 -6 -5 -2 0 0

1532261612570488 0 0 8 -12 -6 -4 -1 -3
1532261612616365 -1 -1 1 3 2 -2 -1 -1
1532261612632322 2 -3 -19 -3 -2 -1 -2 -3
1532261612653266 1 2 13 4 3 3 2 -2
1532261612668226 -4 -8 -7 2 -1 -4 0 -3
1532261612728066 0 -5 -17 -8 -4 -4 -1 -1
1532261612757986 0 -2 -10 0 3 -3 -2 -1
1532261612810844 -2 -5 -14 -4 -3 -1 0 0
1532261612855725 -4 -8 -12 -26 -11 -2 -2 -1
1532261612878663 0 5 9 17 7 -1 -1 2
1532261612893624 1 5 4 -5 -3 3 -2 -2
1532261612930524 1 3 3 -8 -8 -2 -2 -2
1532261612953463 1 6 10 3 -2 0 -1 1
1532261612998343 0 2 2 5 2 0 -4 0
1532261613051201 -4 -4 1 3 -1 -2 6 -1
1532261613103063 -3 -5 -6 -1 3 -1 -1 1
1532261613147943 5 4 0 1 1 2 0 1
1532261613185842 1 6 5 0 0 1 -1 -1
1532261613230721 -1 -3 -4 -2 -2 -2 -1 0
1532261613253660 1 -21 0 8 4 3 0 -1
1532261613305522 0 1 3 -2 -1 2 -1 0
1532261613350402 0 1 3 3 -2 -1 -1 -1
1532261613418221 1 4 5 3 -1 1 2 0
1532261613441159 -2 0 -3 -3 -1 -1 -2 1
1532261613486039 -1 -4 -4 -1 -2 -3 2 -1
1532261613537900 -1 -7 -5 6 2 0 1 0
1532261613575799 3 12 2 -3 -2 2 1 0
1532261613688498 -1 -4 -4 -10 -3 2 8 2
1532261613726396 -5 -32 -13 -13 0 9 66 -3
1532261613763297 -4 18 0 -10 -3 4 0 2
1532261613801196 0 3 -1 -4 -1 -3 10 4
1532261613897938 2 18 8 14 -1 0 -2 1
1532261613958774 -5 23 0 0 -1 -3 -49 -5
1532261613973736 0 -11 -11 -8 0 15 46 -1
1532261614040556 -4 -16 -11 -1 2 -5 3 12
1532261614101394 9 -6 0 2 4 5 -4 6
1532261614176194 2 12 5 1 -2 -9 -59 -14
1532261614213095 -9 -10 -4 -1 -1 2 12 1
1532261614250993 4 8 18 18 4 2 11 9
1532261614311831 4 -4 5 -1 2 2 3 12
1532261614325793 -4 -15 -10 -10 -3 0 41 -3
1532261614370673 3 7 4 2 7 18 7 -7
1532261614408572 5 30 -4 4 -1 -5 9 2
1532261614483372 -3 -22 -6 -10 -3 12 -31 -16
1532261614558172 -5 -34 -14 0 -3 -11 -10 7
1532261614647932 -2 -14 0 -3 1 3 20 -14
1532261614753649 1 -9 6 2 -2 -2 -9 6
1532261614805511 -6 -10 -3 -5 -4 -6 2 3
1532261614851387 8 10 14 6 3 5 56 5
1532261614941148 -9 -8 2 2 1 2 -1 -1
1532261615083767 -11 -9 7 49 7 5 19 -8
1532261615105708 -3 16 -6 -15 -3 -2 -3 1
1532261615128646 9 14 11 4 2 1 -5 -1
1532261615180508 0 -38 5 0 5 6 25 9
1532261615203446 -5 -9 -15 -7 -4 -5 -17 -3
1532261615241345 2 31 -13 0 0 -4 -30 3
1532261615293207 2 42 9 9 2 -1 24 3
1532261615382966 0 4 -4 5 0 -4 57 7
1532261615420864 1 -9 -4 -3 -3 -5 -4 -6
1532261615450785 1 29 3 6 2 5 23 1
1532261615480705 -12 -38 -10 0 -4 -1 -14 -9
1532261615503644 -5 -38 -1 -2 0 5 0 -5
1532261615570465 0 38 3 -6 -1 6 64 27
1532261615653244 7 52 11 2 3 3 -8 4
1532261615676182 3 27 11 1 0 -4 -33 -9
1532261615698123 -4 -25 -8 -5 -3 -10 -1 4
1532261615728044 -11 -41 -12 -6 -4 -1 -13 -10
1532261615765942 2 -4 -1 2 0 -3 -8 -5
1532261615803841 1 10 0 0 0 -7 -11 0
1532261615825782 2 8 1 1 2 2 -1 0
1532261615863681 -5 -22 -4 -4 0 4 32 6
1532261615893601 -2 24 1 0 1 1 -2 4
1532261615915542 5 -5 12 1 -3 -1 1 12
1532261615945463 3 17 5 26 6 0 3 2
1532261615960422 6 25 -91 -5 -2 3 5 -1
1532261615976379 -3 -2 16 11 -2 -1 0 -1
1532261615998321 1 -21 -6 4 1 9 -1 1
1532261616028241 0 -10 12 21 9 1 -3 0
1532261616103041 1 1 18 6 -3 -18 1 0
1532261616132961 -1 -1 -13 4 0 -5 -1 -1
1532261616148919 -7 3 18 1 1 -4 -2 0
1532261616208758 2 4 23 18 52 80 16 3
1532261616224715 -2 -8 -9 4 -8 -48 -7 -4
1532261616245660 0 3 -16 -3 3 4 -2 1
1532261616268598 0 14 -17 -6 -8 -1 -2 -4
1532261616283558 2 4 -10 11 9 -9 0 1
1532261616305503 -2 -3 51 -7 -6 -30 -4 -1
1532261616320459 1 7 28 -1 -3 13 -2 -3
1532261616343398 -4 15 8 -13 -8 5 -16 -6
1532261616367334 -4 1 44 2 -8 -99 -12 -2
1532261616388278 -1 -7 15 6 8 2 6 1
1532261616418198 14 31 48 29 2 2 7 8
1532261616456097 -4 -7 -2 -14 -6 -42 -5 -3
1532261616471057 3 1 41 36 35 24 22 8
1532261616500977 0 -3 -10 -8 -7 7 -5 -3
1532261616530897 27 63 83 45 -2 -16 3 13
1532261616546854 -17 -35 -16 -9 3 -3 -3 -6
1532261616560816 4 5 3 12 -2 5 -3 -2
1532261616590736 14 26 11 4 -3 -4 0 6
1532261616613675 -12 -17 -14 -14 -9 -16 -6 -18
1532261616643596 14 22 19 19 11 5 2 7
1532261616726374 -4 -9 -13 -2 3 -3 3 6
1532261616867995 -5 -16 -11 -2 -1 6 -3 -2
1532261616928833 1 4 -1 0 1 2 0 -2
1532261616988672 -2 4 -2 -1 -3 -4 -2 -1
1532261617040535 -2 -1 -13 0 0 12 0 0
1532261617100374 4 19 44 8 -7 -3 -2 -2
1532261617117329 -4 -2 -1 -2 -7 -11 -4 -3
1532261617250971 -3 -15 -4 -19 -6 38 1 -3
1532261617288870 4 9 38 5 7 -16 1 0
1532261617325771 1 12 -17 7 7 9 2 2
1532261617385611 4 3 -46 9 -10 11 2 3
1532261617417526 -1 -3 -39 2 4 -3 -1 1
1532261617430491 3 0 56 -16 -10 -5 -2 -9
1532261617445451 -5 -22 -35 -4 8 22 0 0
1532261617468389 -6 5 21 -4 -8 -7 -3 -5
1532261617506289 0 -7 9 -1 2 2 -1 -1
1532261617536208 6 15 2 -2 -11 -6 0 -3
1532261617581089 -4 1 2 6 1 0 -1 -37
1532261617597045 6 -2 -1 -9 -4 4 3 39
1532261617611009 3 -28 6 -5 -8 1 -4 -15
1532261617633947 1 32 7 -7 -1 0 -6 -25
1532261617647909 3 11 0 2 -4 -1 2 12
1532261617662870 -7 -9 -3 -4 -8 -2 -1 -25
1532261617685808 0 19 2 1 -2 1 12 0
1532261617708747 -4 43 5 5 9 6 -15 -13
1532261617723707 2 33 1 4 -1 1 30 5
1532261617760608 0 -58 1 2 -5 -3 8 -3
1532261617798507 -9 -42 -15 -15 -5 -1 -7 -2
1532261617828427 -3 -7 1 -4 -5 0 48 12
1532261617858347 -6 2 -4 -4 -4 -7 -80 -8
1532261617881286 2 3 4 -8 -1 1 -49 4
1532261617918187 -12 -121 -7 -19 -15 -18 -21 -13
1532261617956086 -2 13 0 -2 1 2 6 -18
1532261617971046 -10 -86 -7 -1 -1 -2 -13 -4
1532261617986006 -2 -35 -5 0 -1 -13 -14 -17
1532261618007946 -30 -3 -24 -6 -2 -1 -30 -26
1532261618030885 5 55 -14 -2 -1 2 2 12
1532261618068784 -6 -56 2 -2 0 0 59 -11
1532261618083744 -4 -23 -3 -3 -2 0 67 -6
1532261618113664 21 96 18 2 0 1 -24 6
1532261618135620 -5 -3 5 4 -3 -8 -30 -9
1532261618165526 3 -11 2 3 4 3 -32 20
1532261618180486 10 -18 15 6 3 -6 -38 -12
1532261618195445 5 -49 10 4 0 -10 -17 -3
1532261618211403 -3 -31 -2 0 0 4 -3 -9
1532261618233344 -15 -12 -14 -8 -7 -5 -13 -11
1532261618263264 6 21 7 -3 -1 -3 -25 -12
1532261618286203 9 6 -4 4 6 14 2 -5
1532261618308145 -1 -34 4 2 2 10 7 14
1532261618346043 18 50 12 3 2 4 19 33
1532261618390923 8 -78 -19 -10 -11 -19 4 8
1532261618405883 -1 13 2 1 2 7 11 -6
1532261618420843 -6 60 22 8 5 17 3 -3
1532261618435803 20 4 -12 -2 0 -6 2 -36
1532261618458741 2 -30 -23 -7 -2 3 18 -8
1532261618488661 -1 30 -11 -11 -6 7 80 6
1532261618540524 2 -30 -14 2 0 -17 -75 -1
1532261618593381 -21 1 -20 -12 -5 -3 -16 -44
1532261618676160 -21 -26 1 -2 3 17 38 9
1532261618706082 10 5 13 7 6 -2 -23 25
1532261618728022 5 3 -2 -1 -3 -3 -58 -13
1532261618750960 -3 -7 8 3 3 2 -30 2
1532261618772901 -18 -22 10 2 1 1 4 -43
1532261618840720 2 74 4 2 3 1 4 18
1532261618893579 -1 -42 7 1 -1 -1 8 29
1532261618915521 17 -110 -94 -4 -1 0 1 21
1532261618970374 3 -24 20 15 15 6 1 4
1532261618991318 4 29 55 -11 -2 -3 -14 -20
1532261619006278 37 63 -87 -8 2 2 6 12
1532261619028219 71 13 25 1 0 1 13 13
1532261619051157 70 -2 65 -7 3 -1 29 16
1532261619096048 -22 -15 16 -7 -2 -2 3 5
1532261619117979 -27 -60 -67 -15 12 8 45 47
1532261619147898 5 58 3 -4 -10 2 -1 -3
1532261619262592 2 5 8 8 3 5 -2 -35
1532261619290530 -19 -45 10 -1 11 2 11 5
1532261619351355 -8 28 11 -14 -6 -8 -8 -19
1532261619396235 -5 -43 -60 -3 -7 -11 -13 -2
1532261619456074 9 -1 37 7 5 7 17 9
1532261619545835 14 64 4 -3 3 3 4 48
1532261619560794 -9 -17 -14 8 8 -1 1 5
1532261619620642 -12 -17 6 2 -1 0 23 29
1532261619688452 -4 5 -32 3 3 0 0 -7
1532261619748293 -28 -18 18 9 -3 -3 -11 -21
1532261619808147 -9 -46 29 -2 -1 1 -9 26
1532261619875952 -12 6 1 -5 0 -2 3 -8
1532261619913851 -9 -3 -63 -8 0 0 -2 -7
1532261619935792 10 -5 -8 3 -1 -3 -9 -5
1532261620010592 -7 -9 -13 0 0 4 1 15
1532261620078411 -4 28 15 8 4 -3 3 34
1532261620131268 7 -14 28 -3 -6 -8 -2 9
1532261620153210 -3 25 51 1 3 8 19 3
1532261620198090 -3 -7 -26 4 -4 -1 -38 -10
1532261620242970 -10 -4 4 0 0 -2 2 -19
1532261620265909 2 -16 6 0 1 3 8 -11
1532261620370629 -3 2 14 -1 1 -1 1 -4
1532261620408528 -3 9 10 -5 6 1 -1 -1
1532261620460389 4 39 -22 -11 -9 -5 1 0
1532261620498289 0 -26 -20 -5 -1 -7 -1 1
1532261620603008 2 -12 -55 0 -6 -1 -2 0
1532261620655867 -3 -20 5 -21 -5 -19 -4 -2
1532261620709722 -1 -13 -14 4 3 2 -3 -2
1532261620738645 0 -6 -6 3 6 1 1 4
1532261620760586 2 0 -7 5 4 -3 2 -1
1532261620821424 4 13 0 6 3 -1 6 1
1532261620888245 -2 -12 -10 -4 -3 -2 -1 -2
1532261620941104 -2 7 -10 -6 -10 -2 21 9
1532261620985984 -14 -12 -80 0 6 3 -2 -13
1532261621022885 -2 -13 34 0 -4 -6 0 -5
1532261621060783 -1 3 18 3 0 -6 -2 -9
1532261621150543 -9 0 7 4 8 7 9 -6
1532261621211381 -5 -5 10 -11 -6 2 26 8
1532261621248282 -10 1 1 10 0 -3 -14 -13
1532261621308122 -1 -9 6 4 2 0 4 -14
1532261621413840 -3 3 28 -4 1 3 34 19
1532261621495621 0 -21 -70 -3 1 -4 -10 3
1532261621638239 15 -8 6 -5 -1 4 -1 27
1532261621780857 -5 28 -17 3 0 8 14 -3
1532261621795831 13 20 105 -2 -5 -8 4 48
1532261621818769 -2 -6 40 2 2 19 6 10
1532261621855671 2 32 -22 7 7 -4 15 -52
1532261621878609 0 -13 33 -12 -2 -4 23 25
1532261621976348 -8 -1 17 -12 1 11 -12 -3
1532261622043169 6 -36 38 6 1 0 -8 -16
1532261622148887 15 -26 -53 -68 -14 0 -37 9
1532261622215707 -7 20 -1 11 -1 0 -21 -18
1532261622322422 9 -5 -11 -42 -15 -4 23 11
1532261622373286 1 -23 -10 -14 -1 -1 -1 -2
1532261622411185 1 10 -24 -3 -4 0 0 0
1532261622485985 -2 2 4 11 3 1 -1 -1
1532261622522887 -2 -3 15 19 19 3 0 2
1532261622546822 3 4 13 -24 -3 -3 0 2
1532261622568764 1 -9 6 -1 6 -1 -2 -2
1532261622590706 -4 -14 4 7 -8 -4 0 -1
1532261622605666 -3 -32 0 3 -2 -1 0 -2
1532261622643563 2 15 13 -2 0 -1 -1 -1
1532261622711382 -3 -14 13 6 3 2 2 1
1532261622793163 0 12 -10 0 -3 -4 -1 -2
1532261622809121 -1 -19 -28 -2 -2 -3 -2 -2
1532261622875942 -1 -16 -36 -8 -1 0 0 1
1532261622898881 -1 -10 -39 -2 -2 -5 -2 -3
1532261622943761 -1 -5 -53 -1 0 0 0 0
1532261622958721 1 0 -11 -5 -2 0 2 0
1532261622980662 1 4 19 -5 -1 -2 -1 -1
1532261623003601 -2 6 7 4 0 -2 -3 -2
1532261623065436 -1 0 3 1 -4 -1 -1 -1
1532261623086379 0 1 3 7 2 2 -1 -3
1532261623161179 0 -15 -29 5 0 -1 -1 -1
1532261623183121 6 10 11 -2 1 1 1 3
1532261623213041 -1 -15 -20 -2 -1 0 3 1
1532261623228000 -2 1 -3 0 0 2 -1 -1
1532261623272881 -5 -46 -39 -14 -6 0 -3 -3
1532261623348678 26 3 -3 3 1 -7 18 29

1532261623476337 -1 22 -13 -2 -7 2 -4 1
1532261623506257 -2 -21 8 2 -4 -3 2 1
1532261623566107 -1 10 4 2 0 0 2 0
1532261623612000 0 0 -6 -19 -9 -2 1 0
1532261623663846 -3 -8 -6 -4 -1 -2 2 8
1532261623708725 0 7 20 -1 -1 1 0 -1
1532261623768566 6 12 0 1 -2 -1 -1 2
1532261623783525 2 24 20 4 0 -3 -1 -2
1532261623843366 -2 -10 -2 -22 -6 -2 1 -2
1532261623918166 2 10 1 5 3 1 0 4
1532261623956064 2 -6 -15 -4 -1 0 0 -1
1532261624000951 0 2 5 -6 -3 -1 -1 0
1532261624015911 -2 -3 13 -3 0 -1 -1 -2
1532261624038402 0 4 1 -10 0 -1 -2 -2
1532261624076300 -6 -12 -102 1 -3 -3 -2 -3
1532261624151101 -10 12 -10 -3 7 90 45 48
1532261624188002 24 0 -4 -11 -7 -78 -44 -23
1532261624202962 -12 3 -60 5 4 -5 3 -15
1532261624225901 2 9 -28 83 29 16 7 2
1532261624285741 3 8 -10 15 5 -10 -10 -2
1532261624300701 3 25 32 -1 -5 -2 0 -8
1532261624323640 12 13 2 -3 2 -6 1 15
1532261624360541 -8 -7 19 -2 0 1 -3 -8
1532261624398439 -4 -16 -21 -4 0 1 0 -3
1532261624451298 -3 -17 -1 -6 1 1 -4 -1
1532261624496178 0 9 23 -1 -2 -9 -6 -2
1532261624518119 1 -8 -23 -5 1 1 3 0
1532261624541058 -2 12 0 -1 1 2 1 1
1532261624563000 -1 5 -13 2 1 1 -1 0
1532261624585938 2 4 6 4 -2 0 1 -2
1532261624615858 1 12 6 1 0 0 1 -2
1532261624638796 -5 -11 65 14 4 -2 -2 -4
1532261624660738 1 -24 -26 -5 -2 1 2 1
1532261624690658 0 11 -1 -6 -3 -1 -1 0
1532261624705650 3 4 -3 -1 3 3 3 2
1532261624750498 -4 1 -10 -4 -2 -4 -1 0
1532261624773437 -1 18 -2 0 -2 -2 0 -1
1532261624796375 1 -4 4 1 0 1 -2 -1
1532261624841256 2 -24 -14 23 7 0 1 0
1532261624878157 3 28 -17 -12 -12 -3 -1 -4
1532261624893116 -2 -11 -29 2 1 2 1 -1
1532261624952957 2 -1 10 -4 3 -2 1 -1
1532261625013794 -4 -1 -9 8 4 2 1 -2
1532261625050695 -2 3 1 -5 -6 -1 7 -4
1532261625120508 -8 5 -14 -5 5 -2 -24 -11
1532261625133474 3 8 8 -2 -4 -5 21 6
1532261625170375 -1 57 23 -1 0 -1 -12 6
1532261625223234 -11 6 -12 -7 -3 3 -49 -9
1532261625268114 -11 -80 -12 -3 -4 -5 1 -12
1532261625298034 -3 -4 -5 -4 -5 -12 -44 -13
1532261625327954 10 17 4 3 5 5 8 4
1532261625373831 -9 7 -1 -7 -8 1 -33 -15
1532261625403751 3 30 9 45 7 6 18 3
1532261625425693 -2 -23 1 -19 -6 -2 35 0
1532261625448631 -14 21 -14 -18 -3 -3 -73 -9
1532261625478551 -1 -20 5 22 4 -20 -55 -7
1532261625508472 5 -9 3 -3 0 -12 -7 0
1532261625598232 8 29 -8 -6 1 12 -20 -1
1532261625628151 -9 -2 -13 -5 -2 -3 7 -7
1532261625651090 11 -15 -13 -8 -2 -6 -53 4
1532261625681010 -10 -19 -1 -2 -6 7 27 -12
1532261625702951 5 18 4 0 -1 3 -7 -6
1532261625717911 2 46 5 -2 -1 -1 -35 -3
1532261625748829 -7 -11 -10 -6 -4 -16 -42 -6
1532261625770770 -10 -8 -1 -3 -1 -1 25 -4
1532261625860530 -3 18 5 -1 0 13 64 1
1532261625883469 6 -47 5 0 1 0 27 11
1532261625996167 0 8 4 1 -2 4 18 9
1532261626048028 -2 -1 -1 -2 0 1 37 9
1532261626115847 1 0 8 2 1 6 10 -5
1532261626145767 -12 -12 -18 -11 -5 -6 -14 -8
1532261626198626 3 8 -2 0 -3 -3 5 14
1532261626235527 0 -6 0 16 -2 -10 -28 3
1532261626250487 -9 -2 -13 -7 -3 2 -34 -14
1532261626265447 5 12 -7 -7 0 -2 -42 -9
1532261626295367 1 2 10 34 15 0 -35 3
1532261626333266 -1 -3 3 -3 2 4 7 -17
1532261626371164 -2 -11 -6 -17 -5 -15 -25 0
1532261626437986 1 23 0 -4 -1 4 5 -4
1532261626475884 0 -26 -1 -5 -7 -7 21 8
1532261626490845 4 12 10 1 0 1 -2 1
1532261626550683 0 -5 -10 1 1 4 14 2
1532261626573623 -7 -17 -12 2 0 -2 2 -5
1532261626625484 5 -19 -6 5 -3 -18 55 10
1532261626663383 -1 8 10 7 1 5 -3 -7
1532261626731201 -4 45 50 -2 -3 5 -7 -13
1532261626753142 -1 -40 110 -7 -7 -4 0 3
1532261626768103 -2 -44 34 -8 -4 0 -2 -11
1532261626798023 -2 4 7 2 0 11 1 -2
1532261626820961 0 40 19 5 1 1 1 -8
1532261626842903 -6 0 -17 4 3 -1 -5 -19
1532261626858866 1 -7 -12 3 1 1 -1 -4
1532261626888780 8 15 2 1 -2 -3 -3 2
1532261626903740 4 -3 -14 -1 0 0 -1 0
1532261626925681 2 -9 -18 1 -1 0 -3 0
1532261626993500 0 4 -1 -1 -1 -4 1 6
1532261627038380 -7 -1 10 -1 1 -2 1 8
1532261627107196 8 5 3 4 0 1 -2 10
1532261627128140 -5 -6 -2 -1 -2 -1 -2 -34
1532261627173028 -11 -1 -2 2 -1 -2 -1 -16
1532261627338577 0 6 5 2 2 3 1 -1
1532261627360519 2 8 34 -1 -1 -4 -3 -2
1532261627391439 -2 16 21 -3 -3 -10 -3 0
1532261627451276 0 5 38 4 -6 3 0 0
1532261627481196 -4 -15 26 5 -5 -2 -4 -1
1532261627526076 1 2 -17 -15 -4 4 -1 1
1532261627548029 1 -4 40 7 6 4 2 0
1532261627653735 2 8 -60 9 -6 -8 -2 0
1532261627683655 0 22 82 -2 6 33 6 1
1532261627735516 2 -6 -45 -16 -3 17 11 3
1532261627841233 1 -4 -2 3 7 -7 -5 -1
1532261627901073 2 1 -18 -6 -6 3 1 1
1532261627925009 -1 -8 -36 -16 3 2 -9 -2
1532261627937975 3 1 -13 0 1 9 11 2
1532261627960913 1 8 39 0 8 1 1 1
1532261627983867 0 5 35 -5 -2 -10 1 0
1532261628043692 1 -4 -17 -1 0 11 4 -3
1532261628073612 -5 10 -6 -4 -7 -1 0 -28
1532261628133451 -11 -49 -26 -6 -5 -3 -15 -10
1532261628156391 -1 52 1 -6 -2 4 -1 -5
1532261628171350 -10 -34 -2 1 1 1 6 11
1532261628201271 -3 5 -8 -8 -4 -10 -17 -15
1532261628223212 4 -45 -1 7 4 4 10 -1
1532261628291030 11 110 1 4 -6 1 0 1
1532261628327932 1 9 7 8 7 4 -7 -6
1532261628380790 2 -66 -6 15 -5 -4 10 9
1532261628418688 2 -24 0 7 1 2 11 -6
1532261628463569 2 -97 9 37 13 19 90 7
1532261628523409 -10 -53 0 -10 1 9 67 20
1532261628553329 -8 5 -1 -2 -7 -18 -43 -27
1532261628583248 0 -62 8 1 5 21 14 16
1532261628615179 -3 77 10 -4 -5 -8 -3 -19
1532261628636108 -9 22 -4 -3 0 -1 4 -36
1532261628651068 -4 -100 -14 -4 -1 1 -59 -3
1532261628710908 -10 -31 4 1 1 10 31 -1
1532261628740828 -4 -2 -5 0 -1 0 9 8
1532261628755788 23 -5 13 5 2 0 -36 28
1532261628778726 7 8 5 3 2 -10 -8 -3
1532261628800667 3 68 0 0 -1 -2 6 -4
1532261628838565 -18 31 -8 -5 -5 -6 -37 -20
1532261628883446 -11 -1 0 -1 -3 -14 -71 -5
1532261628928333 -14 -59 -10 -3 0 4 -12 -36
1532261628951265 6 40 4 3 1 -3 -13 4
1532261628988166 22 54 11 0 -3 -5 45 16
1532261629026065 17 -41 -6 -1 3 -6 -9 -1
1532261629055985 -10 4 3 -3 -2 -2 -8 -2
1532261629100865 6 49 10 -1 -6 -4 -7 8
1532261629153739 4 -44 -11 2 1 3 -61 -22
1532261629213564 -6 31 10 2 -1 -3 15 -7
1532261629258443 -11 -55 -3 -6 0 8 43 9
1532261629341222 -8 -5 -32 -9 -4 -7 -38 3
1532261629467887 0 65 2 -2 -5 -2 10 15
1532261629505789 -12 -103 -19 -4 2 -5 -40 -37
1532261629558640 0 21 -93 -10 -6 -2 -2 0
1532261629580582 -8 -34 -66 -2 1 1 -1 -5
1532261629618481 -13 -4 -22 1 9 5 -1 -4
1532261629633441 -9 -6 -79 -4 -2 1 -2 -4
1532261629656379 4 2 32 28 10 -2 1 -1
1532261629693281 5 16 23 18 3 -2 -3 -18
1532261629746139 -10 -110 7 0 2 3 8 0
1532261629783041 -7 83 -68 -13 -7 2 -36 -7
1532261629812961 15 10 -105 -7 -4 -4 5 -17
1532261629835899 6 -20 55 8 5 -3 0 22
1532261629865819 -1 19 54 16 8 -3 7 21
1532261629903736 14 -1 19 10 -1 -6 -23 11
1532261629918678 -12 -15 -22 -6 -4 -4 -22 -29
1532261630000459 -14 -13 49 19 10 3 9 35
1532261630151056 2 38 -65 2 5 6 -15 -9
1532261630210896 -18 -44 -58 2 0 0 -6 -18
1532261630315617 14 16 1 8 0 -10 -9 -18
1532261630368475 -29 -14 -50 7 -2 -2 -4 -28
1532261630421333 -5 18 27 7 -3 0 7 49
1532261630436294 -25 -36 2 -4 -3 -3 0 -6
1532261630541014 4 -6 65 -32 -7 2 0 -8
1532261630570934 -3 -3 -71 6 2 4 7 -12
1532261630615813 2 -9 33 20 8 3 -1 -12
1532261630660694 -3 -13 19 0 2 -1 -1 19
1532261630705573 11 10 31 -1 -1 0 0 11
1532261630720534 -1 -8 20 1 -3 -4 -4 -16
1532261630765414 -17 -34 32 5 3 1 -2 -5
1532261630811291 -12 -3 7 16 3 1 0 -5
1532261630878112 -7 3 -46 2 -4 -3 -5 -9
1532261631035691 6 19 37 -2 -3 -1 -6 4
1532261631095531 4 -15 -3 -2 1 2 5 25
1532261631253110 3 40 3 4 1 -1 0 -3
1532261631297990 6 12 12 25 6 1 -1 1
1532261631343867 -6 -27 -41 -15 -4 1 0 -1
1532261631380768 0 -2 -6 -6 3 3 -1 0
1532261631425648 6 18 34 14 -15 -6 1 3
1532261631455568 -3 -9 -10 -10 12 4 0 -1
1532261631523387 -3 8 -11 -34 -12 -5 -2 -3
1532261631568267 0 1 -66 2 11 -2 -2 3
1532261631598186 -4 -64 3 3 -22 -16 -1 0
1532261631621125 -6 22 17 7 -13 -20 -7 -5
1532261631643067 -4 47 11 15 -25 -12 -21 -4
1532261631680965 -3 -16 11 44 19 7 37 6
1532261631704902 5 9 -6 -35 -4 5 21 3
1532261631733824 2 46 -1 -14 -21 -9 -9 -5
1532261631755765 6 14 -2 10 14 12 17 -5
1532261631770725 -9 18 -15 -8 16 -7 -25 0
1532261631800657 -5 22 -9 -7 -40 -25 3 -9
1532261631823584 8 -46 -13 3 3 -6 -6 1
1532261631845525 -4 21 -10 6 38 13 2 -1
1532261631860486 1 -5 -40 -17 -21 5 3 0
1532261631891411 -2 18 58 -2 -21 -9 -3 1
1532261631906363 0 -9 5 -5 -13 -9 -4 1
1532261631928317 6 -17 -10 -29 9 7 -5 5
1532261631958224 9 64 42 0 -23 -8 -10 17
1532261631988144 1 -8 2 2 2 -5 0 -3
1532261632011083 -1 3 37 4 2 0 2 1
1532261632042997 4 27 36 10 -2 -2 1 -12
1532261632100842 -12 -11 24 3 5 -9 -17 3
1532261632130763 -12 11 1 -4 -4 -1 2 -9
1532261632168661 2 13 60 10 1 -3 0 7
1532261632183621 6 -18 -56 -9 1 -2 1 13
1532261632243460 -14 11 -100 -5 -3 5 2 -39
1532261632296320 21 -10 0 4 5 -1 -30 -14
1532261632334219 11 -3 -8 -10 -2 -6 12 4
1532261632408021 4 6 17 -1 -3 -18 -4 -29
1532261632453901 4 -16 -51 -10 -1 1 0 30
1532261632513739 -16 -87 -28 7 2 2 16 30
1532261632565599 6 -2 4 4 4 13 4 3
1532261632610480 -46 12 -3 -9 -11 -17 -56 -95
1532261632641412 31 4 14 8 1 6 73 66
1532261632656357 0 -17 -3 -6 2 14 38 36
1532261632678298 -7 -7 -33 2 -3 -1 8 20
1532261632693258 2 21 25 16 7 -2 17 78
1532261632716197 -15 0 7 -2 -1 -2 13 -26
1532261632746117 -5 -18 5 -10 -3 -9 13 18
1532261632768058 -64 -20 33 -2 -8 -23 -57 -86
1532261632790997 26 17 20 20 14 20 65 56
1532261632820926 -11 -32 -43 -4 1 -3 10 6
1532261632850837 -11 4 7 6 -3 -7 20 -67
1532261632865797 25 -1 10 2 5 -5 25 75
1532261632880757 3 -7 -4 -18 -6 -16 -75 -20
1532261632903703 -3 31 8 3 5 -6 7 -11
1532261632925637 -2 -12 11 -25 -10 -6 -10 0
1532261632963535 -38 -79 -56 -22 -9 9 -6 -43
1532261632978496 11 24 -50 6 4 3 5 16
1532261633008416 2 10 -16 5 4 12 22 24
1532261633076234 21 -5 -6 -72 -12 6 48 54
1532261633106155 12 1 53 -15 -9 16 -71 11
1532261633165994 -1 17 -19 -5 -2 -5 13 -25
1532261633195914 -1 -1 10 66 15 5 5 6
1532261633248774 1 30 7 -8 -3 -2 0 -3
1532261633300634 -1 -6 19 3 -6 -5 -7 -2
1532261633375434 0 -6 8 4 8 2 0 -1
1532261633421311 0 -1 17 -14 -9 -3 -2 -1
1532261633482154 3 10 -9 -11 -8 -4 -1 -2
1532261633526031 -1 4 -12 -5 0 1 -3 -3
1532261633555964 0 7 -11 -4 -6 -3 -1 -2
1532261633593850 -1 2 0 0 3 7 0 0
1532261633653690 -2 -2 -10 -8 0 -2 -1 1
1532261633668650 1 -3 9 21 5 2 0 0
1532261633698570 -4 4 -1 -3 13 3 0 -1
1532261633720511 4 10 -2 -11 -3 1 -2 1
1532261633735471 0 13 -2 2 3 -1 0 -2
1532261633758410 4 22 12 -2 6 -1 0 0
1532261633788329 -10 -68 -11 -12 -15 -4 -3 -2
1532261633886068 3 -2 -28 1 -1 1 1 2
1532261633910005 -3 -10 -5 -4 0 -1 0 -1
1532261633960869 -3 -10 -69 -6 -3 -1 1 -1
1532261633998767 0 0 5 -4 -5 -1 -2 0
1532261634028688 1 19 11 1 1 -2 0 -1
1532261634058607 -2 -5 9 -1 0 -2 0 -1
1532261634110469 -1 8 36 -2 0 0 -2 -4
1532261634163327 0 9 12 2 0 -3 0 0
1532261634208207 -4 -17 -30 -12 -3 2 -1 0
1532261634223167 2 25 -2 -4 -2 -2 -1 -1
1532261634276026 -5 -4 -5 -17 -9 -1 1 -5
1532261634343845 5 0 2 2 -1 -46 -28 -8
1532261634365787 -11 -4 -4 8 0 23 0 -16

1532261634395706 -1 -6 -32 55 12 11 4 20
1532261634448564 4 10 46 2 1 3 -1 7
1532261634478484 2 9 5 12 -2 1 -3 -2
1532261634515462 2 -8 -18 3 1 1 -3 0
1532261634546379 -1 0 -14 9 0 -2 -2 0
1532261634576299 3 22 10 8 4 1 -2 1
1532261634621179 6 10 15 -4 -1 -2 -1 2
1532261634643120 0 -9 -18 -2 1 -1 -1 -1
1532261634717921 0 -3 -16 -11 -3 0 -1 2
1532261634740859 2 -7 -3 -6 -3 -4 0 1
1532261634845579 -3 0 19 -4 -1 -2 1 0
1532261634943772 10 24 3 5 4 -10 -2 20
1532261635010594 -18 -38 5 -9 -1 16 -17 -26
1532261635040521 -6 -22 41 2 8 6 -9 -6
1532261635086391 -5 -6 -19 -2 -2 8 13 3
1532261635138252 -7 -7 -25 2 0 -1 -6 -8
1532261635176151 -3 -4 -9 6 3 1 0 4
1532261635213052 -4 -25 -6 1 -2 0 -2 -2
1532261635272893 2 2 16 0 -2 -1 3 6
1532261635288849 -1 5 8 2 3 -1 -1 -1
1532261635310791 0 -2 9 5 2 0 -2 -1
1532261635340711 -3 -9 2 0 -2 -1 0 -1
1532261635363654 -1 -3 -3 -1 0 -1 -1 -2
1532261635378609 3 17 6 0 -3 -4 -1 0
1532261635393569 -4 -19 -18 -8 -1 -1 -2 -1
1532261635415511 0 7 -8 5 3 -1 1 -1
1532261635430475 -1 -10 1 -4 2 0 0 0
1532261635461387 3 10 4 6 0 -2 -17 -2
1532261635483329 -4 -20 -19 -11 -4 -7 -10 -4
1532261635506274 1 0 -5 -4 1 1 -1 1
1532261635536188 -3 -17 -4 11 8 4 -2 1
1532261635551148 0 -2 11 -4 -2 -1 0 1
1532261635573089 -4 12 6 2 -2 -3 0 -1
1532261635604007 -2 -2 -4 1 -1 0 -1 0
1532261635617970 -2 -25 1 0 1 -2 -1 -3
1532261635647889 -1 -10 11 -6 -3 -1 -2 -1
1532261635663847 3 21 -10 -4 -5 0 0 0
1532261635693767 0 -6 -3 -10 -4 -4 -2 0
1532261635715708 -1 -5 5 -3 15 -1 -1 0
1532261635730667 0 2 -1 4 2 -1 -1 1
1532261635760588 -1 -6 -3 -12 -5 -1 -2 -1
1532261635798486 -2 2 -4 10 28 8 7 6
1532261635820428 1 6 17 44 16 3 -1 3
1532261635851345 2 3 -6 -15 -10 2 -4 2
1532261635866305 -2 8 -2 -5 -6 1 -7 10
1532261635896225 1 6 -3 1 -14 1 3 -4
1532261635933127 -4 -40 3 -7 1 -2 -15 -5
1532261635948086 -4 -27 -3 4 2 -1 -8 -19
1532261635971025 -2 35 5 -4 4 7 26 12
1532261635992966 1 -14 -1 6 2 -6 -7 6
1532261636045825 6 6 -5 -2 4 15 37 12
1532261636075745 8 1 2 0 4 6 2 14
1532261636173483 -29 -44 -2 -10 -8 -14 -18 -27
1532261636218364 5 0 4 2 -1 -9 -11 8
1532261636271223 -7 -16 -8 -9 -6 -7 -8 3
1532261636398881 9 -13 14 20 8 3 -38 -1
1532261636435782 -6 -65 -18 9 5 -7 0 -1
1532261636631260 5 0 -4 -6 0 17 24 9
1532261636691100 -11 14 10 4 3 1 10 38
1532261636750940 -6 -36 -3 -2 -4 -7 -6 -4
1532261636788838 7 0 15 3 -1 1 6 -1
1532261636810779 0 19 5 1 -1 -4 -3 -1
1532261636825740 -15 -55 2 1 0 -1 -2 -16
1532261636848678 -11 1 -10 -3 -3 -8 -20 -7
1532261636930460 -2 -2 -4 6 6 7 43 -3
1532261636953398 -8 -32 -14 -10 -6 -8 -6 -7
1532261636998278 -4 -12 -12 -5 -5 3 31 2
1532261637021217 3 -35 3 -7 -2 -7 -57 9
1532261637060113 0 34 7 6 2 -4 1 3
1532261637081057 -3 32 -2 -16 -6 -8 8 6
1532261637096016 1 50 15 -4 1 4 -4 -3
1532261637117958 3 -17 16 6 3 4 -31 -6
1532261637208716 0 -62 -11 -11 -3 -5 -36 -3
1532261637230657 -9 -5 -12 -2 0 2 -11 -1
1532261637290497 3 -21 -3 2 0 0 42 6
1532261637305456 5 -15 -7 -3 -2 0 -3 2
1532261637336374 -2 10 -2 1 0 3 -9 -4
1532261637358315 -3 -26 -3 -7 -4 -4 23 7
1532261637381254 3 12 -1 -5 -1 3 3 0
1532261637411174 3 -25 -2 2 -1 -1 -4 1
1532261637492956 0 -4 31 0 0 -4 -4 1
1532261637568753 -2 -30 13 -6 -2 2 1 0
1532261637583713 -1 -27 19 3 1 1 0 3
1532261637613632 3 -2 39 -7 -1 -5 -3 1
1532261637628593 1 9 2 4 5 -14 -2 -1
1532261637643553 -7 9 -11 4 -4 1 -3 -1
1532261637658513 0 -7 -27 2 3 -6 -2 -4
1532261637696413 -1 5 -20 -1 1 1 2 0
1532261637718353 6 5 4 3 5 35 6 -3
1532261637816091 -9 -18 -10 -3 0 12 1 -9
1532261637876929 -20 6 -4 -1 1 -4 2 -5
1532261637929787 -7 -2 0 -1 2 1 -3 -1
1532261637965691 1 -7 -1 -2 -3 -9 -5 0
1532261637980651 -2 -6 -11 -5 -2 -2 1 2
1532261638055467 -3 0 9 4 1 0 -2 -5
1532261638131249 -1 -8 4 4 2 -1 2 -4
1532261638207046 -7 -2 0 3 5 1 -1 -2
1532261638242950 9 7 -23 -3 1 -2 1 0
1532261638318747 2 -11 0 7 -1 0 1 1
1532261638363626 -5 -11 -36 -3 -2 -1 -5 -2
1532261638484305 4 2 28 13 -1 -18 4 4
1532261638589038 5 23 -23 -18 5 6 2 1
1532261638648864 -2 -2 41 -1 -7 -26 -8 -2
1532261638663825 -1 1 41 1 3 0 -1 -2
1532261638685766 -7 -1 6 -13 -9 -11 -3 -3
1532261638730646 0 5 -28 -22 -10 -4 -2 -2
1532261638768544 -1 2 -18 0 8 14 2 0
1532261638783504 2 -12 3 -4 3 1 1 1
1532261638798464 -4 -1 -38 19 -3 1 -2 -4
1532261638828384 -1 -7 17 -2 2 30 -1 -1
1532261638888224 0 5 15 0 1 -4 2 1
1532261638963024 -1 -42 -3 -3 -3 -11 1 -5
1532261639023862 -2 -18 -3 6 3 9 6 -23
1532261639053782 -11 -33 -6 -7 -4 -18 13 38
1532261639075732 -17 22 -2 -4 -2 7 39 -37
1532261639090683 -10 14 -6 -6 -12 -21 -40 -20
1532261639113621 -21 -89 -9 -4 9 3 -16 -12
1532261639150523 1 37 4 5 0 13 18 2
1532261639235296 6 116 6 -1 2 -11 -27 -15
1532261639256240 -7 -101 -25 -6 -3 14 60 13
1532261639286160 -2 57 -9 -7 -12 -5 -6 -3
1532261639301120 -9 -4 -1 4 3 -8 -51 10
1532261639338022 -2 -35 1 2 3 8 34 -2
1532261639367941 -10 -128 -8 -3 -2 5 20 -17
1532261639383901 0 16 4 6 6 -6 -4 -10
1532261639405840 -3 15 8 -3 -9 5 -14 7
1532261639420800 10 35 18 5 1 -2 1 51
1532261639443738 -4 -82 -20 -5 -4 4 6 -2
1532261639465680 2 13 2 -2 -5 -9 -56 -11
1532261639480641 -8 7 -11 -3 -5 -12 -7 -18
1532261639495600 -5 40 10 1 0 -3 -13 -22
1532261639510560 -21 -8 6 -9 -8 -8 41 -39
1532261639525520 13 7 9 -2 -2 -6 -15 16
1532261639563419 21 4 17 2 -2 -12 -59 6
1532261639586363 -8 -5 -10 -6 -3 0 58 0
1532261639601317 3 -42 -11 -2 -2 -7 -30 4
1532261639623258 7 -35 11 2 -2 -2 -26 9
1532261639646197 -1 24 14 2 2 -1 11 -6
1532261639668139 -5 -34 -7 2 1 1 15 12
1532261639706037 -10 22 -11 1 3 9 26 -8
1532261639735957 1 83 0 -1 -2 -4 -28 5
1532261639758896 10 15 3 2 -3 0 28 5
1532261639795810 -7 -25 -14 -4 -4 -8 -94 -15
1532261639810757 -7 -28 -10 -2 -1 -2 -2 -10
1532261639826715 -17 -45 -1 -4 -1 -12 -38 12
1532261639848656 0 22 19 4 0 -3 29 -40
1532261639863616 3 15 -1 -6 -3 -8 -16 -8
1532261639900517 -4 29 -3 -3 -2 4 47 0
1532261640006235 3 -21 -17 -4 -4 1 18 46
1532261640028176 14 5 10 3 3 -1 12 34
1532261640058096 -8 -7 4 -1 -4 -3 -5 -18
1532261640133893 1 48 11 7 0 -10 -5 -13
1532261640275515 1 9 9 -2 -1 4 -7 14
1532261640313413 1 -38 -11 1 -1 1 13 1
1532261640336352 0 -32 -5 -1 0 -5 -22 -7
1532261640403173 -1 23 24 -3 -2 -1 3 4
1532261640500913 -3 -23 -18 -7 -6 -4 -2 -1
1532261640650512 -3 0 -44 -4 6 -1 -1 0
1532261640688410 -4 9 -48 -9 -6 -2 1 -2
1532261640778754 -36 -2 3 -2 0 2 -11 -14
1532261640875495 7 -25 1 4 -1 1 0 -11
1532261640936333 2 -16 31 -3 3 6 -2 -11
1532261641011132 21 -41 10 -2 -6 -3 13 13
1532261641138798 -13 2 21 -1 -1 0 0 -17
1532261641183671 -11 0 31 7 1 0 -6 -7
1532261641243511 -3 14 -22 -4 4 3 1 23
1532261641311330 -13 -8 -1 3 3 7 2 -9
1532261641416049 -11 21 1 1 -3 -1 -3 -9
1532261641437991 -18 10 -8 1 -2 2 8 18
1532261641475890 16 0 9 -4 -6 -5 -6 15
1532261641513788 -23 -9 33 -8 -2 -1 -3 -23
1532261641648428 -28 -16 -17 2 0 -2 2 2
1532261641678348 9 -19 -94 -9 -2 0 0 -5
1532261641880807 -11 11 16 -9 -4 -6 -4 -6
1532261641970567 -11 14 -3 3 4 9 -2 -4
1532261642000487 -1 -14 -9 3 -1 -11 4 1
1532261642046364 -12 0 -54 -2 -1 1 -1 -3
1532261642076284 -5 -13 3 -1 -1 6 1 6
1532261642098225 0 -12 48 2 0 1 7 0
1532261642136125 0 -13 14 -1 -3 -1 13 8
1532261642166044 1 16 5 -2 -3 -1 -8 -3
1532261642210924 -15 -6 12 2 0 -1 -2 -2
1532261642293703 3 -33 1 2 1 0 0 3
1532261642323624 9 9 20 4 0 0 -3 0
1532261642338585 -21 -73 22 -4 -7 -7 -4 -6
1532261642406419 -3 19 -3 7 -6 -1 -1 0
1532261642473223 -8 -62 -52 -31 7 2 1 0
1532261642533063 0 6 2 -13 -6 -3 -1 1
1532261642577943 1 5 -6 -2 -1 0 -1 0
1532261642593917 16 32 11 70 15 5 3 8
1532261642608859 -2 -27 27 -10 0 0 0 2
1532261642645761 -11 -34 -2 42 21 0 -1 -1
1532261642675681 -2 9 -5 -13 -7 -2 -1 -1
1532261642713580 1 -12 -9 -1 0 -1 0 1
1532261642728540 3 48 -9 -1 -3 -3 -3 -1
1532261642811319 -2 -4 -1 -19 -9 -3 -4 -2
1532261642886119 -1 -11 -13 5 2 -2 0 -2
1532261642945959 1 2 4 1 0 -2 1 0
1532261642960919 -1 -3 0 -1 -1 -1 1 -2
1532261642990839 4 6 0 8 -1 -4 -1 -2
1532261643013777 -3 -13 3 -13 -5 -2 -1 -1
1532261643043697 -2 -12 -4 0 15 10 1 -2
1532261643065639 -17 -71 -1 -16 -12 -10 0 -4
1532261643095558 10 54 6 -13 -14 -6 -2 1
1532261643125479 -2 -35 -23 10 -27 -2 -1 5
1532261643140439 3 -2 31 24 22 25 3 20
1532261643171356 -3 -64 -4 -9 11 6 -2 8
1532261643201285 4 88 41 -12 7 -10 -6 -13
1532261643231195 3 -8 31 19 -11 -24 -10 -2
1532261643253137 -12 74 29 16 27 4 -37 -29
1532261643283057 13 -23 -35 -2 -40 -12 -5 5
1532261643327936 7 -61 -12 -22 2 6 2 8
1532261643365836 -4 27 4 14 11 12 -33 -4
1532261643388774 -2 -37 3 2 -4 5 5 0
1532261643418694 24 43 5 -9 -3 3 12 15
1532261643440636 -11 15 48 -6 15 -2 -1 -7
1532261643455605 -3 10 29 25 4 1 -1 -3
1532261643470555 -7 7 -8 0 -3 -4 2 -2
1532261643500476 -6 -10 -61 3 10 5 4 0
1532261643531393 -4 15 -28 -5 5 2 24 -8
1532261643553334 2 10 13 -7 -5 -10 -48 0
1532261643576273 -2 6 -8 1 11 1 -1 -1
1532261643613174 1 -3 -9 -6 -8 -3 -15 -13
1532261643651073 8 -3 -16 -8 -7 -7 0 11
1532261643703933 4 12 -3 -14 -9 0 11 10
1532261643757788 12 -7 -3 7 0 -2 -1 10
1532261643785713 12 -16 11 1 1 -6 -19 15
1532261643809649 -24 10 27 2 -3 -8 -64 -19
1532261643875473 11 9 5 3 1 8 16 22
1532261643958251 15 24 15 15 1 0 8 13
1532261644033052 -14 -13 -19 -7 -3 23 -6 -11
1532261644070951 2 22 -2 -5 0 6 63 5
1532261644093889 -24 -3 -22 -12 1 -2 -61 -12
1532261644130790 -1 -11 -20 44 22 4 -14 13
1532261644160710 0 1 -35 1 1 0 -4 1
1532261644235510 4 -14 -29 -2 -1 2 7 79
1532261644266428 -15 -12 8 -5 -5 -5 -22 -21
1532261644312305 1 24 10 10 0 1 -13 -24
1532261644341227 -19 -35 3 -5 -3 1 -6 -38
1532261644378129 6 10 -2 7 4 1 26 2
1532261644484844 -21 3 -11 -10 -10 -19 -96 -79
1532261644535707 -13 -53 -53 -17 -9 -12 -41 -28
1532261644558646 4 45 -30 0 -1 -1 -2 -8
1532261644573606 -3 8 65 8 2 1 2 -8
1532261644595547 8 11 24 7 7 6 11 17
1532261644649403 4 -12 -5 3 1 -1 10 -10
1532261644731184 1 -1 -23 0 -4 1 0 -2
1532261644791025 6 0 -3 -6 -3 7 20 30
1532261644858844 0 -4 -4 1 -1 2 -2 -1
1532261644888763 2 1 2 10 2 -1 1 1
1532261644910705 -1 -1 -6 -11 -1 -3 -5 -3
1532261644955585 -2 -7 -13 1 12 3 -1 -1
1532261645015424 1 1 -3 -19 -7 -1 0 0
1532261645038363 1 28 -2 21 -6 5 1 1
1532261645068283 2 17 -13 1 -6 -3 -2 0
1532261645098203 -1 6 2 0 -12 -3 0 -2
1532261645121142 -1 2 -2 1 -2 6 0 -1
1532261645151062 -2 -14 -7 -8 5 2 -1 -1
1532261645203921 -1 -12 5 -1 6 3 0 0
1532261645233840 -1 3 -4 0 2 -1 0 -1
1532261645315622 -2 -4 1 -3 -2 1 0 0
1532261645345542 -1 -2 12 2 1 0 -1 -1
1532261645360502 -2 -3 6 -2 -5 -2 -1 0
1532261645383441 1 7 13 -5 1 0 0 0
1532261645421340 -1 -8 31 -1 1 0 -2 -1
1532261645466260 -1 -12 -10 -1 -1 -1 -2 1
1532261645488202 -7 -48 -12 -2 -3 1 -1 -3
1532261645503162 -6 -1 23 3 -1 -4 -2 -2
1532261645526101 -2 1 3 -1 0 0 -2 -3
1532261645563004 -4 -23 -67 -10 -2 0 -1 0
1532261645585940 1 9 10 -1 1 -4 -2 0
1532261645608880 1 -3 -7 -5 -3 -1 1 -1
1532261645645780 1 16 0 -1 0 0 -3 -2
1532261645675701 -4 9 0 0 2 1 0 1
1532261645705621 -4 -9 -15 -9 -5 -1 -2 -1
1532261645743520 1 -5 18 -10 1 0 0 0
1532261645796378 0 -3 1 2 -1 1 2 -1
1532261645841258 2 -9 -27 1 1 -2 0 -1
1532261645871178 3 5 0 4 0 0 2 1
1532261645908080 0 13 21 -28 -8 0 -1 -2
1532261645931018 -7 10 0 1 -3 -1 -2 -2
1532261645945978 2 11 0 11 1 -2 -1 -2
1532261645960938 -3 -12 5 -9 -2 -1 -1 -2
1532261646058676 -3 4 2 -4 -3 0 0 0
1532261646088597 2 -3 -20 2 1 1 1 1

1532261646133481 43 15 36 11 2 -10 7 -6
1532261646194314 -2 6 -76 -18 -10 -10 -5 7
1532261646216256 -2 -19 81 3 0 -7 1 3
1532261646253157 -5 -25 -7 -25 -11 0 -1 7
1532261646312997 -2 8 29 0 -2 -2 0 3
1532261646373834 2 -9 -18 -14 -6 0 0 10
1532261646411733 -2 -1 -10 -21 -4 -3 -2 -3
1532261646500496 -1 -5 -12 -1 -4 -2 -1 1
1532261646523433 1 -4 0 2 -2 3 0 -1
1532261646561333 -3 -2 4 -2 -1 0 1 -1
1532261646606217 -3 7 48 4 1 -2 -2 -1
1532261646666053 0 -2 -6 -6 -1 -1 2 -1
1532261646687994 0 9 33 4 -1 0 1 -1
1532261646710933 0 -4 -8 -1 0 0 1 1
1532261646764789 -4 -10 9 -3 -2 -2 -2 -5
1532261646778751 3 -3 -15 2 3 0 -1 1
1532261646860533 -3 -6 -11 1 -1 2 -1 -1
1532261646906426 0 -3 3 -3 0 -3 -4 1
1532261646951305 0 0 6 -3 -2 0 1 2
1532261646988206 0 0 1 0 0 0 1 -1
1532261647003167 0 -4 -3 -4 -1 0 1 1
1532261647041066 -2 1 -4 1 0 -1 0 0
1532261647063019 -1 -4 -7 -1 -1 0 0 -1
1532261647092926 -1 3 13 -1 -1 1 -1 -3
1532261647123574 1 1 -3 -19 -3 -1 -1 -1
1532261647160475 3 29 6 -4 -1 -3 -1 0
1532261647243808 17 17 -13 -3 2 1 4 8
1532261647288688 20 57 -18 3 -1 2 3 10
1532261647303648 -2 8 8 -4 -4 -2 -1 -1
1532261647333568 -6 -52 -19 -1 0 0 -1 -5
1532261647355510 -6 54 34 1 3 2 1 0
1532261647408383 -7 -8 -16 0 3 1 1 -5
1532261647438288 2 4 -26 2 -1 -2 -1 -2
1532261647468235 2 -11 15 -3 -2 -4 0 0
1532261647625814 2 8 15 1 -1 0 1 2
1532261647663713 1 -26 -8 2 -3 0 -1 -1
1532261647678673 -13 11 17 1 1 2 1 0
1532261647723553 -13 -20 -4 -10 -3 1 0 -4
1532261647760454 6 20 13 -8 -2 -4 -1 -2
1532261647821307 -2 -7 7 -1 -6 -3 -4 -2
1532261647874150 -3 -5 -31 -2 2 0 -2 0
1532261647896091 -3 -8 -45 -1 2 0 2 -1
1532261647940971 -6 -4 16 -2 -1 -2 -1 -2
1532261647970891 -4 -1 4 -6 -4 2 2 -1
1532261648023750 -5 11 -2 -2 1 0 -1 1
1532261648113528 -9 -5 -4 1 0 3 -1 3
1532261648135469 -8 5 56 4 0 5 1 0
1532261648173368 -12 -18 -16 0 0 1 0 -1
1532261648196307 4 -6 -15 3 5 1 -1 2
1532261648233207 4 1 27 -2 -3 -6 -3 -2
1532261648271106 -4 3 16 1 -2 2 -2 -2
1532261648420722 -1 -1 -13 -7 -5 -2 0 2
1532261648444643 0 4 -30 9 2 0 1 3
1532261648473567 0 -4 -25 -2 -1 1 0 -1
1532261648503499 4 35 11 1 -2 -4 -1 -2
1532261648586263 10 -18 -14 -2 -1 1 0 -1
1532261648631144 -10 2 12 7 0 0 -1 -5
1532261648706941 -5 2 31 2 3 -3 -3 -6
1532261648750824 2 2 1 -4 -3 -1 1 0
1532261648803683 0 -3 -32 -5 0 2 1 -1
1532261648825624 0 0 14 2 0 -1 -3 -1
1532261648878483 0 1 12 1 -3 1 -2 0
1532261648932338 -11 17 -14 -2 -1 2 0 3
1532261648968242 12 -21 25 4 0 0 2 -2
1532261648985197 1 -11 -30 1 -2 0 0 0
1532261649006157 -5 8 9 -2 -1 -3 -3 6
1532261649036061 1 16 25 4 -1 2 -1 -5
1532261649065981 -5 13 15 3 0 -4 -2 -2
1532261649080941 5 -12 15 3 0 -7 -5 -3
1532261649140805 -6 -7 -9 -4 -3 2 1 -2
1532261649163720 11 -4 -12 0 -1 0 -1 4
1532261649193651 3 7 8 11 1 10 1 1
1532261649223562 -7 -1 10 -4 -3 -2 0 -7
1532261649253488 -6 -27 -17 -2 -2 -1 -1 -7
1532261649276418 8 22 20 1 -1 0 2 6
1532261649298361 8 7 5 -1 0 1 2 1
1532261649313319 5 -4 -15 -5 -3 -5 -1 2
1532261649328281 -1 6 -1 7 1 2 2 0
1532261649358217 -8 7 -20 -3 -1 1 1 -2
1532261649381139 -5 -1 -5 0 0 -1 0 0
1532261649426036 -8 -12 -54 -2 0 -2 2 0
1532261649485859 -12 -9 6 2 0 -2 -7 -6
1532261649524754 2 14 -8 -1 -1 1 1 -3
1532261649545698 -3 -1 11 -1 4 -1 -3 -3
1532261649568637 0 -4 2 3 4 -3 -4 0
1532261649598557 3 2 9 -4 -3 -3 -3 0
1532261649628477 3 5 -13 0 2 -1 -4 -1
1532261649673371 11 51 -7 -2 -2 -2 0 1
1532261649718237 2 21 14 5 2 -1 0 4
1532261649763117 1 -3 56 1 1 -3 -1 -5
1532261649807997 2 8 -28 -12 -3 0 -1 -4
1532261649845895 7 3 -11 -6 -3 -2 2 4
1532261649883793 12 17 -11 0 2 0 3 9
1532261649958594 2 -7 -18 1 -1 -3 0 0
1532261650018434 5 -1 -6 1 -1 0 4 -7
1532261650063314 8 18 -10 -10 -1 -1 -1 1
1532261650095229 4 1 -14 -2 -1 1 -2 -1
1532261650116173 14 4 -5 4 -2 -3 0 7
1532261650146093 1 -9 -24 -7 -2 2 -4 0
1532261650176013 -3 -7 9 23 9 0 2 0
1532261650220892 1 -28 -8 -1 -1 3 -2 -2
1532261650318631 3 4 -32 -1 0 9 4 -1
1532261650350546 -3 -19 -11 2 0 2 -1 -2
1532261650393432 2 16 -7 -13 -2 -4 -1 -4
1532261650408392 3 6 -6 -8 -3 1 0 3
1532261650453271 1 -15 1 -2 0 2 -1 4
1532261650506139 -9 1 -38 3 2 2 -1 -7
1532261650528072 -9 4 5 -5 -9 -4 -2 -2
1532261650565970 10 0 14 16 2 16 -1 7
1532261650588908 -2 7 10 -19 -10 -10 -3 -9
1532261650603868 -2 -6 13 27 14 -4 9 4
1532261650618829 6 3 17 0 -5 -2 -6 2
1532261650634785 -4 -25 0 6 9 2 -4 -3
1532261650649746 9 -8 12 -1 1 3 3 5
1532261650678668 8 -38 -51 3 -2 -2 1 4
1532261650700616 -18 39 25 9 0 -3 0 -5
1532261650760450 13 11 -29 4 -1 4 -1 0
1532261650776412 15 21 1 -9 -1 -1 0 2
1532261650828268 -4 -7 -3 2 -4 -10 -2 0
1532261650896087 -4 11 12 -5 2 -1 -1 -2
1532261650911047 -6 -9 -72 -8 -3 0 2 -3
1532261650949943 -3 9 30 1 -4 -3 1 3
1532261650978866 -2 -2 -17 -4 -1 -1 0 -1
1532261650993826 4 29 19 4 0 2 2 0
1532261651023746 1 -13 -11 0 -1 -3 1 3
1532261651045686 1 -13 29 0 -1 1 -3 -2
1532261651098546 -13 -8 17 -4 0 0 0 -2
1532261651113506 -2 5 -5 -10 -5 2 -1 -1
1532261651151409 -10 -10 -28 -11 -4 -3 1 -3
1532261651173345 -12 -3 31 7 4 4 1 -1
1532261651220221 1 6 24 -2 0 -2 0 -4
1532261651242162 -22 1 -25 8 4 0 -2 0
1532261651263106 3 -4 6 0 0 3 -1 -2
1532261651278065 -13 -8 7 2 0 5 2 1
1532261651301005 1 5 -4 3 4 -3 2 -8
1532261651322946 7 18 -2 -1 0 0 -1 11
1532261651345884 -12 -19 22 7 -1 3 -4 -5
1532261651375804 0 11 -82 -19 -8 -4 -3 1
1532261651413704 -5 -20 9 -40 -8 0 -1 -6
1532261651435644 -5 -30 40 14 3 1 0 -9
1532261651482519 -6 10 -14 -1 0 5 -2 0
1532261651496490 0 1 -16 0 0 -1 0 1
1532261651518422 6 28 -14 0 -1 -1 -2 4
1532261651541367 1 -14 -8 14 7 3 2 0
1532261651563303 0 22 20 3 2 0 -3 2
1532261651578262 -2 7 -27 -6 1 -1 1 0
1532261651601201 -6 1 -25 -5 -5 1 23 0
1532261651631122 -3 1 0 -4 -2 0 -10 0
1532261651668023 -1 -11 -44 2 -2 -1 -4 1
1532261651697943 0 2 -9 -5 -1 -4 -3 2
1532261651729857 5 -6 24 -7 -3 -2 -1 0
1532261651743820 -8 -6 -103 -8 4 1 -2 -1
1532261651780728 -5 -21 16 11 3 -3 -5 -2
1532261651804667 -15 -50 12 18 6 5 0 -3
1532261651818620 8 -10 -6 -4 -2 0 3 -1
1532261651833585 -6 -10 -66 16 3 2 0 -1
1532261651855521 2 3 1 0 1 -3 -4 0
1532261651901413 4 24 13 3 0 0 1 -1
1532261651938300 9 3 -10 -2 -3 2 -1 1
1532261651968243 -3 -2 -3 -2 0 -7 0 2
1532261652006121 4 22 -14 0 3 11 1 2
1532261652029057 -1 -17 -93 -10 -2 2 -1 1
1532261652050998 -3 10 88 16 1 4 0 -2
1532261652065959 -3 -15 7 8 3 -2 1 1
1532261652080919 -1 -15 -84 -20 -6 -14 -2 -8
1532261652110839 -6 10 -32 0 3 3 2 -2
1532261652133778 1 -11 88 14 3 1 1 1
1532261652155719 -1 0 -2 -4 -2 -3 1 1
1532261652208578 -5 -42 -45 -23 -5 -1 0 -1
1532261652230518 1 -7 -11 -2 -2 -3 -1 0
1532261652260439 0 -15 42 12 8 2 0 0
1532261652291356 -4 4 8 11 5 -4 0 -2
1532261652335878 -2 -3 1 -2 -1 1 0 -3
1532261652365798 1 1 15 2 2 2 1 0
1532261652403697 2 4 -8 2 -3 -1 1 1
1532261652418657 0 -2 -37 -1 0 0 -1 -1
1532261652433621 0 9 -2 -2 0 -2 0 0
1532261652493457 0 -3 11 -1 -2 -1 -2 -1
1532261652532353 0 2 0 -6 -5 0 0 -2
1532261652546316 1 2 13 -5 -2 1 0 0
1532261652576236 -3 2 30 6 -1 -1 1 0
1532261652598176 1 7 -4 8 5 2 0 0
1532261652621116 1 -9 -31 -2 0 0 1 1
1532261652643057 1 7 14 1 -1 0 0 0
1532261652665995 -3 -4 4 0 -2 -1 0 -1
1532261652718854 -1 -40 -5 -8 0 1 1 0
1532261652748774 -1 -7 -7 -4 -3 -3 0 -2
1532261652763734 3 38 -5 1 -1 -1 -1 -2
1532261652793654 -3 13 -11 4 0 -3 -4 -3
1532261652823574 0 8 -26 4 4 3 0 -1
1532261652853494 0 1 -6 5 -1 -1 0 1
1532261652898374 -4 16 12 -8 -3 -2 -1 -1
1532261652913333 -3 -28 -4 9 4 0 0 1
1532261652943254 -1 -14 32 15 3 1 -2 -1
1532261652973174 2 -16 -66 0 1 -1 1 8
1532261652996112 0 14 25 -1 -1 -2 0 0
1532261653018054 -2 -8 17 -5 -2 -3 -2 -4
1532261653047974 -3 -14 -22 -5 -1 -2 -2 -37
1532261653070913 -8 -13 2 -3 -1 0 -2 4
1532261653093851 -13 20 2 1 -1 6 9 -11
1532261653138731 -5 -22 -1 1 1 6 -6 -6
1532261653160673 4 -10 23 2 -1 -5 -3 -1
1532261653183612 1 -5 -73 -17 0 1 -3 -3
1532261653205565 1 -16 -7 1 1 0 -2 -3
1532261653220512 -1 3 -8 -6 -2 0 -1 -1
1532261653281350 -2 -25 24 3 1 2 2 -2
1532261653326229 0 20 -19 -1 -1 -3 1 0
1532261653393051 -1 13 11 3 1 1 -1 2
1532261653460870 -2 0 -10 4 2 1 0 -4
1532261653483808 -1 -11 -8 1 -1 -3 -4 -3
1532261653513729 -5 -14 -3 5 3 2 -1 0
1532261653543649 0 3 2 0 4 1 1 1
1532261653580550 0 -12 -10 -2 0 -1 0 2
1532261653610470 0 -5 -17 -3 -1 0 -2 -1
1532261653625430 2 7 -13 -2 -1 -2 -1 -3
1532261653648368 1 7 20 5 2 -7 4 1
1532261653671307 -3 -17 12 4 1 0 -3 -1
1532261653693249 2 5 -20 -1 -4 1 0 0
1532261653753089 -3 -2 7 -5 -2 -1 -1 -1
1532261653768064 -1 -9 -2 3 -1 0 2 -1
1532261653797968 -1 2 -4 -10 -1 -4 -2 -2
1532261653820907 0 3 -2 -11 -4 0 1 0
1532261653873766 0 2 0 3 0 1 0 -1
1532261653895714 -7 -4 -3 -6 -5 -2 -1 -3
1532261653918647 0 -1 6 0 2 1 0 -1
1532261653948566 -1 4 -1 -3 -3 1 -2 -2
1532261653970506 3 9 3 9 3 1 0 0
1532261653993445 9 3 3 5 7 3 1 3
1532261654038326 -16 -33 -28 6 0 -2 -4 -13
1532261654061264 -31 -42 -54 -53 -3 -5 -7 -18
1532261654098169 26 32 35 13 1 2 2 3
1532261654121104 6 5 7 26 3 1 3 10
1532261654151024 11 44 41 61 18 9 62 5
1532261654195904 3 14 6 -15 -16 -10 -8 1
1532261654293643 4 11 5 -2 11 17 -16 -2
1532261654315585 5 -29 3 6 3 5 38 14
1532261654391381 -15 -91 -19 -12 -10 -7 -63 -15
1532261654496101 -3 -45 -16 -4 -1 1 -56 -6
1532261654534998 -5 -21 -2 -2 -9 -25 -26 -4
1532261654570918 -1 13 -7 -6 -1 4 -6 0
1532261654593840 -8 -17 -5 -5 -1 -3 -13 -6
1532261654668640 18 25 7 1 1 9 -19 0
1532261654758400 -22 -51 -13 -8 -7 -3 2 -9
1532261654826219 2 -18 -1 -2 3 20 37 -7
1532261654886059 18 -18 2 5 2 3 -3 9
1532261654937920 4 6 -9 -6 -6 -16 -32 5
1532261654983797 -1 -33 -11 -5 -4 0 9 13
1532261655013718 -16 -23 -1 3 -2 -5 -10 -13
1532261655238117 -5 4 0 0 0 0 -25 -4
1532261655373755 4 39 11 -3 1 8 18 -7
1532261655418634 -3 1 2 4 0 -6 2 -1
1532261655440576 0 28 9 -2 1 4 9 6
1532261655500416 -6 -26 -18 1 -4 -3 -12 2
1532261655561253 -5 -79 -24 0 1 1 1 -5
1532261655583194 -1 -28 -5 -19 -5 -5 21 2
1532261655598155 -5 -50 -10 -2 -2 -11 -26 -3
1532261655628075 -8 4 0 6 0 -4 -9 6
1532261655657995 0 15 -3 -6 -3 -8 -34 -8
1532261655680933 -2 -19 -2 7 -4 -3 5 -5
1532261655695893 -6 -33 2 5 10 8 -25 0
1532261655725813 4 8 -1 -6 -5 -12 -13 3
1532261655770693 -2 -44 8 6 2 -4 44 7
1532261655800613 -1 -27 1 0 2 6 22 -2
1532261655830533 3 -13 -3 3 2 4 1 -1
1532261655853472 -6 6 3 0 0 -3 -9 -5
1532261655898352 2 44 13 11 4 5 23 6
1532261655921290 0 -8 -8 -11 -5 -10 -6 -36
1532261655936250 -3 7 1 3 -1 -1 1 6
1532261655958192 4 -3 -2 -2 -1 0 -2 6
1532261655981131 -1 16 -4 -3 0 0 5 -2
1532261656032992 3 13 -2 -2 -2 -1 2 -1
1532261656070891 -1 -12 -54 -1 0 2 2 2
1532261656108789 0 0 11 -4 -1 0 -1 -1
1532261656145691 -5 -2 -67 0 2 -1 0 0
1532261656175610 4 13 -80 -4 -3 -1 -1 2
1532261656190570 0 -3 17 4 3 2 1 1
1532261656205530 0 21 -10 1 -3 0 -1 0
1532261656228469 4 16 -32 -5 -3 -4 -2 0
1532261656258389 -13 -13 -92 -5 -3 -5 -2 -2
1532261656282331 -2 5 18 1 -4 -6 0 0
1532261656303269 -4 -9 -4 -6 -3 3 -2 -4
1532261656333189 2 -2 -23 -3 -3 -4 0 1
1532261656356137 -13 -8 -8 2 1 -1 0 -2
1532261656386048 2 -2 7 1 6 2 -1 0
1532261656401007 2 -5 3 0 -4 -2 -1 0
1532261656422948 -1 -1 9 -3 -4 -3 -1 0
1532261656453866 1 -1 12 -3 -3 -1 0 -3
1532261656475808 5 8 18 2 3 5 0 1
1532261656520688 -11 -3 3 -1 2 -11 -2 0
1532261656558596 7 5 3 2 4 9 -1 4
1532261656588506 2 -8 -8 -8 -1 5 -1 2
1532261656633386 4 1 8 3 0 2 -2 -2
1532261656678266 -3 -3 -4 -1 -1 0 -1 -1
1532261656731125 3 2 1 3 5 7 2 -2
1532261656768026 -1 0 -8 -4 -3 -4 -2 -4
1532261656784982 -4 -4 2 1 -2 2 -2 -1
1532261656805925 -7 -12 -10 1 2 1 -2 3
1532261656843824 -1 4 -2 0 1 2 -1 -9
1532261656858784 -1 -2 -4 0 -1 -4 1 9
1532261656895685 -1 -3 -3 1 4 1 1 -1
1532261656956523 1 10 0 1 -1 -3 1 1
1532261656978464 -5 1 0 -3 1 0 -1 0
1532261657001409 1 9 17 1 -1 -2 -1 -2
1532261657083183 0 -4 -4 -1 -1 -2 -1 0
1532261657113103 -3 2 7 2 0 4 3 0
1532261657145018 0 -5 -8 1 0 -5 0 -1
1532261657180922 2 1 -2 -2 -1 3 0 0
1532261657211840 1 -2 3 1 0 0 0 2
1532261657248741 -1 -9 -11 -2 -1 0 1 -2
1532261657300602 -1 -3 6 4 3 -2 2 0
1532261657347477 -7 -18 -37 -7 -6 -3 -3 -3
1532261657383380 -4 -11 -30 -2 -1 -4 0 -1
1532261657436239 -2 -20 -34 -2 -2 -9 1 0
1532261657488101 1 -9 -2 -5 3 45 4 1
1532261657615759 5 30 26 7 0 -10 0 -1
1532261657638707 -1 -9 50 -5 4 16 1 1
1532261657668617 2 -2 -28 1 8 14 3 3
1532261657690558 0 20 55 -8 -8 -15 -2 -1
1532261657705519 3 1 -32 1 0 4 -2 -1
1532261657720479 -2 -4 2 -12 -5 6 1 1
1532261657735440 -1 4 -23 3 -8 18 1 0
1532261657766357 -1 -6 37 0 7 -9 -2 1
1532261657788298 -1 -4 -20 -4 -4 -19 -2 -2
1532261657811237 1 -4 -18 -7 -3 4 2 1
1532261657841156 0 -11 -28 -1 1 -6 3 -1
1532261657909995 -1 -11 0 3 6 -2 1 -1
1532261657930938 -2 -6 -32 -2 -8 -11 -1 0
1532261657960858 2 2 -8 1 -2 6 0 -1
1532261658005739 1 5 -27 5 2 6 -1 0
1532261658028677 1 -6 11 -5 1 -4 1 -1
1532261658080538 -1 -6 39 3 -1 6 1 1
1532261658125419 -1 4 -12 -1 5 -2 -1 -1
1532261658156343 2 3 2 -9 -7 2 0 0
1532261658193237 2 3 0 -2 -7 -3 -1 0
1532261658223157 -2 -3 -3 1 -6 13 1 -1
1532261658246096 -2 -4 -8 0 -3 -5 -1 -1
1532261658395695 1 1 2 5 14 -1 3 -2
1532261658418634 -1 -1 2 -3 -6 0 1 3
1532261658485455 2 2 1 -3 -16 -1 1 11
1532261658516373 -9 -3 -2 -2 -2 -4 -1 -11
1532261658561253 4 1 2 0 1 9 -2 2
1532261658621093 -1 0 0 -1 1 8 1 7
1532261658638047 -3 1 0 0 -2 -4 -3 -12
1532261658657994 -2 -2 -1 -3 1 4 0 0
1532261658674949 1 -2 -2 -5 -5 -8 -1 3
1532261658687913 7 0 -3 -1 2 -2 -1 5
1532261658710852 -1 0 -2 -2 -4 -2 -2 -8
1532261658733792 -1 0 0 -3 -2 -6 -1 -8
1532261658755751 -1 0 1 -1 -2 -3 -2 -3
1532261658778672 1 -2 -1 1 2 1 -2 4
1532261658815572 -1 -2 -6 -2 1 -1 2 -3
1532261658860452 -2 1 -3 2 9 3 0 -8
1532261658875413 0 -5 -1 -4 -8 -1 0 0
1532261658951210 -2 4 -4 -19 -4 -12 -13 -11
1532261658973151 6 24 2 0 -8 -3 9 4
1532261658996090 -4 -17 -8 -10 -5 -14 -12 4
1532261659018032 -2 -20 -2 -1 -7 3 5 0
1532261659040970 -2 20 4 -1 5 -2 -21 3
1532261659070890 6 83 0 -3 -3 -3 23 -4
1532261659093828 -2 25 -5 0 -3 -2 -20 -4
1532261659115770 7 11 9 -1 5 11 -9 5
1532261659153669 5 91 1 -5 -2 -3 -10 -3
1532261659175610 22 71 9 1 5 -7 -12 10
1532261659213526 6 -29 -1 2 0 8 51 11
1532261659250427 -7 -36 -1 2 0 1 37 6
1532261659266385 -12 24 -5 -8 -5 -6 13 4
1532261659281344 3 -38 -8 1 -3 -19 -63 -2
1532261659303286 12 17 18 8 1 2 1 7
1532261659333206 -5 48 5 2 0 -7 -44 -10
1532261659363126 4 82 10 6 0 -3 11 2
1532261659408006 -21 -53 -36 -14 -6 -8 13 -11
1532261659432939 0 -55 -9 -4 -3 -3 -10 4
1532261659453883 -7 -11 -4 -4 -3 0 -5 4
1532261659498763 -3 -35 4 -2 1 2 6 -2
1532261659528684 3 0 1 -1 -3 -10 33 3
1532261659558603 -14 -45 -18 1 3 2 -38 -17
1532261659580544 5 23 5 5 7 17 80 5
1532261659610464 14 41 19 5 4 7 25 12
1532261659633403 -3 43 15 2 0 0 -17 -8
1532261659678283 -2 38 -3 3 1 -4 13 9
1532261659776022 -3 -30 -10 -4 -3 1 -95 7
1532261659805941 -3 3 -15 -9 -7 -5 2 -3
1532261659820902 3 -26 -14 -1 -5 -9 -1 49
1532261659880741 0 59 28 9 3 1 3 -58
1532261659895702 13 27 15 1 0 -4 1 -6
1532261659985462 5 -57 5 7 5 1 -22 4
1532261660016378 -1 -21 1 0 1 2 15 9
1532261660046299 7 -60 5 3 1 -3 -8 -4
1532261660069238 5 50 0 -4 -3 -1 2 -8
1532261660113120 -26 -24 -18 -7 -9 -9 -49 -5
1532261660158000 11 10 12 4 0 0 11 2
1532261660202880 4 5 0 0 4 3 22 1
1532261660300619 1 0 -8 -7 -3 -1 1 22
1532261660338517 0 28 28 2 0 0 9 -6
1532261660383397 0 -17 -17 -1 0 0 4 -1
1532261660451216 1 -7 -40 -2 0 2 4 8
1532261660547958 0 -4 7 6 1 0 -1 -2
1532261660600816 3 4 7 9 5 2 0 -1
1532261660623755 -10 -21 -2 -7 -1 -2 -13 -3
1532261660675616 1 -17 19 -11 -6 -2 3 1
1532261660698555 13 6 1 9 -2 -3 4 2
1532261660735456 1 29 -57 -4 2 0 -22 -9
1532261660781333 -6 -71 -11 7 2 2 -4 1
1532261660833195 3 -6 -2 -1 9 4 -6 -2
1532261660863115 12 -33 62 -11 -10 -5 -10 -8
1532261660886053 7 74 0 -5 -8 -2 -4 13
1532261660915973 -2 13 7 6 -1 2 -3 -11
1532261660983792 -10 2 52 -7 -4 -20 2 -28
1532261661050613 -9 13 19 8 -1 0 6 4
1532261661178272 -5 3 -31 -7 -4 -4 -2 2
1532261661201211 3 -6 -31 -6 -1 1 -14 -6
1532261661217168 10 0 18 5 11 11 3 2
1532261661231131 -10 30 15 13 0 4 -3 -2
1532261661350810 7 8 35 -14 -5 -2 -4 9
1532261661380731 -4 -38 4 4 1 -3 0 23
1532261661403669 7 -27 -17 1 2 2 0 -7
1532261661455530 6 -17 -24 2 1 2 -4 -2
1532261661478469 3 -44 -16 0 3 0 -1 1
1532261661516370 -5 30 -3 -2 -1 -3 -1 -6
1532261661531328 27 -24 19 3 1 2 0 -13
1532261661583189 -9 -2 13 14 0 1 13 3
1532261661621088 2 -7 6 1 3 -1 -2 -10
1532261661680928 -7 1 -6 -3 -3 -3 -5 5
1532261661703867 -2 16 36 -4 -1 1 -7 1
1532261661778668 2 -12 4 -3 -3 0 7 -2
1532261661815570 2 8 29 8 -1 2 -1 0
1532261661921285 -7 2 -66 4 1 -1 5 1
1532261662160645 -1 -22 2 -9 -9 -3 -4 -2
1532261662288304 -3 -4 1 -7 3 -9 1 -2
1532261662350138 3 56 10 -6 -5 0 0 0
1532261662371082 -1 6 7 -9 -11 0 0 1
1532261662386043 2 -3 -2 1 1 0 -2 -3
1532261662401009 -8 5 12 1 -4 -3 -5 -3
1532261662430922 -5 -21 15 15 24 2 4 -6
1532261662460842 -2 -34 9 9 -12 -5 -1 12
1532261662483781 -1 -33 -35 -3 -6 -1 -1 1
1532261662522677 -4 27 -7 -2 3 -1 -1 -8
1532261662633381 -17 0 -4 8 -4 -5 -2 5
1532261662657317 -33 16 3 -3 -1 -1 -20 11
1532261662716160 -5 -30 -7 7 9 3 11 -17
1532261662835839 10 -2 -13 5 2 -1 3 7
1532261662963499 7 12 -3 -5 -4 3 11 -10
1532261663100133 -35 -6 -20 0 1 3 47 25
1532261663159972 -13 -7 -24 -10 -7 -8 -8 3
1532261663180917 -3 -1 15 9 9 9 5 3
1532261663203855 -7 2 47 1 -5 -3 -4 0
1532261663225797 -9 -34 -85 -14 -4 4 -4 4
1532261663270677 23 -5 -34 -1 5 18 74 2
1532261663315557 -4 16 20 2 1 8 12 -7
1532261663383375 -5 -10 -12 -12 -3 -8 -43 -27
1532261663481114 -2 -13 -53 -2 1 9 2 35
1532261663518015 1 22 -64 0 3 2 -13 -28
1532261663683573 25 16 25 21 6 0 8 17
1532261663713492 2 -13 17 -3 4 -4 -8 -5
1532261663737428 12 5 -5 27 11 8 15 8
1532261663788307 -1 -4 3 -13 -12 -3 -3 -1
1532261663803253 4 -1 -5 9 5 2 0 1
1532261663841151 6 2 -21 6 0 4 1 3
1532261663893012 0 2 -2 1 2 0 0 -1
1532261663953850 -1 -3 5 -1 -1 3 0 -1
1532261663990751 -2 -9 0 -17 5 2 -2 1
1532261664050591 7 13 -15 -8 2 0 1 2
1532261664088491 3 9 -7 -2 -4 -4 -1 -1
1532261664110431 -2 10 4 2 -6 -2 0 -2
1532261664208170 -1 -13 2 3 1 2 -1 0
1532261664231108 -1 -3 -17 -2 -2 0 -1 0
1532261664282970 0 4 8 -1 -5 -2 0 0
1532261664298933 0 -3 -11 -1 3 -2 -3 -1
1532261664335829 -2 0 -13 -2 -2 -2 -1 -2
1532261664395668 0 -1 7 -2 -1 -1 0 1
1532261664463502 -1 -3 -8 -4 -1 0 -2 -1
1532261664523327 1 0 -26 13 4 2 1 -1
1532261664546265 -4 -2 -3 -6 -6 -3 -1 -2
1532261664570202 0 -12 -18 -4 -3 -3 1 -2
1532261664688885 2 -2 -15 -4 1 1 1 1
1532261664748724 6 6 -28 1 0 9 6 0

1532261664853444 -2 1 -7 2 3 1 2 10
1532261664913284 6 15 53 11 0 1 4 -9
1532261664958380 -8 -14 42 2 3 -3 0 4
1532261665055562 -13 2 -5 -3 4 -3 -2 4
1532261665146320 1 4 1 6 0 -3 1 1
1532261665213141 1 0 -4 -2 1 -1 3 0
1532261665445520 -3 -3 -1 -4 0 -1 -1 9
1532261665491397 -1 5 19 -7 -6 -2 -4 -3
1532261665535535 2 -7 -26 3 3 0 -1 0
1532261665588393 0 3 70 -6 2 3 2 7
1532261665633274 -2 -2 26 -7 -9 -11 2 -4
1532261665835733 5 -3 -62 -2 13 1 6 2
1532261665895573 0 6 36 22 -1 -8 -4 -3
1532261665978352 -2 -9 -12 -3 -1 -4 -1 0
1532261666076090 3 -3 4 -5 0 -2 1 3
1532261666098032 -10 -4 -8 -7 1 2 6 -3
1532261666121967 1 -1 0 0 -2 -3 -7 -1
1532261666174827 -2 6 2 3 -3 -6 -16 -11
1532261666195770 5 6 3 3 -1 -3 3 7
1532261666240650 0 0 4 5 -2 2 -18 -3
1532261666278549 4 9 -18 8 7 6 34 0
1532261666308468 1 4 -2 -11 -6 -5 -13 -3
1532261666368309 -8 -22 -30 -6 5 4 35 2
1532261666428160 -8 -12 6 -7 -3 -4 -1 -5
1532261666473037 -11 -47 -13 -5 -4 -3 -42 -10
1532261666510927 -10 -33 -8 8 6 -6 -10 2
1532261666600687 1 12 -9 -5 -8 -18 -9 -5
1532261666645580 0 25 4 -4 -2 -11 -15 -3
1532261666713385 -7 -8 -2 -8 -8 -18 -15 -13
1532261666773226 0 -21 2 0 -1 -3 -27 0
1532261666877946 1 45 -7 -1 0 5 -3 0
1532261666968703 8 5 11 8 3 4 3 11
1532261667058463 -7 21 13 11 1 7 23 0
1532261667096362 9 18 7 6 3 0 16 6
