1532180058993021 0 0 -1 -1 -1 -1 0 -1
1532180059015960 -2 -2 0 -3 -2 -1 -1 -1
1532180059052862 -1 0 -1 1 -4 2 9 -2
1532180059085773 0 -2 0 0 -1 -2 -4 -1
1532180059112702 0 -1 -2 -2 -2 1 2 1
1532180059142622 0 0 1 0 0 -2 -2 0
1532180059180520 0 -2 -2 0 1 -1 -1 -2
1532180059194483 -1 -1 -1 0 0 0 15 0
1532180059233379 -2 -1 -1 -2 1 -3 0 0
1532180059260307 -2 -1 -1 1 -1 -1 -6 -2
1532180059292222 -2 -2 -3 -2 -2 -1 -3 -2
1532180059353059 -1 -1 0 0 0 2 1 0
1532180059367022 0 -2 -1 -1 -1 -1 -2 0
1532180059418883 -1 -1 -3 -2 -1 -1 -6 -1
1532180059495678 -1 -1 -1 0 -1 -2 -1 -2
1532180059546548 -1 0 0 -2 0 -1 -3 0
1532180059621349 0 -2 -2 0 -2 0 1 0
1532180059704127 0 1 -1 0 0 0 0 0
1532180059770948 1 -2 0 0 -1 0 -2 -2
1532180059823825 -3 -1 -1 -2 0 1 -6 -2
1532180059845767 0 0 0 -1 1 0 -1 -1
1532180059899622 -2 0 0 -1 -4 -2 7 -5
1532180059921564 -3 -2 -1 0 -2 -1 -2 -3
1532180059930540 -1 -1 0 -1 0 1 3 1
1532180059966444 0 0 -3 -1 -1 -1 -3 -1
1532180059980406 -1 0 -2 -2 -1 0 -2 -1
1532180060003344 4 -4 -1 -3 -1 1 1 0
1532180060034262 0 1 -2 0 -1 -2 -2 3
1532180060086123 -4 -3 -2 -1 -2 -2 -4 -4
1532180060102085 -1 -2 -2 -2 -2 0 0 -2
1532180060124022 -7 1 0 1 0 0 -2 -10
1532180060207798 9 -2 -1 -2 -2 0 -3 8
1532180060245697 -9 -1 -1 -1 -1 -1 -2 -2
1532180060283595 1 0 0 0 -2 -1 0 3
1532180060311521 -5 -1 0 -1 -2 -2 -12 -7
1532180060330470 0 0 1 -1 1 2 -4 -2
1532180060364379 4 0 1 0 -1 -1 2 0
1532180060379340 -3 -1 -2 -1 0 0 12 -3
1532180060402279 -2 -1 -2 0 -2 2 8 0
1532180060416240 1 -2 0 -2 -2 0 0 -2
1532180060469107 -18 -1 -1 -1 -1 28 24 0
1532180060507996 -1 0 -2 -1 -1 -40 -10 -3
1532180060560854 -7 -1 -1 0 -1 -7 2 9
1532180060620695 5 -2 0 -1 -1 4 -10 -2
1532180060625681 5 1 -1 -1 0 -3 1 -2
1532180060695494 -1 1 -1 1 -2 0 -7 0
1532180060739377 -1 -1 -1 -2 -1 -1 -5 -4
1532180060792235 1 0 -1 0 -2 -2 -4 1
1532180060828140 1 0 -2 0 2 1 4 1
1532180060897958 -3 -2 -2 -3 -2 0 -2 1
1532180060920897 -4 0 -1 -2 -2 -9 4 -3
1532180060935857 4 -2 0 -1 -2 8 -10 2
1532180060956801 -1 -4 -3 -1 0 3 3 -7
1532180061040577 3 1 -1 -2 -2 -3 3 -2
1532180061055537 -4 -2 -2 -2 -1 -1 14 -4
1532180061078476 -1 0 1 -1 -1 0 0 1
1532180061093441 0 0 0 -1 1 -1 -1 0
1532180061113383 1 -1 -2 -1 -1 0 -1 -1
1532180061198156 0 0 -1 -2 -3 -1 2 -1
1532180061211121 0 -1 -2 -2 -3 2 -9 -2
1532180061302876 -3 0 1 0 -1 1 3 -3
1532180061332796 -2 -2 -2 1 -1 -3 -4 -2
1532180061355734 2 0 -1 -1 -4 -3 0 -2
1532180061391639 -3 -3 0 0 3 -2 -5 2
1532180061438513 -2 -3 -2 0 -3 0 13 -3
1532180061474417 -3 0 -1 -1 -2 -1 -5 -2
1532180061527276 1 0 -1 -1 -1 2 8 2
1532180061550214 4 1 -2 0 -2 -1 4 -1
1532180061700825 3 -3 -2 -1 -2 2 -3 2
1532180061716782 -2 0 -1 1 -1 0 -2 -2
1532180061752686 2 -1 -2 -2 -1 -3 -1 1
1532180061773630 -2 -1 -3 -2 -1 -1 4 -1
1532180061804548 2 1 -1 0 0 -2 -1 -1
1532180061894307 0 0 0 0 4 0 0 -1
1532180062013987 0 -1 -1 3 2 -2 -6 -1
1532180062081805 -3 0 -3 0 0 -1 -8 -4
1532180062156606 0 -3 -2 -6 0 -1 -6 0
1532180062195502 -1 -3 -1 -1 -1 6 1 -4
1532180062277284 -2 0 1 0 -1 3 12 0
1532180062374024 0 -1 0 -1 1 0 -1 -1
1532180062396963 2 -1 0 -2 -1 -1 -6 -3
1532180062433864 -2 -1 -1 0 -2 -2 0 2
1532180062464781 -2 -1 -1 -2 -1 -6 -6 -2
1532180062470766 -1 -2 -1 -2 0 3 1 0
1532180062516643 1 -1 -2 0 1 1 0 -2
1532180062530623 -3 -2 -1 -2 -2 0 0 -2
1532180062554542 -1 0 -2 -1 -3 0 -8 -2
1532180062584462 1 0 -1 -2 -2 -5 -8 0
1532180062599422 -2 -2 0 0 0 3 5 -1
1532180062667241 -1 -1 -2 0 0 -2 -3 -2
1532180062710125 0 0 -3 -1 -2 -1 -2 0
1532180062742041 -2 -3 0 0 1 0 4 0
1532180062769966 0 0 -1 -1 0 -3 -9 -3
1532180062824819 -1 0 0 1 -1 -7 -12 -5
1532180062830802 7 2 -1 -2 -1 1 4 6
1532180062900616 0 -1 3 9 5 -11 -8 -3
1532180062914579 -3 -3 2 7 -10 5 -10 -4
1532180063074152 -6 -4 -1 5 5 -1 -22 -14
1532180063104073 2 -6 -3 -4 19 7 -1 -39
1532180063124019 7 1 3 1 24 10 -23 -43
1532180063199819 -13 -9 -7 -4 -13 -1 -22 -13
1532180063213779 -7 -2 3 26 -6 3 -68 -34
1532180063236718 -4 -3 -2 -3 8 5 2 -8
1532180063259656 -6 2 3 16 12 -24 3 -10
1532180063272622 3 -1 -5 -7 -11 -18 18 8
1532180063296558 4 0 -3 -11 -3 -3 -16 -13
1532180063326478 -1 0 0 5 -17 -33 6 -3
1532180063332461 -4 -7 0 0 20 15 3 -2
1532180063364376 -4 -5 -8 -10 -10 -34 -13 5
1532180063379336 0 4 3 -4 -11 -23 4 -6
1532180063402275 8 -1 -3 -5 13 33 4 -11
1532180063446158 7 0 -3 -19 -18 -31 9 -15
1532180063455134 22 40 3 -3 -36 -54 -42 -2
1532180063484056 -58 43 0 -3 11 23 6 2
1532180063521954 -15 -6 0 2 -7 23 0 -4
1532180063536914 -13 -6 -4 -3 -15 -11 -2 -6
1532180063574813 -23 0 6 3 15 1 -3 5
1532180063620691 -8 -22 -7 -3 -8 3 11 1
1532180063625678 22 -7 -6 -2 12 12 4 1
1532180063662579 11 5 1 -6 -6 -7 -12 -3
1532180063692498 1 -7 -7 -2 -8 -12 -3 -2
1532180063724414 4 -1 3 7 19 20 1 1
1532180063747352 -14 -13 -17 -2 3 3 0 1
1532180063784253 2 2 1 8 -6 5 12 11
1532180063836115 1 6 6 -2 0 11 4 -4
1532180063859065 -3 -3 -3 1 13 -9 -2 -3
1532180063888973 -2 3 1 -2 12 3 1 2
1532180063918894 6 0 -1 -3 -12 -30 -2 4
1532180063941832 4 -16 0 -9 -8 -20 -13 -9
1532180063956792 45 13 -3 3 12 3 -16 -5
1532180063979730 -17 6 1 -1 10 24 5 -4
1532180064009650 -13 6 0 8 -18 5 -4 0
1532180064024616 -2 -3 -1 -4 -7 -2 5 -8
1532180064054531 -10 -2 -3 -11 -9 15 1 -2
1532180064078466 -3 -6 -3 0 30 49 3 2
1532180064099411 20 0 -1 0 -10 -42 -2 5
1532180064129331 -18 -3 -13 -4 -4 -7 -6 -2
1532180064136312 -6 -6 1 -2 -11 -12 1 0
1532180064182189 2 2 0 -1 -4 3 2 -2
1532180064196152 -8 3 2 -1 17 16 -1 0
1532180064210115 8 6 15 0 -8 -34 -16 -5
1532180064242029 -10 -6 0 4 1 1 -6 5
1532180064255991 -18 -5 -4 -2 6 -16 6 -5
1532180064287907 -8 0 3 2 7 8 1 4
1532180064301869 5 5 0 -5 -6 4 -1 5
1532180064315832 2 -4 -4 -1 3 -8 2 1
1532180064324808 -6 -2 2 -3 -42 -15 0 3
1532180064352733 -13 1 2 0 23 10 -5 2
1532180064370685 4 -5 -5 1 18 22 1 -3
1532180064391629 -2 0 -2 -2 7 0 -6 -4
1532180064400614 8 1 1 -4 -23 -6 1 -2
1532180064423544 2 -1 0 -1 -5 -15 -12 -4
1532180064452466 0 -2 2 -3 -10 -15 0 -1
1532180064461443 -2 1 0 6 1 -30 0 -4
1532180064495351 -8 -4 -3 -3 0 -7 -4 2
1532180064549208 -8 -3 -1 -4 -23 -33 -10 -3
1532180064564168 -12 -16 -8 -4 5 0 3 -4
1532180064609048 -2 1 0 -2 4 2 2 1
1532180064615032 2 1 1 2 21 4 -3 -5
1532180064669885 0 1 1 -5 12 13 -10 -6
1532180064684846 4 5 -1 -1 -6 -7 -11 -1
1532180064722744 -4 0 -2 1 -9 5 -2 0
1532180064751681 -2 1 -1 2 8 15 4 0
1532180064789565 -5 -3 -2 -3 -7 -2 14 3
1532180064804525 16 4 1 11 7 -2 6 -2
1532180064819503 -6 -2 3 4 15 15 2 -2
1532180064871347 -7 -9 -3 2 -5 3 0 1
1532180064910242 11 3 0 -3 -6 -5 -4 0
1532180064930208 -3 -2 0 -7 -4 -15 0 -1
1532180064962104 -3 -1 -1 -6 -1 -8 -15 -4
1532180064999004 -3 -3 -2 1 26 9 3 -1
1532180065021944 1 0 0 0 -19 -6 -9 0
1532180065043885 2 1 2 15 20 -2 0 -1
1532180065066824 -4 -3 -2 -8 -20 -19 -3 -1
1532180065081784 -1 -1 -2 -7 -13 -7 5 2
1532180065104722 1 1 1 3 3 9 -3 -2
1532180065117688 -4 -1 0 4 -3 -12 4 3
1532180065134642 -5 -4 -2 -3 -4 14 6 0
1532180065164562 10 -1 -1 4 16 11 -2 -2
1532180065178525 -6 -1 0 -4 -10 -6 0 -1
1532180065201464 -4 -2 -3 -4 -9 -4 3 0
1532180065230386 -3 -3 1 3 -1 5 4 -3
1532180065277261 -4 -3 -2 -2 11 2 -3 -2
1532180065298205 -6 -4 -2 1 9 4 -1 -3
1532180065307187 -2 0 -1 1 13 -3 0 -1
1532180065344082 -9 -14 -2 -2 -1 1 0 -3
1532180065369033 6 1 -1 1 9 14 4 3
1532180065389959 1 -3 -1 -5 3 5 7 2
1532180065403922 3 5 1 0 0 0 0 -2
1532180065426861 8 0 -1 0 -4 -14 0 4
1532180065441821 -1 0 -1 -3 -8 3 5 -4
1532180065477725 1 0 -4 -6 13 -3 -3 -4
1532180065531581 -4 -3 1 3 -22 -4 2 -2
1532180065563496 -1 0 -1 2 -7 -3 0 0
1532180065600397 -3 -5 -1 -3 4 1 1 0
1532180065613362 0 -1 -1 -5 -2 -2 -3 1
1532180065644280 -2 -1 -3 -2 4 1 -2 -2
1532180065658242 -2 0 2 9 11 0 0 0
1532180065681181 -1 1 -2 -5 -1 0 -1 0
1532180065703122 0 -3 -1 -5 -2 0 -2 0
1532180065712098 -1 -1 -3 -2 -8 1 -2 -1
1532180065729052 0 -4 2 0 -33 -5 1 -1
1532180065763959 -2 -3 -2 -5 3 -1 -2 -1
1532180065786898 -5 -3 -2 -7 9 1 -2 0
1532180065807842 1 -2 -2 0 3 0 1 -3
1532180065839757 2 11 4 24 28 1 1 0
1532180065848733 -1 0 -2 -14 -18 -2 -3 -2
1532180065869677 9 -5 -4 -5 -4 -1 -2 -2
1532180065885645 -6 -5 0 -5 -5 1 -3 -1
1532180065915554 -1 3 -4 -6 7 0 1 -1
1532180065935501 -4 2 -1 4 -2 -4 0 -3
1532180065966418 -1 0 -1 -1 -3 -1 -2 0
1532180065980380 -1 0 -1 -9 -1 0 0 2
1532180065997336 -1 -1 0 3 -4 -3 0 -3
1532180066019276 -1 -1 -2 -3 -8 0 0 0
1532180066033240 -1 0 -2 -4 0 -1 -1 0
1532180066049197 -1 -2 0 1 5 0 -1 0
1532180066073143 -2 -1 -3 -7 -2 -1 -3 -1
1532180066100061 -1 0 -1 -4 7 0 -1 -3
1532180066124994 -2 0 0 2 3 0 1 -1
1532180066147933 -2 -1 -3 -8 -13 9 -1 1
1532180066152919 -3 -2 -2 -6 -12 -27 -7 -1
1532180066184834 -3 -1 0 1 -5 -7 -3 0
1532180066207789 -1 0 -5 -2 -11 -6 -3 -3
1532180066220738 0 -3 -4 -15 -18 -6 -3 -6
1532180066244674 0 -2 1 1 5 -4 0 0
1532180066274601 -3 0 -1 2 6 -1 -2 0
1532180066280578 0 -2 -1 2 5 -1 -1 -1
1532180066295538 0 -3 -2 -5 -14 1 -2 0
1532180066326455 -1 -1 0 1 5 -2 -1 1

1532180066378401 -3 1 1 3 3 -1 -1 -3
1532180066395356 -1 3 -1 5 9 0 0 -1
1532180066417297 1 0 1 -1 -4 0 -1 -2
1532180066448214 -1 -2 -2 6 1 -2 0 0
1532180066453201 0 -3 1 0 4 -1 0 0
1532180066492116 1 -1 -1 -6 2 -3 0 1
1532180066518027 0 -3 -2 0 -3 -1 -2 0
1532180066543958 -2 -4 -5 -11 0 -1 0 0
1532180066565899 0 2 2 7 2 1 0 -1
1532180066591831 0 -2 -2 -9 -12 -1 -1 -1
1532180066627745 0 2 2 -3 -17 -2 -2 -1
1532180066657654 0 0 -1 0 0 -1 -1 -2
1532180066716513 -1 1 0 -4 6 -2 -1 -1
1532180066724475 -1 -1 -2 -8 1 -2 -1 -1
1532180066770354 -1 -1 3 13 -5 0 -2 1
1532180066783318 1 -2 0 5 -3 1 0 -2
1532180066829195 -1 6 0 4 5 -2 -3 -9
1532180066845153 -1 0 -1 0 -14 -2 -3 1
1532180066868092 -1 -2 -1 -7 0 0 0 2
1532180066903996 4 0 0 6 -1 2 3 4
1532180066973819 -3 0 -2 -10 -8 0 -3 0
1532180066993756 0 0 1 -4 -1 0 -5 -3
1532180067046614 1 4 -2 1 -2 -2 -2 -4
1532180067085510 4 -3 3 -2 2 2 -1 -11
1532180067106454 21 5 0 2 20 5 -1 6
1532180067131387 0 7 0 1 -15 -13 -6 -11
1532180067159313 3 -4 -2 1 -6 -2 2 1
1532180067188236 -1 -1 -1 -1 2 0 -2 1
1532180067242096 1 0 -2 6 -7 2 1 0
1532180067280988 2 0 -3 0 -5 -4 -4 1
1532180067324870 -2 -4 -4 -5 7 -1 -3 2
1532180067370748 1 -1 -3 -2 -1 0 2 1
1532180067398673 0 -1 -1 -1 0 -1 -1 4
1532180067423606 0 -1 -2 -1 0 -2 -2 -3
1532180067450534 -1 0 0 1 1 -1 0 2
1532180067465495 -2 -2 -1 -1 -2 -2 -1 2
1532180067496412 -2 0 2 0 -2 0 -1 -3
1532180067549270 0 -2 2 2 0 1 -1 -1
1532180067558246 1 -2 0 2 5 -1 -2 0
1532180067581200 -1 -2 -3 -4 -3 -1 1 -2
1532180067603126 0 2 1 5 -2 -18 -7 0
1532180067655985 -1 0 1 2 3 -1 -1 -2
1532180067669947 1 5 8 22 -1 -18 0 3
1532180067706849 -1 -5 -5 -12 -15 -55 -8 -2
1532180067736769 1 -1 -5 -12 -4 21 0 1
1532180067767686 2 10 6 7 6 20 3 3
1532180067773670 -1 0 0 3 8 43 6 0
1532180067813577 -1 -1 -3 -9 -14 -2 3 1
1532180067826529 -4 -4 -5 -2 4 6 12 -2
1532180067849467 -3 0 1 1 10 -15 -7 -1
1532180067895345 -3 1 -6 0 -6 13 2 -4
1532180067901329 1 -2 1 -3 -2 9 4 -1
1532180067940225 12 20 20 23 10 19 14 10
1532180067961169 -4 -6 -9 -9 -2 7 -5 -5
1532180067992086 -4 -11 -12 -8 -4 4 -5 -2
1532180068014027 0 0 0 0 2 0 1 -2
1532180068028988 -11 -14 3 -12 -5 15 -9 -9
1532180068051926 -1 -3 -4 -6 -5 8 2 -3
1532180068065889 -2 3 -5 0 0 -7 -6 1
1532180068088828 1 1 1 -1 2 -6 -2 1
1532180068135701 0 0 -2 0 0 -1 0 0
1532180068148667 -1 -1 0 -2 -2 1 2 0
1532180068218481 0 2 1 2 0 -2 -3 -1
1532180068239425 1 -2 -1 -2 -1 -3 -2 0
1532180068283307 -2 -2 0 0 -3 0 -1 -1
1532180068330182 -3 -1 -2 0 -1 -1 -2 -1
1532180068388028 -2 -1 -1 -1 -2 -1 1 0
1532180068414955 -1 -1 -1 -2 -3 -3 -1 -4
1532180068450860 -1 -3 -2 -2 -2 -2 -1 -1
1532180068487761 -1 0 -1 -2 -1 -2 -2 -3
1532180068516683 0 -3 -1 2 1 -2 3 -1
1532180068545606 0 -1 -3 -1 -1 -1 -1 -1
1532180068571550 0 -1 -1 -1 -3 0 -2 1
1532180068598464 -1 -1 1 -1 -2 -1 -8 -2
1532180068636363 -1 -2 -2 0 -1 1 1 0
1532180068651323 0 -2 -2 -2 -1 -1 -1 -2
1532180068690219 -1 -1 -1 0 0 -1 -2 -1
1532180068728118 -1 0 -1 0 -2 0 -1 -1
1532180068742081 -1 -1 -3 -2 1 0 1 0
1532180068793941 -1 -2 -2 0 -2 -1 0 -1
1532180068846801 -3 -1 -1 1 -2 0 1 1
1532180068952526 -2 -2 -2 -1 -1 -3 -2 -3
1532180069004379 0 -1 -1 -2 -2 0 0 -1
1532180069050256 -2 -1 -2 -3 -2 1 1 -3
1532180069088170 -2 -4 -1 1 -1 -1 -3 -2
1532180069124059 -1 -2 0 -1 -2 -3 -5 -1
1532180069161957 0 1 0 -1 -1 -1 -2 -1
1532180069176918 1 -2 0 0 -1 -3 -4 0
1532180069198859 -1 -1 -2 -2 0 -1 1 -1
1532180069221798 -1 -1 -2 0 -1 -1 -1 -1
1532180069244736 0 -1 -1 1 0 1 0 1
1532180069281638 -3 -2 0 -1 0 1 -1 1
1532180069296598 -1 -1 -1 -2 -3 -1 -2 -1
1532180069317541 -1 0 -2 2 0 -1 0 -2
1532180069335494 0 -2 1 -2 -2 0 0 -2
1532180069358433 0 0 0 -2 0 -1 0 -2
1532180069381371 -2 0 -2 -3 -2 -1 1 -2
1532180069396331 -1 -1 1 1 1 -3 -1 -2
1532180069431238 0 1 -2 0 -1 -2 -9 -2
1532180069454176 0 0 -2 -1 -1 -2 2 -1
1532180069484096 -1 -2 1 -1 -1 1 -2 1
1532180069521995 -1 0 0 1 0 0 -1 -2
1532180069536955 -2 0 -1 -1 -3 -4 -4 -1
1532180069575851 -1 0 -2 -2 -1 0 -3 -3
1532180069613750 0 -2 -1 -1 -1 -1 2 0
1532180069636689 0 1 -2 -2 -2 -2 -2 -1
1532180069656635 -1 0 -1 0 0 -1 2 -1
1532180069679574 -1 -1 -1 -2 -1 -2 -4 -1
1532180069696529 1 1 -2 -2 -3 0 -1 0
1532180069765344 -1 -1 1 -1 -2 -1 -3 -1
1532180069770331 0 0 -3 -2 -1 -1 0 1
1532180069791275 0 0 -1 -1 0 -1 -4 -3
1532180069837152 -1 -3 0 -3 -1 1 -1 0
1532180069851115 1 -2 2 0 -2 -8 -1 -2
1532180069865078 1 -1 -1 -2 -1 -3 4 3
1532180069880037 -1 -1 0 -1 0 1 1 -1
1532180069905969 1 0 -2 0 0 0 0 -2
1532180069920942 -2 0 -1 -1 -2 -1 -2 -2
1532180069935888 -2 -3 1 0 -1 -2 -1 -1
1532180069958827 -1 -1 0 1 -1 -1 1 -1
1532180070002710 -1 -2 -1 -2 -2 0 -2 -2
1532180070030635 -2 -2 -2 -2 -1 1 1 -2
1532180070039611 -2 -1 -1 -1 -2 -3 1 0
1532180070076512 -1 0 -3 -1 0 -1 -1 -1
1532180070099450 -2 -1 -2 -1 0 0 -1 -1
1532180070152324 0 2 -1 0 -1 -2 -2 1
1532180070174251 -1 -2 0 -3 -1 -1 5 -1
1532180070197190 -1 0 -2 -1 0 -4 -4 0
1532180070236085 -1 -1 -3 -1 -1 1 4 -1
1532180070265008 -1 0 0 -1 -1 -1 2 -2
1532180070279968 0 -1 1 0 1 -3 -3 1
1532180070317867 1 -3 -3 -3 -1 -1 5 0
1532180070392667 -1 -1 0 -1 -1 0 -3 -2
1532180070429568 -1 -3 -1 0 2 0 -2 -3
1532180070436550 -3 -1 -1 -1 -1 2 3 0
1532180070450512 -1 2 -1 -2 -1 -3 -7 -6
1532180070480432 -1 -1 -2 -2 -1 -1 -3 -2
1532180070519348 0 -2 0 -2 0 0 -2 0
1532180070580165 -1 -2 -2 0 0 -1 3 0
1532180070594128 0 1 -1 -3 -1 -2 -3 -2
1532180070632027 -2 -2 0 1 -2 0 2 -1
1532180070639008 -1 -2 -2 0 -2 -1 1 -2
1532180070668927 -2 -3 -1 0 -1 -1 -3 0
1532180070676907 -1 0 0 -1 -2 -2 -4 -1
1532180070713808 -1 -2 -2 -3 -2 0 -2 -2
1532180070727771 -1 0 -1 0 0 -1 0 -3
1532180070789605 -3 0 -1 2 -1 1 -1 -1
1532180070796586 0 -1 1 0 -3 -1 -1 0
1532180070871387 0 -2 1 -1 -1 -1 0 -3
1532180070879365 -1 -1 -4 -1 -2 0 1 0
1532180070909285 -3 2 1 0 0 -2 -4 -3
1532180070924248 -2 -2 0 -2 -1 -3 0 -1
1532180070962143 -2 -5 1 -3 -1 7 3 -1
1532180070992064 0 1 -2 -1 -2 -4 1 -4
1532180071036944 -3 -5 -4 0 -2 -4 -5 -1
1532180071081824 -2 -4 0 -5 -16 4 2 0
1532180071121717 0 -1 -5 3 -6 -16 -16 -3
1532180071178565 -2 -2 -1 -4 5 -1 -3 0
1532180071222448 13 0 -2 -22 -49 -6 7 31
1532180071277301 1 0 5 7 6 2 10 -1
1532180071285279 -2 -3 -2 -6 6 -4 -12 -5
1532180071307221 -5 -5 -3 -4 -12 -8 29 17
1532180071382021 -2 3 8 8 31 -2 -14 -66
1532180071395984 8 3 -4 -2 3 0 14 9
1532180071426901 19 0 -1 17 -8 -2 6 64
1532180071464800 12 -3 -1 -1 -2 5 7 113
1532180071501701 -12 -4 -3 -8 7 4 -17 4
1532180071568523 3 2 5 13 -5 -23 -17 57
1532180071614400 4 -2 -3 -3 7 13 -4 -11
1532180071635344 -10 -3 -5 -8 5 11 3 -89
1532180071689199 -3 -4 -2 -1 3 0 -16 -9
1532180071712138 -5 -1 -3 4 -1 -6 20 7
1532180071742058 9 3 -2 -9 1 -8 -3 38
1532180071771978 2 2 2 10 3 -3 -4 40
1532180071801898 5 3 5 16 -25 -22 -21 18
1532180071861738 -4 -5 -2 -4 -24 -13 -3 18
1532180071899637 -1 -1 -2 -7 6 0 17 -2
1532180071929557 -1 1 3 5 22 -4 -3 -1
1532180071982415 9 0 0 0 -10 -6 -5 2
1532180071995380 -4 -3 -2 -4 2 11 11 13
1532180072042255 1 0 -1 -2 2 2 -23 5
1532180072080154 6 2 -2 3 17 5 10 5
1532180072124037 -3 -3 -6 -2 -7 1 -14 -7
1532180072177893 4 -2 -2 1 -15 -2 9 11
1532180072214794 -1 -2 1 -3 -30 -4 -10 0
1532180072244714 1 -1 -1 1 0 3 21 4
1532180072281615 0 0 0 -4 -23 -3 3 -7
1532180072304554 5 -1 -1 -5 -19 -2 22 9
1532180072348437 -1 -1 0 2 5 1 1 4
1532180072357412 -1 -1 -2 -5 -5 -2 1 10
1532180072373370 4 0 0 -2 -26 0 7 14
1532180072401295 -1 -4 -5 -12 -8 2 5 13
1532180072424234 -1 0 -1 2 30 -3 -5 -8
1532180072453157 2 1 -3 -4 -1 6 -2 -3
1532180072492053 2 1 3 -1 1 -3 -11 -9
1532180072505017 -3 -1 -1 1 -11 -8 -8 -8
1532180072535935 0 0 -4 -3 -6 -3 -15 5
1532180072574831 -4 -3 -3 -6 19 0 4 0
1532180072581813 -4 1 1 9 15 6 3 -4
1532180072611733 1 -1 -1 -6 3 -8 7 -1
1532180072626692 2 0 -2 -2 7 7 9 4
1532180072643647 -3 -2 -4 -1 1 6 4 -1
1532180072678554 4 3 0 -8 -7 2 -5 4
1532180072693514 -2 -2 -1 4 -1 2 10 -4
1532180072703487 -1 1 1 -3 4 -14 -21 -6
1532180072733407 -3 -2 -1 -4 -1 2 -12 -2
1532180072761333 4 1 3 8 -24 -4 -17 1
1532180072784271 -1 -1 -3 -2 5 -5 -17 7
1532180072813194 0 0 -3 -5 2 9 4 1
1532180072852090 1 0 1 7 -7 -6 6 3
1532180072867050 1 0 0 0 19 5 5 6
1532180072882009 1 -1 -2 -5 -30 -10 1 4
1532180072904949 0 -1 -4 -8 -4 -5 -4 -20
1532180072926890 2 -1 -2 -8 22 3 -21 4
1532180072943845 -3 -3 1 -2 -6 -7 2 3
1532180072973765 -2 -1 -1 3 -13 -4 -2 -7
1532180072986740 -4 -3 -1 -7 -40 -8 5 -6
1532180073010666 -4 -1 -2 -6 -5 -3 -9 -3
1532180073046570 0 -2 -2 -5 0 -3 -13 -15
1532180073061564 -3 -2 0 -1 -1 -5 -6 -2
1532180073091484 2 -3 -2 3 14 9 0 13
1532180073144342 -3 -3 -1 7 -1 -5 9 -8
1532180073167289 -5 0 0 -5 -5 6 -12 -5
1532180073212161 9 2 0 3 -4 -10 -19 -6
1532180073227121 0 0 -3 -4 -5 -8 -5 4
1532180073265020 -6 -1 -2 10 4 -7 -7 -2
1532180073323863 0 0 -1 1 7 -2 -16 8
1532180073346801 1 -2 -4 -5 -21 4 24 17
1532180073412625 1 0 -1 -4 -6 -2 -11 8
1532180073444540 -1 -3 -3 1 -1 -1 -32 -8
1532180073480444 1 -2 -3 -3 -6 -2 10 3
1532180073511360 -4 -1 -2 1 -1 -2 67 -3
1532180073527328 0 -2 -3 1 -14 -3 -39 2
1532180073540283 -1 -2 0 -3 6 0 -10 -2
1532180073549259 0 -2 0 0 -5 -1 -13 4
1532180073566215 -3 1 0 0 2 -5 26 -3
1532180073600123 5 1 0 0 -4 -4 3 15
1532180073624059 -2 -3 0 0 1 -1 -42 6
1532180073646001 2 -1 -1 0 0 -3 9 -1
1532180073685894 -2 1 -1 -2 -1 0 -27 -5
1532180073705841 -2 -2 -2 -1 -3 1 -7 -6
1532180073736758 0 0 1 0 2 4 -3 2
1532180073767676 -1 -3 -1 -2 -6 -3 5 -1
1532180073788619 0 0 1 -2 5 3 0 0
1532180073827515 -3 0 -2 4 -8 4 -17 -5
1532180073858433 0 1 1 8 11 3 11 -2
1532180073879377 -3 -1 2 0 3 9 -1 -6
1532180073908299 -1 -2 -4 -19 -9 -19 -5 -2
1532180073923259 -3 -4 -2 -4 -12 -61 -9 -5
1532180073962155 -3 -4 -2 -5 11 -12 -7 -3
1532180073986130 -1 -3 -5 -13 32 51 12 1
1532180074007035 -2 -5 -6 -25 -27 35 -2 -3
1532180074028976 1 1 2 -2 -28 -111 1 0
1532180074043937 -3 -2 -2 -3 12 35 0 -2
1532180074067873 -1 -1 2 14 -5 -10 -2 0
1532180074088817 -1 -4 -1 -9 -21 88 -18 -4
1532180074104774 -1 3 -3 9 3 -31 -2 0
1532180074134695 -1 -2 -2 -8 -20 -11 -2 -1
1532180074148670 -4 -3 -4 -11 -5 -27 -14 -7
1532180074165626 1 2 0 -8 -23 -11 -2 -1
1532180074186555 -2 -2 -2 -2 -2 -6 1 -1
1532180074208497 -1 -3 0 3 -1 -24 1 -1
1532180074246395 0 0 -4 -8 -19 12 5 1

1532180074269342 0 -1 0 3 22 23 4 2
1532180074292272 -1 -2 -1 2 23 32 -7 0
1532180074306236 -3 -1 1 3 34 -2 -3 -1
1532180074330171 0 2 -4 -5 -34 0 -6 -3
1532180074345131 -2 -1 3 2 3 -54 1 -1
1532180074366075 -2 -2 -2 2 7 12 20 -1
1532180074397015 0 -1 -3 -4 -6 15 1 -1
1532180074411975 -1 -1 -2 -4 -41 26 -9 -1
1532180074448876 -4 -3 -4 -4 6 -5 -3 -5
1532180074464834 -1 -1 1 -2 5 10 13 -2
1532180074501735 -1 0 0 -3 -4 -8 -15 -2
1532180074516695 1 0 1 2 12 39 8 5
1532180074561575 0 0 -1 0 -2 -12 0 2
1532180074624071 -1 0 -1 -1 -1 7 2 -1
1532180074629057 -2 -1 0 -1 -2 -1 -5 -1
1532180074675932 -2 0 -1 -2 0 2 -4 -2
1532180074720812 -1 -3 -2 -3 -5 -3 -9 -2
1532180074763697 0 1 -1 -1 0 0 0 -2
1532180074789637 -2 -1 0 -1 1 7 6 -1
1532180074900346 0 -2 -1 -2 0 0 1 2
1532180074989108 -2 -1 -1 -2 -4 -3 -3 -2
1532180075020027 -1 -2 -1 -1 -3 1 -6 -1
1532180075072885 -2 -2 1 -1 -1 3 5 -1
1532180075117765 -1 0 -2 0 -2 1 -3 -3
1532180075140704 1 -1 0 -2 -2 1 2 1
1532180075230464 0 1 -1 -1 -1 0 0 -2
1532180075244426 -2 0 -1 -1 -4 -8 -13 -5
1532180075258389 0 0 -1 -1 -1 6 4 0
1532180075321221 -2 -4 -8 -7 1 19 -8 -3
1532180075349146 -4 -9 -5 -2 -3 -17 -3 -1
1532180075402005 2 -2 1 7 18 12 12 3
1532180075448880 -9 -11 -10 -1 1 3 -10 -4
1532180075470821 0 4 2 2 -32 -90 -7 -1
1532180075520688 -1 -1 -2 1 6 3 -13 -2
1532180075574544 -1 -4 -2 -4 -13 -47 -2 -1
1532180075628399 0 2 1 -3 -2 -3 1 1
1532180075641365 0 0 1 2 11 -7 -2 0
1532180075679264 0 -1 0 -1 -8 -16 -2 -1
1532180075748079 1 -3 0 -1 -2 -5 1 0
1532180075761045 -2 -1 -1 -4 -9 6 -3 -1
1532180075813903 0 -1 -3 -2 2 8 -1 1
1532180075836842 -3 -2 -3 -4 -11 -1 -2 -1
1532180075866762 0 1 -2 -2 -11 -9 -4 -1
1532180075911642 1 -1 0 0 6 -3 -2 -1
1532180075958517 -4 -3 -3 -1 7 19 -1 -3
1532180075995418 -1 1 0 0 3 3 0 1
1532180076003397 0 0 0 -2 -6 -11 0 0
1532180076062239 -3 -1 -1 1 -6 -14 0 0
1532180076077199 0 1 0 -3 -3 -4 -1 0
1532180076144021 -2 -1 -2 -3 1 5 -3 -1
1532180076181919 1 0 0 1 0 4 2 0
1532180076219831 -3 -2 0 -2 -2 -4 -2 -2
1532180076234779 -1 -2 0 1 -9 -21 -5 -2
1532180076264698 -1 1 1 1 0 -2 0 -1
1532180076271679 -1 -2 -3 1 7 5 -1 -1
1532180076293636 -2 -1 -1 0 -2 -2 1 1
1532180076315562 -2 1 0 0 1 -2 -3 -2
1532180076340506 -2 -2 0 -1 12 13 2 -1
1532180076356460 0 -4 1 0 -4 -6 0 2
1532180076391359 0 -1 -2 -3 -4 -7 -2 -1
1532180076422277 -1 0 -1 1 -2 -1 0 -2
1532180076459178 -1 -2 -2 -2 1 3 3 -1
1532180076474138 0 0 -3 -3 1 3 -5 0
1532180076504058 -1 -2 0 -1 -5 5 -1 0
1532180076541957 0 -1 -1 0 -1 -12 -4 -1
1532180076579855 0 -2 -2 -3 0 -3 -2 -1
1532180076617754 3 0 -2 -2 0 -3 -1 -1
1532180076654655 -2 -2 0 1 -1 -2 -2 -1
1532180076667621 -1 -2 -1 0 0 -1 -1 -1
1532180076699536 0 -1 -2 -1 -4 5 -1 -2
1532180076738431 0 1 -3 -1 -5 -9 -2 0
1532180076744415 -1 -3 -3 -2 2 1 -3 -3
1532180076790293 -1 0 0 0 -1 -1 -5 1
1532180076821219 -2 2 -2 0 11 2 -1 -1
1532180076858111 1 2 1 3 4 -3 -2 -2
1532180076872074 0 -1 -1 0 -2 -5 -5 -2
1532180076907978 0 -1 -3 -3 -5 -4 -2 -1
1532180076948869 -2 0 -3 -2 -1 1 -2 -1
1532180076977791 -2 -1 -1 0 -4 -1 -4 -1
1532180077014692 -1 -3 -1 0 1 0 0 -1
1532180077054587 -1 -1 -3 -2 -4 -2 0 0
1532180077089493 0 -1 1 -2 -2 -5 0 0
1532180077104452 0 -2 -3 -1 -2 -2 5 1
1532180077136372 0 -2 1 -1 0 2 -3 -1
1532180077173284 -1 -2 -3 -2 -2 -10 -2 -2
1532180077179252 -1 -1 -1 1 -1 1 -2 -1
1532180077211167 -1 -1 1 0 0 -3 -2 -2
1532180077219162 -2 -1 -2 3 -2 -1 1 0
1532180077265023 -1 0 -1 -1 -2 -3 -3 -1
1532180077270010 0 -1 0 -1 0 -3 -3 -1
1532180077290953 -1 -1 -1 1 -1 -2 -3 0
1532180077305919 -2 -2 -2 -1 0 1 2 -1
1532180077330856 0 -3 -2 -1 -1 -3 -5 -3
1532180077375727 -1 1 0 -2 -1 -2 -2 -2
1532180077389690 1 1 1 2 1 0 5 1
1532180077417615 -1 -2 -2 -1 -2 -1 -2 -2
1532180077456511 0 0 0 0 -2 -3 0 1
1532180077501392 -3 -5 -2 -3 -1 -1 -3 -1
1532180077531311 0 0 0 -2 -3 -23 -1 -3
1532180077561231 -1 0 -2 -1 1 6 3 -1
1532180077599130 0 1 -1 -1 -2 0 -1 1
1532180077614090 0 -1 -1 -1 0 2 0 -2
1532180077644010 0 -2 -1 -1 1 4 4 -2
1532180077688891 -1 -2 0 -1 -1 -1 -2 -2
1532180077726788 0 -1 0 0 0 1 3 0
1532180077779647 0 0 2 0 -6 -15 -1 0
1532180077854447 1 0 -1 -1 1 7 0 1
1532180077899327 0 -2 -1 -3 1 15 2 -1
1532180077929247 0 -1 -1 -2 -1 1 1 -1
1532180077950191 -1 0 1 -1 -2 -1 0 -1
1532180077982106 -2 -1 -3 0 -3 -3 -2 -1
1532180078010031 -2 -2 -2 0 -2 0 -3 -1
1532180078056906 0 0 0 -1 0 1 0 1
1532180078086826 -1 -1 -1 -2 0 2 1 0
1532180078140681 -1 -1 -1 -1 -1 2 1 -2
1532180078171598 1 0 -1 -3 -3 -1 -1 -3
1532180078223463 -1 0 -1 0 -2 0 -2 -1
1532180078244404 0 -1 0 -1 -2 -2 0 0
1532180078282303 -2 0 -1 0 -1 0 0 -2
1532180078297263 0 0 -1 -1 -1 -4 -2 -2
1532180078365082 -2 1 -1 -3 0 0 1 -2
1532180078387023 1 1 -1 0 0 0 0 -1
1532180078439882 0 -3 -1 0 2 0 0 -1
1532180078484762 -1 -3 -1 0 0 -2 -3 0
1532180078499722 -1 -2 -2 0 0 1 2 0
1532180078572527 1 -5 -2 -1 1 2 -1 -1
1532180078606444 0 3 0 -2 -1 -1 0 -1
1532180078658298 -2 -5 -3 -1 -1 -1 -1 -2
1532180078693260 -1 -2 0 0 0 -4 -2 -2
1532180078768060 0 -1 1 1 1 3 0 1
1532180078799974 0 5 -2 -2 1 11 0 -1
1532180078836876 -2 -3 -2 -1 -1 -1 -1 -1
1532180078889735 1 2 -2 -1 1 -2 -3 0
1532180078995451 -2 -1 -1 -1 -1 1 -1 0
1532180079009414 0 1 -1 -1 -1 -1 -4 0
1532180079047313 0 1 -2 -1 -3 -1 -1 0
1532180079122113 -1 0 -2 0 2 1 -3 1
1532180079166993 -2 0 -1 0 0 6 1 0
1532180079195916 1 1 0 1 4 4 0 0
1532180079202897 -2 -5 -2 -2 -2 -3 -1 -1
1532180079249772 -2 -1 -2 0 0 3 1 -3
1532180079286673 -1 -2 -4 -11 -14 6 -2 -1
1532180079309612 -1 -1 -3 -13 1 23 0 -1
1532180079339532 -3 -3 -6 7 -6 -4 2 -1
1532180079352512 -2 -3 1 7 25 16 4 -6
1532180079363468 0 3 25 32 0 -25 2 1
1532180079409345 0 -3 -1 -8 -19 -10 -11 -3
1532180079428294 2 0 1 -3 -6 4 6 8
1532180079488135 -2 1 -14 -25 -1 -4 -2 -19
1532180079550965 8 -5 -7 -3 6 1 -26 4
1532180079565926 1 -1 3 7 8 2 -13 -21
1532180079615793 1 -40 12 16 5 12 -6 23
1532180079639730 -2 -18 2 -3 -2 12 51 29
1532180079669649 3 2 2 4 1 12 -4 31
1532180079684609 -2 -1 -7 -4 -1 -6 -26 -77
1532180079722508 11 18 10 -2 9 5 8 29
1532180079758412 4 -9 -1 -5 -12 0 8 25
1532180079768384 -2 4 1 -2 -2 -3 -24 -69
1532180079791324 -13 -3 -1 5 9 5 -13 -32
1532180079842187 -11 4 -3 -4 -2 -12 -1 -20
1532180079864129 -6 -7 -6 -10 -11 3 -35 -33
1532180079885073 1 3 -1 -13 -16 7 14 7
1532180079911020 -2 -3 -2 -8 -8 0 -1 -10
1532180079961867 0 -5 -4 -16 -17 2 20 -5
1532180079984806 -3 9 3 7 2 0 11 37
1532180079999765 -3 -8 -5 -3 2 5 3 4
1532180080029686 2 8 4 -6 4 -1 -1 28
1532180080044645 1 -1 -1 -1 -35 -5 8 2
1532180080081547 1 1 0 -2 4 5 -2 -19
1532180080118449 4 2 1 -1 -12 -4 11 12
1532180080142385 -5 -2 0 4 18 2 8 -36
1532180080164326 -2 -6 3 15 19 -1 0 8
1532180080187265 -1 1 -2 2 22 0 -16 -21
1532180080202224 -1 -5 -5 -7 -9 -6 -7 5
1532180080224166 -2 -2 2 5 1 -8 -15 -2
1532180080239141 -2 3 2 3 -4 -3 -5 -12
1532180080262065 5 -2 -4 -8 -12 -12 -13 18
1532180080306945 1 -3 -1 -5 -11 3 -3 7
1532180080321905 2 1 0 -3 6 4 15 22
1532180080343846 -2 3 -3 -2 3 2 2 -9
1532180080358806 -1 1 -1 0 2 -1 4 6
1532180080382742 3 -1 -2 -4 -2 2 3 5
1532180080404683 0 -1 -2 3 -4 -4 -3 10
1532180080426625 -3 1 -1 -4 15 4 -7 -6
1532180080464523 3 2 -3 -6 -2 4 1 4
1532180080502438 -7 -3 -3 -5 4 -3 -18 -14
1532180080540320 -2 1 -1 -3 -3 -13 -14 1
1532180080562262 -4 1 -2 4 6 -2 -8 2
1532180080584203 -4 -1 -3 -2 -14 -4 -16 0
1532180080635067 3 2 1 -1 23 0 -9 9
1532180080666982 6 -1 -3 -9 -27 -2 3 4
1532180080675958 -2 -1 -2 -2 7 -4 -10 -22
1532180080690919 -3 -3 -1 4 0 -4 10 4
1532180080726822 -4 -1 -4 0 -8 -21 -9 -4
1532180080741782 1 3 -1 -3 14 7 -24 18
1532180080794641 -4 0 4 12 25 -2 -9 9
1532180080824561 3 -2 -2 -5 3 11 8 -9
1532180080847504 0 -2 -2 2 -22 0 7 -2
1532180080875425 -4 -3 -1 -5 -6 4 3 3
1532180080886411 -3 -2 -6 -13 -9 -8 -12 -12
1532180080909351 1 2 1 0 -26 0 -5 8
1532180080936261 -3 -1 -4 -3 8 3 -11 -11
1532180080966193 0 0 -2 -1 -10 1 1 3
1532180080989120 -6 -4 -3 -1 -12 -2 -16 -13
1532180081004081 3 1 0 2 3 2 15 1
1532180081034000 -6 -3 -3 -3 2 -5 -4 -14
1532180081048960 7 1 1 6 0 1 -9 20
1532180081071915 -3 -1 -1 -4 -10 -2 -1 -52
1532180081086859 -4 -1 -1 12 2 -1 -7 -2
1532180081109804 -6 -3 -2 -7 1 -7 -2 4
1532180081138720 -2 -1 1 2 -18 -1 17 41
1532180081168647 -5 -5 -1 -1 1 -1 2 -7
1532180081213520 -7 -5 -4 -1 14 0 -2 -23
1532180081251419 1 -1 0 -2 -6 -2 1 7
1532180081280342 -1 -1 -1 -3 -7 2 7 -1
1532180081342177 -4 -4 -6 -4 -2 -4 -4 -5
1532180081349157 8 2 0 -3 2 5 -1 19
1532180081386059 -2 -1 -1 1 -1 -1 -9 -4
1532180081401019 13 4 2 -2 1 -1 7 23
1532180081423962 -7 -1 -1 0 -2 -5 -5 -9
1532180081453878 -1 -1 1 1 3 4 17 2
1532180081520699 -2 0 3 1 -1 0 10 0
1532180081580539 -2 -3 -2 -2 -1 1 8 0
1532180081626416 -2 1 -2 -2 -3 -2 -12 -1
1532180081700219 -1 -3 -1 2 -8 -36 -25 -3
1532180081783995 4 0 -5 -13 -18 -22 8 4
1532180081815910 -3 0 -1 4 1 -5 -3 -3
1532180081851813 0 0 -4 2 -9 -1 0 0
1532180081905670 0 0 -6 -15 25 -24 -2 -2
1532180081956534 0 0 2 8 -9 1 -7 1
1532180082010389 0 1 2 12 -7 -7 -5 -1
1532180082016373 -1 -2 -5 -2 6 14 -5 -2
1532180082056283 0 -2 -2 -10 -4 69 -5 -3

1532180082091173 -5 -3 -5 -4 8 27 -4 -3
1532180082118101 1 1 3 5 6 37 12 2
1532180082181931 1 1 -2 7 32 -35 6 2
1532180082196891 1 1 0 0 -22 -12 5 2
1532180082234789 -3 -3 -4 -5 -3 -32 -9 -3
1532180082257728 -5 -1 -5 -5 -9 -12 -10 -5
1532180082278672 -6 -1 2 5 44 88 5 -2
1532180082338512 -9 1 -1 -1 4 9 -2 1
1532180082408325 7 -2 1 2 0 -9 17 7
1532180082436257 6 0 0 1 12 25 -3 8
1532180082446230 -13 1 1 -1 -2 4 5 -2
1532180082498091 -5 -1 -2 -3 3 -1 0 1
1532180082521030 1 -3 -2 -1 1 -6 -5 2
1532180082566866 12 0 0 0 -2 -3 -1 -1
1532180082579831 -7 0 -1 -2 -1 11 -2 -1
1532180082617729 -3 -2 -1 1 0 3 2 2
1532180082632690 4 0 -2 0 -1 0 -15 -1
1532180082645654 -5 -2 -1 0 -2 -8 -10 -1
1532180082684551 -12 0 -1 -1 -2 -7 -2 -3
1532180082691532 0 -1 -1 -1 -2 4 4 5
1532180082736419 2 -1 -1 -1 -2 -4 -10 -1
1532180082773313 4 -3 -2 -2 -1 -1 2 1
1532180082797252 6 -1 -2 -1 -3 0 2 0
1532180082835148 0 1 0 0 -1 0 2 0
1532180082857089 -2 0 -2 0 0 0 3 3
1532180082938871 -6 -1 -1 0 -3 -3 -3 -5
1532180083015665 4 -5 -3 -1 -1 -1 1 2
1532180083044588 -1 -2 0 0 -1 -3 -3 -3
1532180083121383 -4 0 0 -2 0 -3 1 0
1532180083158284 0 -3 -1 -1 -1 4 3 1
1532180083195185 -23 -2 -1 0 -2 -3 -1 1
1532180083241063 6 1 -3 -2 -2 -1 3 -1
1532180083277963 2 0 -1 -3 -2 -1 -3 -3
1532180083358748 11 -5 -2 -2 -2 2 7 3
1532180083373707 -1 -2 1 0 -2 0 1 -3
1532180083399639 -5 -3 0 -2 -2 -11 -7 -3
1532180083449505 1 -2 -2 -1 -2 16 6 -2
1532180083480422 0 -2 0 1 2 8 0 1
1532180083519319 1 5 -3 -4 -14 -19 -3 -3
1532180083555223 -1 0 0 1 28 37 -4 0
1532180083583147 2 2 4 10 10 -16 2 4
1532180083650967 2 3 1 6 -23 -57 -2 2
1532180083675900 1 1 -7 -7 -8 -24 -4 0
1532180083711804 0 -1 -7 -5 -4 6 7 0
1532180083725767 -1 -1 -1 -2 15 10 -15 -2
1532180083742722 -1 0 -1 0 8 27 -3 0
1532180083771644 2 -1 -1 0 8 2 -1 -1
1532180083794582 0 -1 6 1 3 30 1 0
1532180083809551 -1 -3 -3 -3 9 2 -4 -2
1532180083831484 0 4 -1 2 -2 4 12 1
1532180083861404 0 1 0 2 -4 -41 -2 1
1532180083877361 0 -1 1 2 14 20 1 -2
1532180083901297 1 2 0 1 -4 15 -6 0
1532180083928225 -1 0 -3 -4 -12 3 1 1
1532180083967135 2 -2 0 7 -5 -8 4 2
1532180083998039 0 -1 -1 -3 6 12 1 0
1532180084033942 2 1 3 10 8 2 -4 1
1532180084047905 -2 -3 -1 -4 20 23 0 -3
1532180084071841 1 -1 -1 -1 6 -6 -1 0
1532180084116721 -2 2 -4 -1 -10 -13 -1 -2
1532180084122705 -4 -4 -3 0 6 2 -3 -1
1532180084148649 -1 0 -1 -3 1 0 1 0
1532180084163596 -1 -3 -3 -3 -6 -4 -1 -1
1532180084176561 -2 -1 0 1 4 11 0 -2
1532180084215463 0 -2 -3 -3 3 17 0 0
1532180084231414 -1 -1 -1 -2 7 17 -2 -3
1532180084267327 -3 -2 -2 0 1 2 0 -2
1532180084282278 0 -1 -1 -2 -3 -8 0 2
1532180084321175 -1 -1 -2 -2 -9 -5 -1 -2
1532180084349100 -2 -3 -2 -2 -7 -15 -1 -2
1532180084382011 0 -1 0 0 0 -2 0 2
1532180084386014 0 0 0 0 -2 -2 -1 -2
1532180084432875 -2 1 -2 -2 1 -2 0 -1
1532180084467781 -1 -1 0 -2 3 1 -1 -1
1532180084491718 1 0 1 -2 -4 0 -3 -1
1532180084514657 -4 -3 -1 -4 -2 -5 -3 -1
1532180084528619 0 -1 -2 2 -3 -5 -1 -1
1532180084581478 0 1 3 14 3 5 -1 -1
1532180084611398 -3 -4 -3 -5 -3 -4 2 0
1532180084648300 -1 -1 -3 -1 1 6 -1 -1
1532180084681211 -2 0 -2 -2 -5 2 2 0
1532180084710134 0 0 1 0 2 -1 -4 -1
1532180084732075 -2 -1 -2 -4 3 7 0 -1
1532180084761995 0 0 -1 0 -1 -3 0 -1
1532180084798896 1 0 1 1 -1 -2 -1 0
1532180084836795 -1 -3 0 2 -1 1 0 -2
1532180084875691 -2 -2 -2 -1 -5 -6 -4 -1
1532180084881675 -1 -1 -1 -3 -7 0 -3 0
1532180084904614 -2 -1 -2 -7 -3 -2 -1 -1
1532180084949493 2 2 -1 0 -2 -10 0 0
1532180084957473 -2 -2 0 0 -4 -8 -2 -2
1532180084971435 -1 -1 0 0 -1 -4 -1 -1
1532180084994374 1 -2 -1 1 7 0 -2 0
1532180085024294 0 -5 -1 -1 -3 -3 -1 0
1532180085039254 -3 -3 -3 -3 -3 2 -1 -1
1532180085063197 -2 -1 0 -3 -6 1 0 -1
1532180085078150 2 -1 -2 -1 -2 -7 0 1
1532180085118043 -2 0 -1 0 -1 6 1 -1
1532180085129023 0 0 0 -3 -4 -15 -2 0
1532180085150955 0 -2 -1 1 4 2 1 -1
1532180085181873 -3 1 0 1 2 3 -1 1
1532180085219775 -1 -1 0 5 10 9 -1 -2
1532180085234731 -1 -1 -2 -3 -2 -9 -2 -2
1532180085256673 1 -1 -2 -3 -4 -2 -2 -1
1532180085270635 -1 -1 -1 -1 -2 -3 2 1
1532180085309531 -2 -2 1 3 -4 -15 -1 -1
1532180085316513 0 -2 -1 -1 2 0 1 -2
1532180085339451 0 0 -1 -2 -6 2 -1 2
1532180085354411 -2 -1 -2 -2 -5 -5 -2 -2
1532180085377350 0 -2 -1 2 -2 -1 -3 -1
1532180085391312 1 -1 1 -1 1 3 -1 -1
1532180085415249 -2 -1 -2 0 -2 -1 0 0
1532180085445169 0 -1 -4 -2 -2 -2 -1 0
1532180085450155 -1 -1 -2 -3 0 0 4 -1
1532180085474091 -4 0 0 1 -3 -2 0 -3
1532180085497030 -2 -2 0 -1 0 -1 -3 -4
1532180085526960 -1 0 -1 0 1 0 -3 -2
1532180085556870 -1 -2 -2 -1 -2 -1 -3 -1
1532180085594769 1 -1 -1 -1 1 -2 -2 0
1532180085630673 -1 -2 -3 -3 -2 -1 -2 -2
1532180085660592 -7 -9 -3 -2 -1 1 -2 -1
1532180085685526 2 5 -1 0 -2 -2 0 0
1532180085714448 -4 -3 -2 0 -1 -2 -2 -3
1532180085750352 0 -1 0 2 -1 -8 0 1
1532180085777288 -2 0 -1 -1 -6 -10 -5 -2
1532180085812187 -3 -1 -1 -1 -1 1 -3 -2
1532180085819177 -1 -2 -1 -1 0 -8 -5 -1
1532180085857067 -1 0 -3 -3 -10 -9 0 -2
1532180085863050 0 -1 -1 0 0 1 0 -2
1532180085893969 1 2 0 0 3 2 -1 0
1532180085916907 1 -1 0 -1 -2 -1 -1 -1
1532180085946826 -2 -1 -2 -2 2 3 2 1
1532180085953808 -2 -3 -1 1 1 4 0 0
1532180085984726 0 -1 0 0 -1 -1 1 0
1532180086015643 -1 -2 -1 1 -1 -1 -1 0
1532180086081468 -1 -2 -2 -1 1 1 -1 -1
1532180086143302 -1 -2 -1 0 1 2 -1 1
1532180086165243 0 -1 -1 -2 0 0 2 -1
1532180086201147 -2 0 -1 0 -1 -3 -1 0
1532180086247024 -1 -1 1 0 -1 -2 -1 -1
1532180086261984 0 -2 0 -1 0 -2 -1 -2
1532180086298885 -1 0 -2 -3 -1 -1 0 1
1532180086366704 -2 -1 -2 0 0 -1 -1 0
1532180086410587 0 -2 2 0 -3 -1 0 -1
1532180086421558 -1 -1 0 1 0 -1 0 -1
1532180086456464 1 0 0 -1 -1 -1 -1 0
1532180086525280 -1 -3 -2 -1 -1 -4 -1 2
1532180086539242 0 0 -1 0 0 -1 -1 0
1532180086622022 -1 -2 -1 -1 0 2 -1 -1
1532180086643963 -2 -1 -1 -1 0 0 0 -1
1532180086710784 -1 -3 1 -3 0 0 1 0
1532180086734733 -1 1 -1 -2 2 -2 -2 -1
1532180086779600 -2 -2 -2 0 -1 -3 1 0
1532180086801542 0 0 0 -1 0 0 -1 -3
1532180086849414 -1 1 -4 -2 0 0 0 -3
1532180086863376 -1 -2 -1 0 -1 -1 0 0
1532180086899280 -1 0 0 -1 -1 -1 -2 0
1532180086935184 -2 -3 -1 -2 -2 -3 -1 -1
1532180086976074 -1 0 -2 -2 -2 -2 -1 -2
1532180086997018 -1 -2 -1 -2 -3 -1 -1 -1
1532180087055861 1 1 0 -1 -3 -2 -1 -1
1532180087117696 -1 1 -2 1 -1 3 0 1
1532180087161579 -2 -1 1 -4 -5 -9 -2 0
1532180087253333 -4 -4 1 -9 10 17 4 -2
1532180087295221 5 1 3 12 8 -4 3 7
1532180087336112 1 -1 -9 -16 -3 8 0 10
1532180087424875 -1 -3 1 4 9 -1 -6 10
1532180087452811 5 4 -2 -5 -3 1 -9 19
1532180087521616 -10 13 8 7 8 1 1 -6
1532180087558517 -9 -7 -4 -3 -5 -3 -38 -27
1532180087596416 -2 0 -3 -4 3 -25 18 2
1532180087642293 -9 -8 -7 -3 33 0 -9 -4
1532180087702133 1 0 7 6 -2 7 -3 1
1532180087761973 7 4 0 1 22 -10 -25 -3
1532180087797877 8 -1 -3 -2 2 -11 8 10
1532180087806860 5 0 2 2 -6 1 21 27
1532180087866693 5 1 -1 -3 4 -9 -25 6
1532180087926533 5 1 -3 -7 -20 -15 -6 21
1532180087964432 2 1 3 4 -11 -2 1 8
1532180088032250 2 0 0 -1 -21 -3 7 7
1532180088054191 -4 -2 0 5 -7 -5 2 -9
1532180088098075 -4 -2 -2 -2 5 0 5 -7
1532180088143952 -4 -2 -3 -5 4 5 4 -12
1532180088188832 4 2 -1 -4 -4 3 -1 26
1532180088203792 0 -2 1 1 -8 7 3 2
1532180088273605 -2 -3 1 6 6 1 0 11
1532180088286571 -4 -2 -1 -2 21 0 1 -11
1532180088325467 -1 1 -1 -5 -1 -1 4 -6
1532180088370346 -5 -1 -2 1 -6 -3 5 -10
1532180088376330 -4 -2 0 6 1 2 15 -7
1532180088406250 -2 -2 2 2 3 3 5 1
1532180088443152 3 0 -1 1 11 -4 -8 13
1532180088511968 6 1 1 3 6 -1 3 30
1532180088563829 -3 0 -1 0 9 13 6 -5
1532180088647605 2 2 2 4 -6 -9 1 4
1532180088714426 1 2 -2 -4 -9 -6 -1 -4
1532180088751328 -4 -3 -4 -2 -10 -3 -18 -3
1532180088774266 -1 0 0 5 16 0 6 -7
1532180088804186 -2 -1 -3 -4 -13 -4 1 -2
1532180088843082 1 3 -1 -2 -7 4 9 -15
1532180088864026 -4 -5 0 0 -5 0 1 -20
1532180088910900 -5 -1 -2 -3 -5 -1 -11 4
1532180088923867 -3 0 1 9 -8 -7 3 -6
1532180088945808 -3 0 -2 -6 6 -7 11 -8
1532180088983705 0 -3 -2 -3 -2 1 -5 -5
1532180089020608 -3 -1 1 8 -5 2 1 4
1532180089040555 2 -6 -2 -5 3 0 -10 4
1532180089103386 2 0 -1 -2 -4 -3 1 17
1532180089126324 -4 1 -4 -9 -2 -3 -15 -12
1532180089163226 -2 -2 -2 -4 -2 5 -5 1
1532180089200128 3 1 0 -2 2 7 9 3
1532180089232042 0 0 -1 2 5 4 -8 -10
1532180089262960 -1 -1 -2 -3 -11 -2 6 -1
1532180089306842 -1 -2 -2 -1 -9 -6 -15 -9
1532180089343743 -1 -4 -1 0 0 1 3 -1
1532180089366682 -2 0 0 2 -2 -4 -3 -1
1532180089396602 1 3 0 2 -3 -2 -9 -7
1532180089403583 -2 -2 0 0 -2 0 1 1
1532180089429514 0 1 -3 -3 0 -1 1 -5
1532180089463423 2 -27 2 3 -1 0 -5 -1
1532180089486363 -1 -20 -2 -2 0 -2 7 9
1532180089509301 0 -9 -2 -4 -4 -1 3 3
1532180089538223 -3 1 0 -1 1 -2 -13 -4
1532180089573130 5 1 -1 -2 -4 -1 -1 14
1532180089586095 -2 3 -1 2 -3 -2 -7 -3
1532180089628981 0 -1 -3 -1 -1 -1 -2 -1
1532180089665882 -2 1 -2 -1 -2 0 -1 2
1532180089689818 -3 -2 1 9 -4 -1 -4 -3
1532180089726719 -1 -4 0 -1 3 32 -5 -2
1532180089755642 2 -3 -3 -1 -4 -8 0 -1
1532180089809498 -2 -2 -3 7 -13 -55 -6 -1
1532180089831440 0 -2 -1 -8 -11 18 -1 0
1532180089846399 -3 1 -3 -8 14 28 5 0
1532180089869372 0 1 -2 0 13 -16 -4 -4
1532180089906239 1 1 0 -1 -24 42 12 1
1532180089946133 0 -1 -3 1 16 31 0 -1
1532180089966079 0 -3 0 0 -2 -46 -3 1
1532180089988021 -3 1 -1 2 -4 20 -1 0
1532180090025919 -2 -3 1 1 -2 13 0 -2
1532180090048858 -1 -2 -2 -2 -34 -44 -6 -1
1532180090062821 1 -1 0 2 -4 -14 -4 -1
1532180090094735 -1 0 2 6 7 3 2 0
1532180090109695 -1 -2 -2 -5 -16 -16 1 -1
1532180090138618 0 1 -4 -2 9 -29 -6 -1
1532180090169541 -1 0 -1 -1 -12 -16 -8 1
1532180090182500 -2 -1 1 2 29 17 -9 -2

1532180090229375 -2 -1 1 -3 -1 10 1 -1
1532180090252324 0 0 -2 -2 -4 -7 -2 -2
1532180090289215 1 -2 -3 0 10 45 3 -1
1532180090303178 -1 -1 -1 0 -10 -6 -2 -1
1532180090349055 1 0 -2 1 1 -10 0 -3
1532180090371993 2 -1 0 -1 -39 -23 -1 2
1532180090385957 -2 -2 -2 -3 21 29 1 -1
1532180090408895 -3 1 -3 0 3 0 -2 -1
1532180090476714 -6 -3 -1 -2 -7 -24 -8 -6
1532180090491674 0 -1 1 -1 -10 -6 1 1
1532180090506633 -4 -3 -2 -2 -6 -5 -3 -4
1532180090551514 -10 -1 -3 -2 2 6 -8 -8
1532180090574452 3 2 1 2 -9 -8 -3 -2
1532180090611354 -4 -1 -3 -3 8 9 1 -6
1532180090626314 11 -2 -2 1 11 19 -1 -5
1532180090651247 5 -3 2 -3 -6 -15 -18 -7
1532180090672191 9 1 -2 1 6 -11 -8 3
1532180090694132 3 -3 -3 -2 -4 7 6 -4
1532180090732031 -91 -15 -1 -1 2 32 0 -55
1532180090745993 28 5 0 -2 -5 -19 2 9
1532180090754970 0 -15 -1 -1 -4 -46 -11 -4
1532180090771924 36 -5 0 1 0 0 6 17
1532180090805834 -6 0 -2 -2 -1 1 0 14
1532180090814810 -12 0 0 -1 0 1 4 -7
1532180090830771 -4 0 2 0 -3 -1 5 8
1532180090853705 -9 -2 -2 -2 0 2 -3 6
1532180090891611 7 -1 -2 -1 0 -2 -3 3
1532180090911557 -2 -1 -1 -3 -1 -2 -2 -1
1532180090942486 -2 0 0 -1 -2 -2 3 1
1532180090951450 -3 -1 0 0 0 -2 -4 -3
1532180090973392 1 -2 -2 -1 -1 2 5 0
1532180090996331 0 0 -1 -2 -1 0 -2 1
1532180091032235 2 0 1 -2 -3 -2 1 0
1532180091045231 -2 0 -1 -1 1 -1 0 -1
1532180091069167 -2 -2 -2 -1 0 -2 0 -2
1532180091099086 -2 -2 -2 -1 -1 0 -1 -1
1532180091105071 0 0 1 0 -3 -1 0 0
1532180091129008 -1 -3 -1 -1 -1 0 -2 -3
1532180091165908 -3 1 0 -2 -2 -1 -2 -1
1532180091181877 -1 -1 -1 -1 0 -1 -1 0
1532180091211786 0 -3 -2 -2 -1 -2 -2 -4
1532180091234724 1 -2 0 -3 -1 -1 -1 1
1532180091264645 -2 0 -1 0 -1 -2 0 0
1532180091309525 -1 -1 -2 -1 -1 -2 0 1
1532180091339444 0 -1 -1 -1 -1 2 -2 1
1532180091392303 -2 -3 -1 -1 -3 -1 0 -1
1532180091422223 -1 -1 -1 -1 1 -1 0 0
1532180091452160 -3 -2 -2 -2 -2 -1 -1 -3
1532180091482063 0 -1 -1 0 -1 0 0 0
1532180091511983 0 0 -2 -1 -1 0 -2 -2
1532180091534936 0 -2 -1 -1 -1 -1 -1 -2
1532180091571823 0 1 -3 1 -1 -1 0 -1
1532180091601743 0 -2 0 -1 -1 0 1 0
1532180091632660 -3 -2 -2 -1 1 -1 -2 -2
1532180091654602 -2 -2 -1 1 -2 -3 2 -4
1532180091675545 -2 -3 -2 -1 -1 -1 2 -6
1532180091705466 0 -2 -1 -2 -1 1 0 1
1532180091736392 -2 -1 -1 -1 0 0 1 -1
1532180091775279 -1 -1 0 -2 -1 0 -1 -2
1532180091803210 -1 0 -2 -2 -3 0 0 -1
1532180091834122 -1 -1 -1 0 -1 -1 -2 0
1532180091848084 1 0 -2 -1 -2 -2 -1 0
1532180091881993 1 -2 -1 1 1 -2 -1 -1
1532180091907924 -2 0 -1 -2 -1 -1 -1 -1
1532180091931860 -3 -2 -1 -1 -2 0 -4 -1
1532180091961781 0 -1 -2 -3 0 0 -1 -1
1532180091999679 0 -2 -2 1 0 -1 0 -2
1532180092014639 -1 -1 -2 -1 -1 -2 -1 1
1532180092052537 1 -1 1 -2 0 -1 0 1
1532180092088441 -1 0 0 -1 1 -1 0 -2
1532180092157257 0 -1 -2 -2 -3 0 -2 -2
1532180092186180 -2 -1 -2 -1 0 -2 -1 1
1532180092209119 -2 -1 0 -1 -1 -2 2 2
1532180092223081 0 0 -1 0 -2 -2 -3 -2
1532180092245023 0 0 -1 -1 -1 0 -1 -1
1532180092269958 0 0 -2 -1 -2 -1 -2 -4
1532180092278932 -3 1 -1 -1 0 -1 -1 0
1532180092313839 1 0 0 0 -2 -8 0 0
1532180092335780 -1 2 -1 0 -3 -6 1 -1
1532180092374676 -1 0 -1 0 -2 -5 -3 -1
1532180092396618 -3 -1 1 -2 0 13 -2 -3
1532180092411577 -5 -3 -2 -1 1 1 1 4
1532180092456456 -5 0 0 0 2 6 -2 -7
1532180092485380 -5 0 -1 -1 4 3 0 -2
1532180092496351 -1 -2 0 -2 0 6 -2 -4
1532180092526271 -1 -3 -2 -1 1 1 -1 -2
1532180092593092 -6 -1 0 -1 0 2 1 -2
1532180092622014 -3 -2 0 0 6 12 0 1
1532180092659913 -3 0 0 -1 -2 -1 -2 -3
1532180092673876 -3 1 -2 -2 -1 -1 0 -1
1532180092697812 -21 0 1 0 1 2 -1 -5
1532180092710777 0 1 -3 -1 -4 -4 0 -1
1532180092725737 -2 -2 -2 0 -1 -3 0 2
1532180092756655 4 -1 0 1 -5 -10 -1 0
1532180092770617 0 -1 -1 -3 -2 -4 -2 0
1532180092794553 1 -1 -1 -1 0 2 0 2
1532180092816494 -2 0 -2 0 1 2 -2 -3
1532180092830457 2 -1 -2 -1 -2 0 -2 -1
1532180092847412 1 -2 -2 -2 0 7 -1 4
1532180092876346 2 -4 0 -2 1 5 -2 2
1532180092907252 -4 -1 -1 -1 -2 -1 1 0
1532180092916227 3 -1 -2 0 -2 -3 -3 -3
1532180092939167 -1 -2 0 -1 2 -1 -1 -4
1532180092989033 -1 0 0 -2 1 -3 -1 -2
1532180093018953 -3 0 0 -1 -1 -2 -1 -2
1532180093026931 -1 -1 0 -1 0 0 0 -5
1532180093043887 0 -1 -2 0 -1 -7 1 -1
1532180093074816 1 -2 -2 -2 -5 -6 0 5
1532180093109711 -1 -2 0 -3 -1 -5 0 -1
1532180093124682 -9 -1 -1 -1 0 2 -1 -2
1532180093146612 -6 1 0 0 -2 -3 -1 -2
1532180093190494 0 0 -3 -2 0 0 0 -3
1532180093199470 -6 -1 -1 -2 -2 -4 -2 -1
1532180093236372 0 -1 -1 1 -4 -6 -1 0
1532180093273276 -1 0 -1 0 -2 -1 -3 -1
1532180093304190 -2 -2 -2 -3 2 2 1 0
1532180093335108 -1 -3 0 -2 -2 0 0 0
1532180093357049 -1 -1 0 -1 -1 -3 -3 -3
1532180093377993 1 -1 -2 -1 1 0 -1 -1
1532180093393950 9 -2 -2 0 -2 -3 1 2
1532180093423870 -5 -1 -1 -1 -2 -2 -2 -2
1532180093438830 -2 0 -1 -1 0 0 -2 -1
1532180093477727 -2 -1 -2 0 0 -1 0 -1
1532180093491688 0 0 -2 -1 -2 0 1 -1
1532180093506649 -1 -1 -1 -3 1 0 -2 0
1532180093520612 -1 -2 -2 -1 -3 -2 0 0
1532180093545545 -1 0 -1 -1 -1 -1 -2 -1
1532180093581449 -1 -1 -3 -1 -3 -1 -1 -1
1532180093596409 -1 0 0 1 0 -2 -1 -2
1532180093620345 0 -2 0 -3 -2 -1 1 2
1532180093633311 -1 -1 -1 0 -1 0 -2 0
1532180093664227 -1 -1 0 -1 -2 0 0 1
1532180093679187 0 -1 -2 -1 -1 0 1 0
1532180093702126 -1 -1 -1 -1 0 -3 -1 -4
1532180093717085 0 0 2 0 -2 1 -1 -1
1532180093739028 -1 -1 -1 -1 1 -1 1 -3
1532180093769945 -1 0 -2 2 0 1 1 1
1532180093785916 1 -1 -1 0 -2 -1 -3 -3
1532180093800863 -2 0 -2 -2 -1 0 -2 -1
1532180093858707 -1 0 -1 -1 -2 -3 1 -1
1532180093868680 0 -2 -1 -1 -1 0 -2 -1
1532180093889625 -2 -1 -1 -1 -2 0 0 -3
1532180093919545 -1 0 1 -2 0 -2 -2 -2
1532180093933507 0 0 0 -1 -3 1 0 0
1532180093941486 0 -2 -2 -2 -1 0 1 0
1532180093979384 -2 -1 0 -2 -2 -1 -2 -2
1532180093993347 0 0 -2 -1 -1 0 -2 -1
1532180094009315 -1 -1 -1 -2 -1 -1 -1 -1
1532180094039224 -2 0 0 -1 0 -1 -2 0
1532180094053188 0 -2 0 0 0 0 0 -1
1532180094113027 -1 -1 -2 -1 0 -1 1 0
1532180094158905 -1 -3 -1 0 -3 1 -2 -1
1532180094181843 -1 -3 0 0 0 0 -1 0
1532180094196804 0 -1 -2 -3 0 -2 -1 -1
1532180094219758 -2 -2 1 -2 -2 -2 -1 -2
1532180094257641 0 -1 -3 0 0 0 0 0
1532180094301523 -1 0 -1 0 -2 0 0 -2
1532180094339422 1 -1 -2 -2 -2 0 0 -2
1532180094370340 -1 -1 -3 -1 0 -2 0 0
1532180094383304 0 -1 -2 0 -2 -2 -1 0
1532180094408256 0 -1 -1 -1 0 0 2 -1
1532180094423209 0 -1 -2 -2 -2 -1 -2 -1
1532180094461097 0 0 -1 -1 0 0 0 0
1532180094497998 1 0 -1 -2 1 -2 -1 -2
1532180094512957 -1 0 0 -1 -1 -1 -2 -1
1532180094541881 1 0 -1 0 -1 0 0 -1
1532180094564823 -1 0 -1 -2 -2 -1 0 -1
1532180094609699 0 0 -2 0 0 -1 0 0
1532180094618675 -1 0 -1 0 -1 -1 -1 0
1532180094654579 -1 -1 -2 -2 1 -1 1 0
1532180094661560 0 -2 1 -1 -3 -2 0 0
1532180094684499 -1 0 0 0 -1 -1 -2 1
1532180094707438 0 -2 -1 -3 -2 1 -1 -1
1532180094744339 -1 -2 -1 -2 -1 -1 -1 -2
1532180094782238 -1 0 -1 -1 -1 0 -1 -2
1532180094812158 0 0 -1 -1 -3 -1 -1 0
1532180094827118 0 -2 -3 -1 -1 -2 0 -1
1532180094894936 -1 0 0 0 1 -2 0 -1
1532180094931837 -1 1 -1 0 -1 -1 -1 -2
1532180094961758 0 1 0 -2 1 -1 -1 -1
1532180094984697 -1 -3 0 0 -1 -1 -2 -1
1532180095044536 1 0 -1 -2 -2 -1 -2 -2
1532180095089417 0 -2 -2 0 0 1 -3 1
1532180095164216 -1 -1 -1 -1 -2 1 0 -1
1532180095239016 -2 0 0 -1 -3 0 -1 1
1532180095404574 -2 -1 -1 -2 0 -2 -2 0
1532180095417539 1 0 -2 -1 -1 -3 1 0
1532180095465416 -1 -2 -1 -3 -2 -1 1 0
1532180095608040 0 0 -2 -2 -1 6 6 0
1532180095644931 0 0 1 1 -5 20 1 0
1532180095704771 1 1 0 1 -9 -34 -5 -3
1532180095809491 0 1 1 -1 -6 2 -3 -1
1532180095883294 1 -1 0 2 7 8 1 -6
1532180095906232 -2 1 2 -1 -13 -2 -1 2
1532180095974051 -1 -1 0 19 -5 -6 -2 -1
1532180096011963 -2 -5 -6 -8 -6 4 -3 0
1532180096094728 -4 -1 -1 8 -8 5 -3 0
1532180096146590 1 0 4 7 -13 5 1 -17
1532180096184488 -4 -3 -2 0 -1 -26 13 20
1532180096206430 -1 -4 -2 -9 -13 5 -2 22
1532180096221390 -5 0 1 2 16 -3 7 -24
1532180096319143 -14 3 4 6 0 -20 -47 -53
1532180096357027 0 -1 -3 3 15 12 43 9
1532180096385949 10 0 -9 -12 5 -6 22 -18
1532180096454765 4 0 0 -3 -8 -3 -8 -6
1532180096478717 -6 -6 -4 -5 -2 -6 -13 5
1532180096514605 0 1 1 4 6 4 -1 9
1532180096521587 -5 -4 -4 -5 8 -15 -9 -20
1532180096543527 1 0 0 -2 -13 9 5 -13
1532180096574445 -5 -4 -3 4 20 1 -2 -4
1532180096634285 -1 1 2 -8 -3 0 -6 1
1532180096641266 5 3 1 -1 6 -1 9 -4
1532180096686156 -1 -2 -1 0 -12 1 4 -6
1532180096700109 -4 -1 -1 -5 2 3 -8 -2
1532180096724045 -1 -3 -4 -4 -3 6 -1 17
1532180096761945 2 1 2 0 -15 -4 -13 -3
1532180096806824 -1 -2 -2 -3 -1 1 6 -3
1532180096820787 -4 1 1 -1 5 1 -4 -7
1532180096874643 -1 -3 -4 -5 -2 -4 -6 -1
1532180096880626 0 0 3 -2 0 -2 -9 5
1532180096948445 -2 0 -1 -5 -13 -4 -12 18
1532180097032221 -1 -1 -2 -8 -4 -6 -11 -16
1532180097069122 3 -1 -3 -11 -4 0 -12 8
1532180097114002 2 0 0 -1 -5 -1 -8 3
1532180097166860 -6 -1 -2 -3 -11 -9 12 -12
1532180097189800 -2 -3 -3 -10 -16 -3 4 -10
1532180097234680 2 2 0 -2 11 3 -7 1
1532180097286542 -2 -2 -1 1 11 -1 -9 -8
1532180097309496 0 -1 -4 -10 -3 -1 -2 -6
1532180097324440 -3 1 1 -4 -8 -1 9 0
1532180097353363 -3 -1 0 -1 -7 -2 -13 -11
1532180097407219 -4 11 0 -2 -3 -1 -3 -7
1532180097430157 0 -2 -1 1 -2 -2 -6 7
1532180097444130 -5 -5 -2 -1 -4 -2 -2 -8
1532180097483015 -1 -3 -3 -4 -3 -5 -18 -11
1532180097511938 -2 -2 1 4 14 1 -8 -4
1532180097533880 -3 -2 2 6 -4 1 9 4
1532180097563799 -2 -2 0 6 3 3 6 6
1532180097588733 2 0 2 3 16 2 2 3
1532180097623640 -4 -1 -3 -3 -14 -3 -4 -13
1532180097669517 -3 -2 -4 -6 -9 3 -3 -7
1532180097683480 0 0 -1 1 -1 1 8 -15
1532180097745314 -1 -1 1 5 10 -21 -18 -3
1532180097805154 0 -2 -4 -6 4 0 -10 9
1532180097819117 -2 -1 1 6 14 -8 1 -2
1532180097864994 0 0 -1 3 9 -1 1 8
1532180097879955 -2 -3 -1 -1 1 -1 -3 -3
1532180097908877 -3 -3 0 5 -1 2 -7 4
1532180097931816 4 -1 -1 -2 7 -2 7 5
1532180097984674 -2 1 2 4 1 0 0 -6
1532180097991656 1 -6 -2 -3 -4 2 -1 1
1532180098021576 -2 1 2 0 -3 -3 6 5
1532180098036540 -4 -1 -3 -5 7 7 5 0
1532180098066456 -1 -2 0 -2 -2 -1 -3 2
1532180098089394 -1 -3 0 -1 -3 -1 -3 -3
1532180098119326 -1 1 0 0 -1 0 -3 -1
1532180098134274 -2 -1 -3 -1 -3 -2 0 -1
1532180098157213 -1 0 -3 -1 -2 -1 -2 0
1532180098194114 0 -2 0 0 -1 0 -1 -2
1532180098209074 -1 -1 -2 -2 -2 -3 -15 0
1532180098232013 1 0 -2 -1 -3 -3 28 -4
1532180098254951 -2 -3 -1 0 1 -3 -15 -2
1532180098276893 -3 -3 0 -1 -2 -4 -24 -2
1532180098305816 0 78 0 -5 -3 1 -4 1
1532180098352690 0 7 -1 -1 0 1 -2 0
1532180098365656 0 17 2 1 1 8 -2 1
1532180098417517 0 1 2 -3 -9 -11 6 -2
1532180098449431 0 7 0 12 13 -39 7 -3
1532180098472370 6 -6 -3 -4 21 -7 -2 0
1532180098509272 -3 4 1 -2 -16 -37 -1 4
1532180098539192 0 0 2 -1 -11 -8 1 0
1532180098584072 -2 2 -5 -6 27 4 -5 -2
1532180098636930 -3 -2 -2 -2 -5 3 1 -1
1532180098642914 0 -3 -2 -2 -7 -9 0 -1
1532180098674828 0 0 -3 -1 -3 1 1 0
1532180098735666 -2 -2 -1 -2 -4 -4 -1 -2
1532180098764589 -1 -3 0 -2 0 0 -1 -2
1532180098779549 -1 -3 -3 0 1 4 -3 -1
1532180098808471 -1 0 0 0 3 -2 4 -2
1532180098815453 0 1 1 0 -6 2 -3 -1
1532180098833405 -1 -1 -2 -1 -3 2 4 1

1532180098869320 -3 -2 -4 0 -3 -18 -25 -4
1532180098883271 -11 0 1 3 5 -5 -23 -2
1532180098899229 -1 1 -1 -1 -8 -13 -1 1
1532180098952087 -2 -2 -2 -1 -1 -2 -4 -4
1532180098975026 0 0 -1 -3 -8 -13 20 3
1532180098988989 6 -1 -3 -2 -8 -14 10 3
1532180099034872 -5 2 1 0 -7 -24 -12 0
1532180099056813 -26 -1 -4 -4 -10 -31 -21 1
1532180099094712 4 -1 -1 -4 2 9 -8 -6
1532180099107677 8 -2 0 -2 -13 -6 -13 -3
1532180099131614 -1 -4 0 2 3 8 -1 8
1532180099154552 8 -1 -1 -3 0 -15 5 -1
1532180099184513 11 -7 -4 -2 -2 22 11 2
1532180099191495 2 0 0 -3 -4 0 -9 -6
1532180099214433 1 -1 0 -1 -2 3 -2 -2
1532180099228396 3 0 -1 0 2 1 0 2
1532180099252332 -3 -1 2 2 0 -3 0 1
1532180099274275 -1 0 -2 0 0 3 -7 -1
1532180099289233 -2 -2 -2 -1 0 0 5 0
1532180099319155 -1 0 0 -2 -1 2 2 -4
1532180099335110 0 0 0 0 -1 0 1 -1
1532180099372012 -1 1 -1 -1 -1 0 1 0
1532180099454798 -1 -1 -1 -2 -2 0 0 -3
1532180099476742 0 -1 -1 -1 1 -2 -3 -1
1532180099529589 0 -1 -2 -2 -2 -1 2 -2
1532180099544550 0 -1 -1 -2 -1 -3 -1 -2
1532180099582448 -1 1 -1 0 0 0 -10 -1
1532180099588433 -2 1 0 -1 -1 -3 -4 0
1532180099634310 0 -1 -3 -1 0 0 -2 -2
1532180099648273 1 -1 -2 -1 0 0 -4 -3
1532180099679198 -2 -1 -1 -1 -3 -2 0 0
1532180099718095 1 -2 -1 -1 -2 -2 -2 -2
1532180099725076 -1 -2 -1 0 -1 0 0 1
1532180099753998 -1 0 0 -1 -2 1 0 -1
1532180099767961 -1 0 -2 0 0 -2 -1 -1
1532180099792895 -2 -2 1 0 -1 -1 0 -2
1532180099814836 -1 -1 -2 0 -1 0 1 2
1532180099827801 1 -1 0 -1 -1 6 0 -2
1532180099851737 -2 -1 -1 1 0 -6 -3 0
1532180099876678 -2 -2 -2 0 -2 0 0 -2
1532180099897614 1 0 -1 -1 -1 0 -1 -1
1532180099941498 -1 -2 -2 0 -1 2 0 1
1532180100025273 0 -1 -1 -1 -3 -2 0 -1
1532180100084116 -2 -1 0 -1 0 0 -2 -2
1532180100091097 1 -2 -1 0 -1 -1 -1 -3
1532180100153929 -2 0 -1 -3 -1 0 -1 -1
1532180100181854 0 0 -1 0 1 -1 0 2
1532180100210778 -1 0 -3 -1 1 -1 -1 0
1532180100217758 1 -1 -2 -2 -1 -1 0 0
1532180100235710 -1 -1 -1 -2 1 0 0 -1
1532180100271614 0 0 0 -1 -2 1 1 1
1532180100294553 -3 1 -1 -1 -2 1 -1 -1
1532180100324473 0 0 0 -1 -1 -2 -1 1
1532180100331454 -2 0 -1 -1 -1 0 -1 -2
1532180100362372 0 1 0 -1 -2 0 -1 -1
1532180100384313 0 -1 -1 -2 -2 0 1 0
1532180100414233 0 -1 -1 -2 0 -1 -2 -2
1532180100436182 -1 -2 0 0 0 -1 -2 -3
1532180100444153 0 -2 -1 0 -1 -3 0 -1
1532180100482051 -2 -2 0 -1 0 0 -2 -1
1532180100510981 -1 -1 -1 -2 0 1 0 0
1532180100519950 -1 -2 -1 -2 -1 1 -1 -3
1532180100556852 -1 1 -1 0 -1 -1 -3 0
1532180100579790 -2 37 -1 -1 0 -1 0 -1
1532180100616691 -1 -23 0 -1 -1 -2 -2 0
1532180100639630 -1 1 -1 0 -2 0 -2 0
1532180100677528 -1 -10 0 -2 0 -2 -2 -3
1532180100706451 0 -4 1 1 0 -1 -1 2
1532180100797209 -1 0 -1 -2 -1 0 -2 -1
1532180100844084 0 -1 0 -1 5 3 -2 0
1532180100880985 -1 1 -1 -2 -1 -3 0 0
1532180100916888 -1 -2 -2 0 -3 -1 0 -1
1532180101008643 0 0 -1 -3 -1 -1 1 0
1532180101038563 -1 -1 -3 -1 -2 1 -1 2
1532180101096409 0 -1 0 -1 -1 -1 1 0
1532180101119347 1 -2 -2 0 -1 1 -1 -2
1532180101157246 -1 0 -1 -1 -3 -2 1 0
1532180101179187 -1 0 -1 -3 1 -1 -1 -2
1532180101217086 0 0 0 -1 -2 -3 -1 1
1532180101239027 -2 -1 -1 -3 -2 -3 -1 -5
1532180101276926 -2 -4 -1 -2 12 5 1 -1
1532180101298867 1 -1 -1 0 1 0 -1 -1
1532180101366686 -1 -1 0 -1 -1 -1 -1 -2
1532180101419544 -1 -2 -1 -3 -1 -1 -1 -1
1532180101449470 -1 0 0 -1 0 -1 -1 -1
1532180101486366 -1 0 -1 1 1 -1 0 -2
1532180101524265 0 -2 1 -1 -4 -1 0 -1
1532180101540221 -1 1 -1 -1 1 0 0 -1
1532180101607043 -2 -2 -2 -1 -2 -1 -1 0
1532180101644942 -3 -1 0 1 -3 0 -1 -1
1532180101658905 0 -2 0 1 11 1 -2 0
1532180101713789 0 -1 -3 0 4 0 -1 -2
1532180101733735 -1 -2 0 0 5 2 -3 -1
1532180101764653 0 0 -2 -1 1 1 -1 0
1532180101830477 0 1 -1 -1 0 -2 0 -1
1532180101884332 0 -1 -1 -1 1 1 -1 -1
1532180101907271 -2 1 0 -3 1 1 -4 0
1532180101958134 -1 -1 -2 0 -2 -1 -3 -2
1532180101982071 -2 -2 -1 -2 0 -1 0 1
1532180102003015 -1 0 -2 -2 0 -1 -1 -1
1532180102041911 -2 -1 -1 0 0 0 1 -1
1532180102064850 0 0 0 -2 -2 -1 -2 -2
1532180102109730 -1 -1 -2 -1 -1 -2 -2 -2
1532180102130674 0 -2 -2 0 -1 -1 -1 -1
1532180102161591 0 -2 -2 -1 0 -1 -1 -1
1532180102199489 -1 -1 0 0 -1 -2 0 -1
1532180102229421 0 -1 -1 -2 -3 -2 -1 0
1532180102243382 -1 -2 0 0 -1 -1 -1 0
1532180102288252 -1 -1 -1 0 -2 -1 -1 -2
1532180102319170 -1 -1 0 -2 -2 -1 -2 -1
1532180102370034 -1 0 -1 -1 -4 -1 0 0
1532180102469767 -2 -3 -1 -1 -1 -2 0 -1
1532180102724086 0 -1 -1 -1 0 -15 -1 -1
1532180102768967 -2 -1 -3 -2 7 16 -1 -2
1532180102822823 -1 -1 -2 1 0 -1 -1 -2
1532180102859724 0 -1 -1 -2 0 5 -1 -1
1532180102873687 0 -1 0 -2 -3 -4 0 0
1532180102905601 -4 -1 -1 -1 1 2 -1 -1
1532180102917569 -1 -1 1 0 1 -1 0 -1
1532180102980401 -1 -1 0 0 0 1 0 -1
1532180103001345 -3 -2 -2 -2 0 1 -1 -2
1532180103032263 1 -1 -1 -1 -2 0 -2 0
1532180103038248 -1 -2 0 1 0 0 1 -1
1532180103084123 -1 -1 -1 -2 -2 1 0 -2
1532180103121025 0 1 -1 -1 -2 -1 -1 -2
1532180103142966 -1 -2 -1 -1 1 -1 0 1
1532180103220759 0 0 -2 -1 -1 -3 -3 0
1532180103225745 -1 0 0 0 -1 -1 -1 -1
1532180103263643 0 -1 1 0 -2 -2 -1 -1
1532180103294575 -1 1 -2 -1 0 -2 -1 -2
1532180103348431 -2 0 -2 -2 -2 0 -1 -2
1532180103361397 0 0 -1 0 0 -1 -1 -2
1532180103398298 -1 -2 -3 -2 -2 0 -1 -1
1532180103421237 -2 -1 0 0 -1 -2 -3 0
1532180103452157 -2 0 -2 0 -2 -1 1 0
1532180103466117 1 -1 0 0 0 -1 0 -1
1532180103511994 -2 0 -1 0 -2 -4 -1 -1
1532180103533935 -2 0 0 0 -1 0 -1 -2
1532180103625690 -1 -1 0 -1 1 -1 -2 -1
1532180103655610 -2 0 -2 -2 0 -2 -3 -2
1532180103691514 0 -1 0 -1 0 -2 -1 -3
1532180103774292 1 0 -2 1 -1 0 -1 0
1532180103781274 -1 0 -1 -1 0 0 0 -1
1532180103866047 -2 1 0 2 2 4 1 -2
1532180103893972 -2 -3 -3 -1 11 -7 -2 -2
1532180103911924 -2 -3 0 -8 -27 -37 -48 -5
1532180103969782 -2 -1 5 3 -3 -9 -10 -8
1532180103983732 -1 1 -4 0 -4 -22 8 11
1532180104038604 2 0 2 1 -10 -29 -14 -5
1532180104055541 1 -2 -3 -8 -3 -11 9 -5
1532180104096431 -1 4 6 1 -2 -13 -6 2
1532180104119393 -7 -6 -11 -10 -17 -13 -39 -6
1532180104142308 3 -4 -5 -6 1 -6 10 8
1532180104188186 -2 -3 -7 -17 -12 2 6 2
1532180104224089 -1 -4 -9 -10 -2 7 -2 1
1532180104247028 1 -5 3 -1 24 -4 -10 6
1532180104268970 -1 2 3 8 37 4 -10 3
1532180104330804 3 -2 -7 -10 -16 -16 -8 24
1532180104367706 4 6 5 5 0 -3 10 9
1532180104380671 7 -1 -4 -6 -2 -15 -2 -9
1532180104434527 -7 -3 -1 -4 6 -8 -32 -41
1532180104440511 -3 1 -1 -14 -11 7 -5 -10
1532180104463450 0 0 1 2 6 4 -28 2
1532180104488393 -2 -2 -1 15 16 -4 17 8
1532180104501348 -2 -1 -2 9 -6 -4 2 10
1532180104526282 -2 -1 -3 -6 -1 2 -7 10
1532180104546228 -1 2 2 9 -7 -7 1 -6
1532180104573156 0 -2 -2 -7 9 0 -16 4
1532180104584139 -2 -2 -1 -12 -27 -2 7 0
1532180104607065 -1 -2 0 -1 -24 -10 4 -8
1532180104629006 0 -1 0 -1 1 -6 0 6
1532180104665908 0 -2 -3 -9 -14 -11 -11 -12
1532180104689843 -5 -2 -7 -4 17 2 -2 -26
1532180104703807 -3 -1 1 -4 -10 16 6 4
1532180104726745 2 2 2 -1 6 2 3 2
1532180104748687 -6 -3 -4 -1 6 -4 -8 -17
1532180104801545 -1 -2 0 3 10 -3 -2 5
1532180104816505 -2 -3 -4 -7 -3 0 6 2
1532180104831465 -3 -2 -2 -2 2 10 7 8
1532180104854404 0 0 -1 -3 -3 -2 -1 3
1532180104885321 3 -2 -2 -6 -15 -3 6 8
1532180104906265 3 1 2 10 19 -3 -2 4
1532180104930201 -6 -2 -4 -2 -11 -4 0 -8
1532180104959123 -3 -4 -2 0 0 1 1 -11
1532180104967102 0 1 -2 3 20 -1 -3 5
1532180105011983 2 0 -3 -2 -4 2 1 11
1532180105056863 0 1 1 -5 -23 -3 1 -4
1532180105079801 1 1 2 2 5 7 -2 -5
1532180105086783 -2 -1 -2 -6 3 13 3 1
1532180105116702 -3 -1 0 2 -4 -6 -5 -4
1532180105131663 -3 -2 -6 -3 2 9 -1 9
1532180105169561 -3 -4 1 3 7 -2 1 3
1532180105199481 -1 -1 1 -1 -2 1 -3 -13
1532180105236384 2 -1 -5 -2 2 -8 3 2
1532180105289241 0 -1 0 6 15 6 1 8
1532180105303204 3 -1 -2 -6 -9 -2 -4 7
1532180105327140 2 1 -1 -4 -11 -13 4 6
1532180105357060 5 2 -2 -7 -4 6 -4 -18
1532180105393961 -1 -1 1 2 12 6 -15 -11
1532180105422884 -5 -2 1 7 -4 -4 -18 -4
1532180105441833 -3 -4 -7 -7 -5 0 3 9
1532180105454799 -2 -2 -2 0 -3 -9 -8 1
1532180105477737 -1 0 0 4 12 3 1 6
1532180105514638 -4 -3 -3 -5 1 0 1 3
1532180105529598 2 -2 -2 -2 0 2 11 11
1532180105559519 1 0 -2 -4 -6 -10 -2 10
1532180105596420 2 1 -1 -1 -5 -1 4 -7
1532180105611380 0 -2 -3 -7 -17 -2 -2 1
1532180105634318 -1 1 5 5 -1 0 -4 10
1532180105650275 -1 0 -4 -3 -12 -7 -11 -6
1532180105672217 3 2 2 2 10 3 2 5
1532180105687177 -1 0 -3 -2 1 -1 5 -1
1532180105717097 -1 0 0 0 -2 0 -4 -9
1532180105732057 -3 -3 -2 -3 2 -2 -8 2
1532180105753998 6 -1 -4 -5 -2 -2 1 29
1532180105767961 -2 -1 0 4 -4 -2 -1 8
1532180105782921 2 -1 -3 -4 -11 -2 0 17
1532180105806858 -3 -3 -2 -2 5 -1 -1 -2
1532180105829795 -1 -2 -6 -6 -2 0 -3 -12
1532180105851737 -3 -1 2 -2 2 -3 6 1
1532180105889636 3 0 -3 -3 -2 -2 -2 7
1532180105925540 2 0 0 0 -3 -16 -2 -1
1532180105949476 -2 -1 3 3 -1 4 4 4
1532180105971417 -3 -2 -1 -4 -9 -2 7 6
1532180106010316 -1 -1 -3 -2 -1 -3 6 10
1532180106032254 -2 -1 -1 1 0 3 0 1
1532180106045219 -4 -1 -2 -3 -1 -2 -7 -25
1532180106062175 0 -2 -2 -7 -8 -4 30 -5
1532180106116031 2 -1 -1 -1 0 -5 -16 6
1532180106138969 -1 -1 -2 -1 0 0 7 3
1532180106165897 -2 -1 -1 -2 -1 -2 -8 5
1532180106181854 1 -3 -2 -2 -3 -1 -8 0
1532180106195817 -2 -2 0 3 -1 -12 -4 0
1532180106234714 -1 0 0 -3 -3 -16 -14 -2
1532180106271614 0 -1 -2 -4 -7 -5 -12 3
1532180106311522 -3 -1 0 1 1 11 -9 -4
1532180106339432 -2 -2 -1 -6 -3 -20 5 -2
1532180106360377 -1 -2 -2 -6 -10 -18 -8 -1
1532180106378328 -1 1 -1 -2 8 20 -10 -5
1532180106405257 -1 0 -2 -3 4 17 -3 0
1532180106429192 0 -1 -1 3 -18 -12 8 3
1532180106468089 -1 -1 1 8 15 -23 1 0
1532180106482052 -2 -3 -4 -10 15 51 6 0
1532180106512968 -2 0 -2 -3 -17 8 -2 0
1532180106533912 -3 -2 -1 -6 -2 29 -1 -4
1532180106562836 0 0 -3 -1 7 10 1 -2
1532180106601731 1 1 -3 -3 -27 -35 -4 -1
1532180106616691 -4 -2 -3 0 -23 57 -7 -2
1532180106648606 2 0 -2 -3 25 25 -1 0
1532180106677529 -1 -2 1 0 -21 -29 4 1

1532180106714434 0 -2 -2 -1 0 29 1 0
1532180106728412 0 2 0 -3 -5 14 5 2
1532180106743400 1 1 0 1 26 14 0 0
1532180106797256 -2 -1 -2 -9 -9 6 4 -1
1532180106834157 3 3 12 44 68 4 5 2
1532180106848120 -1 -4 -6 -22 -28 -6 -1 0
1532180106879037 -3 -2 -4 -10 12 17 0 -4
1532180106894994 0 -3 -3 -8 -9 -11 -8 -2
1532180106916936 -2 -1 -1 0 8 27 0 -4
1532180106953837 -1 0 1 -2 -10 -19 -3 0
1532180106967800 -3 -1 -3 -6 -1 -7 4 -4
1532180106991736 -1 -1 -1 -5 -7 -16 -2 0
1532180107021656 0 0 -2 0 18 44 2 2
1532180107036617 -1 0 -2 2 1 -25 -5 -2
1532180107061550 0 -2 1 -4 -2 10 -2 -2
1532180107075512 -1 -2 -1 1 1 -5 3 -1
1532180107097459 -1 0 0 3 6 6 -2 0
1532180107121390 -1 -1 -1 1 2 7 1 0
1532180107143331 -1 -1 -1 -3 7 6 -1 1
1532180107157293 0 1 -1 1 -3 0 -5 -2
1532180107194194 -1 0 -1 1 2 -4 -1 -2
1532180107208157 -3 -2 -4 -5 -24 -2 0 0
1532180107240072 -1 0 -3 -3 -10 0 -1 -1
1532180107247053 0 -2 -3 -3 1 1 0 0
1532180107267996 0 -2 1 0 -2 -2 -1 -1
1532180107290936 -2 -1 -1 0 -4 -2 -1 -1
1532180107299912 2 0 -1 -1 -7 0 -1 0
1532180107360749 -1 -1 0 -2 9 -1 0 -1
1532180107387677 -2 -1 -3 -2 5 -2 0 0
1532180107434552 -1 0 0 1 0 0 -1 0
1532180107447517 0 -1 -1 -2 -4 -2 -4 0
1532180107478445 1 -1 -1 -3 -4 -2 -1 0
1532180107496387 -2 -1 -1 1 6 -1 -1 -1
1532180107519325 -3 1 0 0 -5 0 0 -1
1532180107538275 -1 -2 0 -2 -7 -2 -2 -1
1532180107556226 0 -1 -1 0 0 0 -2 0
1532180107578168 0 -1 0 0 0 -2 -1 0
1532180107614072 -1 0 -2 -1 1 1 -3 -1
1532180107644989 -2 -1 0 -2 -6 -1 0 -1
1532180107673912 -1 -2 -2 -1 -1 -1 0 0
1532180107696851 -2 1 0 -1 -9 -1 -2 -1
1532180107710813 -1 0 0 -1 0 -2 -2 -1
1532180107717794 -2 -1 -4 -1 6 0 -3 -1
1532180107735763 1 -2 -2 1 5 -1 -1 -1
1532180107762674 -2 1 1 -1 3 1 -2 0
1532180107794589 -1 -2 -2 -2 -7 -1 -1 -1
1532180107816530 -1 -2 -2 -2 -7 -3 -1 0
1532180107831490 -2 -1 -3 -4 -1 0 0 0
1532180107854429 -3 0 1 -4 -5 -1 0 -1
1532180107883351 0 1 -2 -5 -1 -1 -1 -2
1532180107914269 0 -2 -3 -4 -5 -2 -3 -2
1532180107920253 0 0 0 -3 1 -2 -2 -2
1532180107951170 -1 0 -1 2 -2 0 -1 0
1532180107965133 -2 -1 -2 1 0 0 0 -3
1532180107997048 -3 -2 -2 -3 -4 -2 -2 -1
1532180108005027 1 -1 0 -1 -2 -1 -1 -1
1532180108048909 -2 -1 -1 -4 -10 -2 1 -2
1532180108056888 -1 -2 -2 -1 -1 0 1 1
1532180108095783 0 -3 0 -3 6 -2 -1 -3
1532180108133695 -3 -2 0 1 0 -2 -3 -1
1532180108178562 -2 -1 0 1 -3 0 -2 0
1532180108184546 -1 -2 -1 -3 -2 -1 -1 0
1532180108200504 -1 0 -1 0 0 -1 -1 0
1532180108215480 0 -1 -1 0 -1 0 0 -2
1532180108254360 -3 0 -1 0 -1 0 1 -1
1532180108259346 -1 -2 0 -4 -1 1 0 -1
1532180108283282 1 0 -2 -1 0 0 -1 -1
1532180108306221 1 -1 -1 -2 -2 -2 -3 0
1532180108321181 -1 -3 -2 -1 -1 -1 -1 -1
1532180108357085 0 1 -3 0 -3 -1 -1 0
1532180108408946 -1 -1 -1 -1 0 0 -2 -1
1532180108446844 1 -2 0 -3 -1 0 0 0
1532180108484744 0 0 -2 0 -2 0 -1 -3
1532180108499703 -2 -1 -1 -3 -1 -3 0 -1
1532180108529623 -1 -1 0 -2 0 0 -2 -2
1532180108567522 -2 0 -1 -1 -1 0 -1 -3
1532180108596445 -1 -2 -2 1 -1 -1 -1 -1
1532180108619384 -1 -1 -1 -1 1 -1 0 1
1532180108648306 0 -1 0 -2 -2 -2 -2 0
1532180108679223 -1 -2 0 -2 -2 0 0 -1
1532180108702162 0 -1 -1 1 -1 0 -2 0
1532180108745047 -1 1 -1 -1 -1 -1 1 -1
1532180108769981 -1 -2 -2 -1 0 -1 -3 -2
1532180108822839 -3 0 0 -1 -1 -1 -1 0
1532180108844781 -2 -1 -3 -2 -2 -2 0 -1
1532180108904621 -1 0 0 0 -1 -1 -1 -1
1532180108964461 -1 0 -2 1 1 -2 -1 -1
1532180109033277 0 -2 -1 -2 -1 -2 -3 1
1532180109062199 0 0 -1 0 0 0 -1 -2
1532180109113063 0 -2 -1 0 -1 -1 -1 1
1532180109137000 -3 0 -1 -2 -1 -1 -1 -1
1532180109165922 -2 -1 -2 0 -1 -1 1 -1
1532180109207810 0 1 -1 0 -1 0 -2 -4
1532180109221789 -5 -1 0 -1 0 -1 2 6
1532180109256679 0 -2 -3 -1 0 -1 1 -1
1532180109292583 -1 -2 -2 -2 0 -1 -1 0
1532180109316519 0 0 0 0 -2 -1 0 -1
1532180109362396 0 0 -1 -1 1 0 -1 0
1532180109376359 -1 -2 -1 -2 -2 0 -1 -2
1532180109428220 -2 -2 0 -2 0 0 0 0
1532180109467116 -1 -2 -1 0 1 -2 -2 0
1532180109504018 0 -2 0 -1 -1 -2 -1 -3
1532180109548899 1 -1 -1 0 -2 -1 -2 1
1532180109555879 -1 -1 -1 -1 0 -3 -2 -4
1532180109579815 -1 -2 -1 -2 -2 0 1 -2
1532180109602754 -3 -2 -1 -2 -1 -1 -2 -2
1532180109639655 -2 1 -1 0 -3 -1 -1 -1
1532180109669575 0 -1 -2 -1 -2 0 -1 0
1532180109676560 -3 0 -1 -3 0 0 -1 -2
1532180109706476 -1 0 -3 0 -1 -1 -1 1
1532180109720439 1 -2 1 -1 0 0 -1 -2
1532180109736400 0 2 -2 0 -1 -2 1 2
1532180109798231 0 0 -1 -2 -1 -1 0 -2
1532180109804228 0 0 -1 0 -1 -1 0 0
1532180109865052 0 -2 -1 -1 -2 0 -2 1
1532180109908935 -1 -1 -3 0 1 0 1 0
1532180109946834 -2 -1 -1 -1 -2 0 -5 -2
1532180109984732 -1 -1 0 0 -2 -1 -1 0
1532180110036611 -1 -1 0 -1 -1 2 6 -1
1532180110044573 0 -1 -1 0 -2 0 -3 0
1532180110081474 -1 0 -1 0 -1 0 -1 -1
1532180110111393 -1 -2 0 0 1 1 0 -1
1532180110141314 0 0 0 -1 -1 -1 -2 -3
1532180110163255 0 0 -2 0 -1 -1 -1 -2
1532180110187191 -3 -1 0 0 0 -1 0 -2
1532180110209132 -1 -2 -1 -1 1 1 0 0
1532180110224092 -2 -1 0 0 -1 -2 -1 0
1532180110247031 0 -1 -1 -2 -1 1 0 0
1532180110261991 -2 -1 -3 0 -2 -1 -2 -2
1532180110283932 -1 1 0 -3 -2 0 1 0
1532180110314849 -2 -1 0 -1 -2 -2 -1 0
1532180110320834 -1 -2 -1 -2 1 -1 -2 -2
1532180110366711 -1 -1 -1 0 -2 -3 0 0
1532180110404610 -2 -1 -2 -1 2 -1 -1 -1
1532180110418572 -3 -2 0 -2 0 0 -1 0
1532180110471431 3 1 0 0 -1 1 -2 -2
1532180110486391 -1 0 -1 0 -2 -1 1 1
1532180110517308 -1 -1 -2 -1 0 -1 -2 -2
1532180110538252 -1 -3 1 -1 -2 0 -1 0
1532180110561191 -1 1 -1 -1 -2 -1 1 -1
1532180110585127 1 1 -2 0 -1 -2 0 -1
1532180110599090 0 -2 -1 -1 -1 0 1 0
1532180110643969 -1 -1 -1 -1 -2 -1 -5 -1
1532180110704819 0 -2 -2 0 -3 -1 -1 1
1532180110725751 -3 0 -1 -2 -2 0 -2 -1
1532180110778610 -1 -2 -1 -1 1 0 0 0
1532180110801552 -1 0 -1 0 1 0 -1 -2
1532180110824487 0 -1 -2 0 -1 -1 0 -1
1532180110839447 -2 -1 -2 -1 -2 1 -3 -2
1532180110869367 1 0 0 -1 -2 -2 -1 0
1532180110885324 -1 -1 0 -3 -1 0 -1 0
1532180110921228 0 0 0 -1 -2 0 0 -1
1532180110961121 -2 -1 -1 -1 -1 -2 0 1
1532180110973090 1 -2 1 0 0 -2 0 -2
1532180111027943 -2 -1 -3 -2 -2 0 -2 -2
1532180111095762 -2 -1 -2 -1 -3 -2 -1 -2
1532180111131671 1 -1 -1 -1 0 -1 0 0
1532180111161585 0 0 -2 1 -1 -1 -1 -2
1532180111184524 0 -2 -1 -1 0 0 -2 -1
1532180111198502 -2 1 -2 0 -2 -3 -2 -2
1532180111267303 -1 -5 -3 -2 1 13 5 -1
1532180111281265 -4 -1 -1 -8 -14 -14 -40 -6
1532180111343100 1 1 -3 -13 -1 -15 11 1
1532180111395959 -1 3 10 11 -5 -20 -1 0
1532180111423884 1 1 -10 3 -4 3 2 5
1532180111446823 4 2 -5 -9 -2 -21 -1 5
1532180111469761 -5 -7 4 0 6 -5 -12 0
1532180111508657 -2 -2 -7 -2 -18 3 -9 -14
1532180111522620 1 5 11 42 25 10 6 6
1532180111543564 2 0 -1 2 -2 12 20 12
1532180111566502 -5 3 8 7 -6 4 2 -11
1532180111581463 -3 -8 -15 -17 -19 -6 -22 3
1532180111603404 -2 -1 -3 -3 13 -2 7 -24
1532180111627351 0 0 -1 -7 -4 2 3 2
1532180111649281 1 2 1 4 1 -2 -43 -2
1532180111672220 -4 -3 1 8 3 -5 9 0
1532180111687180 2 2 0 -3 -6 -8 9 12
1532180111701142 -1 -7 -8 -9 -10 -5 -3 -12
1532180111725078 4 3 3 4 -9 3 2 -19
1532180111760982 -12 0 6 34 -1 -2 7 -22
1532180111806860 -7 -4 -2 -7 8 4 -3 -3
1532180111843761 -10 -5 -4 -10 -9 -8 -14 -20
1532180111873681 3 -1 1 -4 -15 -7 -5 7
1532180111903603 -3 -1 0 0 24 -2 7 -10
1532180111927537 2 -2 -2 1 -4 8 7 23
1532180111949478 1 0 -5 -5 -3 0 -4 18
1532180111979398 3 12 5 -8 27 3 -4 -9
1532180111986380 1 -6 -5 -8 -12 -17 -18 -13
1532180112017297 1 -2 3 16 -9 -2 -8 -14
1532180112031262 -7 -3 -1 2 -1 -2 -4 -10
1532180112077137 -1 -2 -4 -8 0 9 8 -4
1532180112114038 5 3 4 15 13 3 0 -4
1532180112143958 -3 -5 -5 -10 -3 -6 6 14
1532180112188838 -4 -4 -4 -13 2 -1 -6 -8
1532180112203798 -1 1 0 0 1 9 3 6
1532180112235712 0 1 -3 -2 -6 3 6 2
1532180112256667 -1 -1 -3 -4 -11 2 4 3
1532180112271617 -3 1 -2 -2 5 -5 0 -1
1532180112309528 -1 0 2 4 -3 -9 1 1
1532180112339436 0 0 3 5 -11 -9 -16 -6
1532180112376337 -1 -2 -4 -1 6 -1 -4 -3
1532180112383318 5 1 0 -4 -5 0 7 20
1532180112414236 -5 -4 -5 0 10 10 6 13
1532180112430193 0 0 1 2 2 -1 -7 -21
1532180112469089 -7 -2 -2 6 13 0 0 5
1532180112474076 1 0 1 6 -11 2 -15 -38
1532180112491030 -1 -1 4 8 3 -1 9 12
1532180112526935 5 0 -1 -6 -16 2 7 25
1532180112549873 -6 -1 0 -7 -2 -5 0 -14
1532180112601734 0 0 0 10 -7 -4 6 2
1532180112623675 -4 -2 -1 -1 7 5 18 5
1532180112654593 -3 -2 -6 -1 0 1 4 -5
1532180112683515 -2 -4 -1 1 -13 -4 -5 3
1532180112706454 4 1 1 -1 -4 -15 -4 9
1532180112720417 3 -1 -1 0 -6 -3 -6 14
1532180112731403 -2 0 2 2 13 4 10 -7
1532180112758316 -3 -2 -1 0 -4 -2 -10 -7
1532180112789233 1 0 0 -1 -2 -1 -3 11
1532180112812171 -2 -1 -2 1 -15 4 3 -10
1532180112863035 3 2 -2 3 -4 7 3 -10
1532180112886987 1 -1 -2 -2 0 -3 2 15
1532180112931865 4 0 -2 -3 2 0 8 0
1532180112955788 0 -1 1 3 -10 -6 -5 -20
1532180112971745 1 0 1 3 6 -2 4 10
1532180113006651 -2 -1 -2 16 6 -2 -5 3
1532180113029591 -3 -2 1 -4 9 3 1 4
1532180113042555 3 1 1 -2 -2 -1 -2 8
1532180113074470 0 -2 -3 -10 -2 -1 -4 4
1532180113089429 -1 -1 -2 -8 -3 -3 7 -9
1532180113103393 1 0 1 -1 2 0 1 7
1532180113127329 -3 -2 -5 -6 2 -9 -7 -14
1532180113149270 -3 -1 0 -4 4 6 -4 -6
1532180113194150 0 -2 0 -3 -5 -1 -2 -5
1532180113232049 0 0 -2 -1 1 -1 -2 -2
1532180113268950 -3 -1 -1 0 -1 0 1 2
1532180113298870 0 0 -1 1 -2 -2 -3 -5
1532180113305851 -2 -1 -1 0 0 -1 -8 -6
1532180113351729 -3 -3 -2 -2 -3 -1 -15 -7
1532180113389627 3 0 -1 -1 -1 0 0 0
1532180113411584 -1 0 -1 -1 -2 0 3 -3
1532180113434507 -1 0 -1 -1 -1 -2 3 -1
1532180113474415 -1 -4 -2 1 -2 -1 3 -9
1532180113539227 1 -2 -2 -3 -7 8 1 2
1532180113577126 0 -2 2 10 7 -6 -4 -2
1532180113615024 0 -1 2 -3 0 -9 1 -1
1532180113628987 0 -2 -2 8 12 25 6 -1
1532180113682843 -1 -1 -5 -9 8 56 0 -1
1532180113697803 -1 -2 -2 -2 0 25 1 -2
1532180113711766 0 0 2 10 -7 -13 0 -1
1532180113748667 0 -3 -4 -1 -6 -13 2 -1
1532180113785569 -1 1 -1 -8 -20 -11 -3 -1
1532180113855382 -2 -1 0 -3 12 23 1 -1
1532180113862363 0 0 -1 7 10 14 -1 -1
1532180113883307 -1 0 2 1 2 -9 -3 1
1532180113905248 -2 -1 -1 8 18 33 -2 -2
1532180113922203 0 -3 -1 2 1 -3 -1 -1
1532180113973066 -1 -1 -2 2 -5 -26 -2 -3

1532180114027920 -1 -2 -2 -11 -16 -98 4 -1
1532180114056843 1 0 -4 0 -10 -13 -1 -1
1532180114085766 -3 -2 -1 1 -16 23 1 0
1532180114154582 -3 0 -2 -3 4 20 8 0
1532180114176523 -1 -1 0 -2 -9 -6 -1 -1
1532180114214422 0 -2 -4 1 10 27 2 2
1532180114252329 -1 0 -1 -1 1 -7 -15 -2
1532180114274262 -7 -2 0 -2 -7 -12 -2 -1
1532180114295206 -5 2 0 -2 -5 2 0 -2
1532180114319142 -5 -2 -1 0 -2 0 -4 -2
1532180114357040 1 -3 -3 -3 5 23 2 4
1532180114393942 -2 0 -2 0 -1 -2 -1 0
1532180114424859 0 -2 -2 0 10 9 1 -1
1532180114437824 -3 -2 -1 -1 -4 2 1 1
1532180114455776 -1 1 -2 -1 -3 -6 -1 -2
1532180114478715 0 -1 -2 -2 -1 -3 -1 -1
1532180114514618 -3 0 -1 -1 -2 -3 -3 -1
1532180114552535 0 -1 -2 0 -2 -3 -1 -2
1532180114574459 -1 0 0 -1 0 -1 0 0
1532180114588422 1 -1 -1 -1 -1 -1 -2 0
1532180114612358 -3 0 0 -1 -3 -1 0 0
1532180114657238 0 0 -1 -2 -1 -1 -1 -1
1532180114687158 -1 -2 0 -1 -2 -3 -1 -1
1532180114720070 -1 -1 -1 -2 1 -1 0 0
1532180114740025 0 -1 -2 -1 -1 -1 -1 -2
1532180114776918 -1 -1 -3 -1 -1 -2 -2 -1
1532180114814815 -1 -1 0 -3 0 -2 -1 0
1532180114857702 0 -1 -1 -2 0 0 -1 -2
1532180114911558 -1 -2 1 -2 -1 -2 -1 -1
1532180114948459 0 0 -2 -2 -2 -1 0 0
1532180115008299 -2 -1 -2 -2 0 -2 1 0
1532180115032235 -1 -3 -1 0 -2 0 -1 -1
1532180115085099 1 -1 -1 -1 0 -1 -1 2
1532180115107035 -1 1 0 0 0 -1 1 -2
1532180115151915 -1 -1 -3 -1 -1 -1 -1 0
1532180115181835 -1 -1 -1 0 -1 0 -2 -2
1532180115240677 -1 -1 -2 -2 -1 -1 -1 0
1532180115258635 -1 -2 -1 -1 -2 1 -3 -1
1532180115302512 0 -2 -1 -1 -1 -2 -1 -2
1532180115341408 1 1 -2 -1 -2 -1 0 -1
1532180115377312 -1 -2 0 0 0 -1 -1 1
1532180115453110 2 4 0 -1 -1 0 -1 0
1532180115467079 0 -2 -2 -2 -2 -1 1 -1
1532180115535889 -1 -2 0 -1 0 -1 -1 0
1532180115549851 -1 -2 -2 -2 -1 -1 -3 -1
1532180115593734 -1 -2 -2 0 -2 0 -2 0
1532180115654571 -2 -1 -1 -1 0 -1 -1 -3
1532180115715408 0 -1 -1 -1 -1 0 -1 0
1532180115758293 -1 -2 -2 0 0 -1 -1 -2
1532180115790208 -3 -1 -2 -2 -2 0 0 0
1532180115864027 -1 -2 -2 0 -1 0 -1 -3
1532180115886949 -1 -1 -2 -3 -1 0 0 0
1532180115940805 1 0 0 -1 -1 -1 -2 -3
1532180115956763 8 53 3 -1 -1 -1 -1 1
1532180116036563 0 2 0 -1 -1 -1 0 2
1532180116143263 -1 -1 -3 -1 -1 -2 0 0
1532180116180166 -1 -3 -2 -1 -1 -1 -1 -1
1532180116224048 -1 0 0 0 -1 -1 -2 -1
1532180116254965 0 0 -2 -2 0 0 1 -1
1532180116276906 -1 0 -1 0 0 -2 -1 0
1532180116300842 -1 -1 -2 -1 -2 -1 -2 0
1532180116305829 0 -2 0 -2 -1 1 -2 0
1532180116327770 0 -1 -1 -2 -1 -1 -3 -3
1532180116350710 -1 -1 -2 -2 -2 0 0 -1
1532180116381626 -1 3 0 -1 -2 0 0 -1
1532180116397584 -1 -7 -2 0 0 -2 0 -2
1532180116419536 0 -2 -1 -3 0 0 0 -1
1532180116440469 -1 -1 -1 -2 -2 -2 -1 -1
1532180116459428 1 0 -2 1 0 -1 0 -1
1532180116485349 -1 0 -1 -1 -2 -1 -2 0
1532180116508288 0 -1 0 -1 -1 -1 -1 -2
1532180116526242 -2 -2 -1 -1 -1 0 0 0
1532180116553168 -2 -1 -1 0 -2 -1 -4 -2
1532180116577104 0 -1 -1 -1 0 -3 0 -2
1532180116599045 0 -1 0 -1 0 -2 -1 -1
1532180116605029 -2 -1 -1 -1 -2 0 -1 -2
1532180116645920 -2 0 -1 -1 0 0 -2 0
1532180116650906 0 1 -2 -1 0 -1 2 1
1532180116682821 -1 -2 -1 -1 -2 -3 -2 0
1532180116719738 -2 -3 -1 -1 -3 -1 -1 -1
1532180116725706 -1 0 1 0 -3 0 -2 1
1532180116756628 0 0 0 0 -1 1 0 -2
1532180116801503 1 -1 -1 -1 -1 0 -2 -2
1532180116816464 -3 0 -2 -1 -2 -2 1 -1
1532180116839403 -1 -2 -1 0 0 1 -3 -1
1532180116853365 -1 0 -1 -1 -1 -1 -1 -1
1532180116886277 0 -2 -1 -1 0 -1 0 -1
1532180116899242 1 2 -3 -1 -2 -2 -1 1
1532180116922181 -2 -2 1 -1 0 -2 -2 -2
1532180116959099 -1 -1 0 0 -2 -2 -1 -2
1532180116982021 0 1 -1 -4 0 0 1 0
1532180116995984 -1 -1 -1 -2 -2 -1 -1 0
1532180117010944 -1 0 -2 -3 -1 0 -1 0
1532180117041861 -3 -2 1 0 -1 -1 -2 -3
1532180117056821 -1 -3 -2 0 -3 -1 -2 -1
1532180117079759 0 0 -1 -2 0 -7 -1 -2
1532180117101701 -1 -2 0 -1 -1 1 1 -1
1532180117124639 -1 0 -2 -2 -2 0 -2 0
1532180117139600 -2 1 1 2 0 -1 -1 0
1532180117176514 1 0 -1 0 1 0 -2 0
1532180117200437 2 0 -2 -3 -1 0 -1 -2
1532180117222381 -1 -2 0 0 -2 1 1 0
1532180117237339 -1 0 0 -3 0 -1 -1 -1
1532180117267258 -1 -1 -2 -1 0 -1 -2 -2
1532180117289200 -1 0 0 -1 -3 -1 0 -1
1532180117304159 -1 -1 0 0 -1 -2 -2 2
1532180117330090 -3 -1 -1 -2 -2 0 -1 -1
1532180117357018 -1 -2 -1 1 2 -1 -1 -1
1532180117374970 1 0 -1 -1 -2 0 -1 -1
1532180117410874 -1 -2 0 -1 1 -1 -2 0
1532180117425834 -1 0 0 -2 0 1 0 0
1532180117446778 0 -2 -1 0 0 -1 -2 -1
1532180117477696 -1 -2 -2 -1 -1 -1 -2 -2
1532180117491658 -1 -1 -2 -2 -2 -1 0 0
1532180117529557 -2 -1 -1 -3 -1 -1 0 -3
1532180117535541 0 1 0 0 -1 -1 -3 0
1532180117581418 0 -3 -1 0 0 -3 -2 -1
1532180117603360 -2 -1 -3 -1 -1 0 0 1
1532180117622322 -1 -2 -1 -1 -1 -1 1 -1
1532180117655222 0 0 1 1 0 0 -1 -3
1532180117702095 -1 0 0 0 -1 -1 -2 -1
1532180117732015 0 0 -2 -1 -1 -1 -2 0
1532180117821775 1 0 0 -1 -1 -1 -2 -1
1532180117845720 -2 0 -2 0 -1 -1 -3 -2
1532180117881615 0 -2 -1 0 -1 -2 7 0
1532180117911535 -2 -1 -1 -1 -1 -2 -9 0
1532180118003290 -2 0 1 1 -1 0 -2 -2
1532180118086069 -1 1 -1 -1 -2 -1 -2 -3
1532180118100032 -2 -1 -1 -1 0 -2 -2 -1
1532180118160869 0 -1 0 -1 -2 0 0 -1
1532180118205749 0 -1 -1 -1 -1 0 0 -1
1532180118210735 2 0 -1 -1 0 0 -2 -1
1532180118242651 0 0 -2 -1 -2 0 2 -1
1532180118287530 1 1 0 -2 0 -1 0 0
1532180118317450 0 -2 -1 -1 -2 -3 -2 -2
1532180118365322 0 -3 -2 0 -2 -1 -1 -1
1532180118414191 -2 -2 -2 -2 -1 1 -1 -2
1532180118453087 -1 0 -2 -1 0 0 1 -1
1532180118563791 -1 -2 0 0 -1 -1 0 0
1532180118630612 -1 -1 -1 0 -2 -3 0 -1
1532180118676490 -1 0 -1 -1 -3 -11 -1 -2
1532180118723365 -2 2 0 1 -1 -10 0 -1
1532180118728351 -1 -2 -3 2 -5 -44 -3 0
1532180118827087 1 0 9 8 -5 -14 -3 0
1532180118879946 -3 -4 -12 -17 -4 -5 -8 -1
1532180118900890 0 -3 -13 -26 -6 -3 1 8
1532180118946767 -1 -3 4 25 -3 -18 -15 -4
1532180118960729 0 -4 -9 -11 -11 1 14 -10
1532180119006607 -3 -2 3 22 6 -7 0 -21
1532180119021567 -2 -4 -10 -2 37 5 -11 -3
1532180119074426 -4 0 4 -1 14 -1 3 -11
1532180119127284 -1 0 -1 -1 -16 -2 9 14
1532180119164185 -4 -3 -7 -12 0 3 7 -12
1532180119187125 0 0 0 -7 -7 1 12 8
1532180119232004 5 3 3 10 -9 -8 -3 10
1532180119246965 -3 1 0 -7 -7 0 -14 -22
1532180119299823 -4 2 0 -2 -2 -16 8 -2
1532180119320767 0 -2 -2 4 10 -4 -8 1
1532180119344703 0 3 2 7 -6 0 -2 -1
1532180119366644 11 2 1 -11 -9 5 11 24
1532180119380607 6 2 4 2 10 9 -7 39
1532180119404543 -7 -5 -5 -3 2 1 -39 -29
1532180119427482 -4 -3 -3 -8 -14 -2 22 -9
1532180119440447 -3 -2 -3 5 -3 -3 0 -7
1532180119472362 -5 1 1 5 3 3 7 -19
1532180119488319 -2 -1 -3 -8 -34 8 3 3
1532180119525220 1 -3 -1 -6 6 6 8 6
1532180119547162 -4 1 2 13 3 3 21 -12
1532180119553146 -1 0 0 0 -14 -12 -13 -13
1532180119592041 3 1 0 -1 2 3 2 0
1532180119608996 -1 1 0 0 12 12 -6 -6
1532180119643903 -2 -1 0 -1 5 -4 -10 0
1532180119665844 -3 -3 -4 -3 -6 -3 -5 -7
1532180119680804 0 -2 -1 -1 -8 -6 -4 -6
1532180119705738 0 -2 -4 -6 -7 -4 -2 4
1532180119750617 5 -1 -1 -3 0 -3 2 3
1532180119763583 -5 -1 0 7 27 3 4 2
1532180119787519 -1 1 0 -3 -14 -14 4 2
1532180119800484 1 -2 0 3 8 4 -7 1
1532180119825418 -1 -3 -4 -3 -8 -6 7 -7
1532180119846361 -3 -3 -2 3 -7 -10 -6 -4
1532180119869303 2 0 -3 -7 -6 0 -2 2
1532180119884260 5 0 2 1 0 1 -4 -4
1532180119907199 -6 0 0 4 5 11 -1 -8
1532180119929140 -6 -2 -3 -4 -7 -3 16 -2
1532180119967039 0 -1 -2 3 3 0 -3 -2
1532180119988980 -1 -1 0 -1 -21 -15 -7 1
1532180119997956 -2 -2 0 -6 -12 -3 -1 -4
1532180120017903 -5 -2 -1 2 8 2 -7 -5
1532180120048820 -2 -3 0 -1 3 3 3 1
1532180120063780 -2 -1 0 1 2 9 2 1
1532180120077743 4 1 2 4 -1 -1 -4 -1
1532180120123620 0 -3 -1 -2 15 1 1 12
1532180120147556 -1 0 0 3 5 2 3 10
1532180120169497 1 0 -1 -5 -19 -7 2 9
1532180120183460 -3 0 0 -5 -16 -10 1 -4
1532180120198420 -1 2 -1 7 8 1 0 -3
1532180120243300 1 -2 -1 -4 5 6 3 2
1532180120275215 -3 0 0 -8 -16 2 -5 -6
1532180120312116 0 0 -1 4 -5 -6 0 5
1532180120349017 2 -2 -3 -5 1 4 3 5
1532180120362980 -2 -1 -2 -4 -7 -9 -22 3
1532180120386922 -2 1 0 -2 -7 -1 -8 -6
1532180120409855 -1 -3 -3 -6 -22 -3 7 -3
1532180120422820 -4 -1 -4 -2 17 9 2 7
1532180120476676 4 2 -2 0 -5 0 7 13
1532180120491636 1 1 1 1 -16 -6 -4 3
1532180120529535 -3 -1 0 -1 10 -2 5 -8
1532180120543497 -2 1 1 2 7 -1 -2 -14
1532180120566436 3 -3 -1 -2 -2 5 6 12
1532180120589375 1 0 1 1 1 -13 -4 -1
1532180120603337 5 1 -2 -5 6 3 -5 -1
1532180120627273 -3 -2 -1 1 -3 5 -6 -9
1532180120649215 -6 -1 -1 4 12 4 9 -4
1532180120679140 -1 -2 -3 -11 -13 -3 -10 0
1532180120717033 -1 -1 0 -1 -6 -11 -8 11
1532180120739972 -2 1 -2 -1 -5 -3 0 2
1532180120776882 1 -2 0 2 -5 0 5 9
1532180120791834 2 0 0 -1 0 0 -2 10
1532180120859652 -2 -2 -1 -2 1 1 3 1
1532180120896553 -2 -2 -1 0 -1 -1 -7 -2
1532180120950409 3 4 1 -2 0 -3 3 2
1532180120980329 -3 2 3 -1 -2 7 -2 -4
1532180120985316 1 4 4 -1 0 14 31 1
1532180121070089 -1 -2 -5 -3 0 11 6 -3
1532180121151871 -3 -2 -4 -6 -9 -21 -9 -2
1532180121211710 -2 -3 -4 12 -11 -83 1 -3
1532180121256590 -1 2 -1 2 21 32 -5 -3
1532180121271551 0 1 1 -3 -15 34 -4 0
1532180121309449 -2 -2 1 5 41 65 5 -1
1532180121331390 1 2 5 0 -30 -75 -2 1
1532180121369305 1 -1 0 -1 -14 3 -2 2
1532180121403199 -1 -1 -1 -2 5 -15 6 -1
1532180121430126 0 1 -1 1 7 -13 -7 -2
1532180121452067 0 -1 1 0 2 -10 5 -1
1532180121474009 0 -2 -2 -3 -5 -5 5 -1
1532180121511908 -1 0 -1 -2 3 3 2 -1
1532180121572745 0 -1 -2 -1 -1 3 -1 -1
1532180121585717 -2 0 -4 -2 -2 -2 1 -1
1532180121631587 -1 -2 -1 -1 1 -5 0 -2
1532180121668489 -1 -2 -1 0 -3 -1 0 1
1532180121683450 0 -1 -1 0 -3 -3 -2 -2
1532180121714366 -1 -2 -2 -1 -3 2 -4 -1
1532180121743300 -1 0 -2 -1 -1 0 -1 -1
1532180121789166 0 0 0 2 -1 -1 1 1
1532180121825070 1 -1 1 -1 -2 -3 -1 -1

1532180121931785 -1 -1 -3 0 -1 -1 -2 0
1532180121969685 1 -1 -1 -1 -2 3 1 2
1532180121991625 0 -1 1 -1 -3 1 0 -1
1532180122053459 -3 -2 -1 -1 -1 -1 -1 0
1532180122059444 0 -1 -1 -3 -1 0 1 -2
1532180122103326 -2 -3 0 0 -3 1 -2 0
1532180122113299 0 0 -2 -1 -2 -1 2 -1
1532180122163166 0 -1 1 0 0 0 -2 -2
1532180122195081 1 0 -1 -1 0 -1 -1 0
1532180122261902 0 -1 -2 -1 -1 -1 -3 0
1532180122366658 -2 -1 -2 -1 -1 -1 -2 1
1532180122411538 0 -1 -1 -1 0 -1 -2 0
1532180122457416 -1 -1 -1 1 -1 -2 0 -2
1532180122508305 -1 0 -1 -2 -1 0 0 -1
1532180122539222 -2 -2 -1 1 -1 0 -2 0
1532180122577144 -1 -1 -3 -1 0 2 3 -1
1532180122599085 1 -1 -1 -1 -1 -1 -3 0
1532180122644962 -2 0 0 -3 -1 0 -2 -1
1532180122696823 -1 -1 -1 -2 -2 -1 -1 1
1532180122711783 -2 -1 0 0 0 -1 -2 -1
1532180122764642 -1 -1 0 -1 -1 -3 -2 -2
1532180122801543 -2 -1 -1 0 0 0 -4 0
1532180122839442 0 -1 -1 0 -2 0 -4 0
1532180122876343 0 -1 0 -1 0 -3 -2 -1
1532180122907260 -2 0 -1 -3 0 -1 -2 -1
1532180122959122 -2 0 -3 -2 -1 1 1 0
1532180122997020 0 -1 -1 -2 -1 -2 -1 -3
1532180123010982 -1 -1 1 0 0 0 -1 -1
1532180123041900 0 -1 -1 -2 0 0 0 -1
1532180123062845 -1 0 -1 0 -2 0 -1 0
1532180123094759 -3 -1 0 0 0 0 -1 -1
1532180123116700 0 -1 -2 -1 -2 0 -1 -1
1532180123162578 -2 -2 1 -1 0 -4 -2 -2
1532180123177537 -1 -3 0 -1 -3 -1 -2 0
1532180123199479 1 -2 -2 -1 0 -2 1 0
1532180123215436 -1 -3 -2 -1 -1 -2 0 0
1532180123236380 1 -2 1 -1 -1 -1 -2 -2
1532180123289238 0 -1 -1 -1 -1 1 0 1
1532180123310183 -1 -1 -2 2 0 -1 0 1
1532180123334119 -2 -1 0 -1 -1 0 -2 -1
1532180123396951 -1 -2 -1 0 -2 0 -1 0
1532180123416898 -1 -3 -1 -2 -1 -1 0 -1
1532180123454796 -1 0 0 1 0 0 -1 -2
1532180123476737 -2 -1 -1 0 -2 -1 2 -1
1532180123490700 -2 -1 -2 -4 -1 0 -1 0
1532180123550540 -2 -2 -2 -2 0 -1 -1 1
1532180123567495 -2 1 -2 0 0 0 0 -1
1532180123588455 -2 -1 -3 -2 -3 1 1 -1
1532180123620353 0 0 0 -1 1 -2 -1 -1
1532180123656257 -1 -2 -1 0 -1 -2 0 -1
1532180123701137 0 -2 -1 0 -2 0 1 0
1532180123760978 -3 -1 -1 -2 -1 -1 0 -1
1532180123798876 1 -1 -1 -1 -1 -1 -2 -2
1532180123827799 -2 0 0 -1 0 0 -1 0
1532180123858716 -1 0 -1 -1 -3 -2 -1 1
1532180123875678 -1 -2 -1 0 0 -1 -2 -1
1532180123887639 -1 -2 0 -1 -3 -1 -1 1
1532180123919554 -2 -1 -1 0 0 -1 0 -1
1532180123956455 0 0 -2 -2 1 -2 0 0
1532180123979393 -2 -2 -2 1 -1 0 -2 0
1532180124024273 -1 -1 -1 0 -1 -1 -2 -2
1532180124039233 -1 0 0 -1 0 0 2 -2
1532180124054193 -2 -2 0 -2 -2 -1 0 0
1532180124084113 -2 -1 -1 -1 -2 -1 -2 -1
1532180124107052 -1 0 0 -2 0 0 -1 -2
1532180124167889 -2 -1 0 -2 -1 -3 -4 -1
1532180124189831 0 0 -1 -1 -2 -3 0 0
1532180124202811 -2 -1 -2 -1 0 1 0 -2
1532180124228726 -1 -3 -3 -1 0 -2 -1 -2
1532180124241703 -1 1 -1 -2 0 -2 1 -1
1532180124280588 0 -1 0 -2 0 0 0 0
1532180124292556 -1 -2 0 -1 -1 -1 -1 0
1532180124309524 -1 0 0 0 0 -1 -2 -1
1532180124353394 0 0 -1 0 -1 -2 -2 0
1532180124392289 0 -1 -1 -1 -1 0 1 0
1532180124399271 -1 -1 1 -1 -1 -1 0 -2
1532180124430187 -3 -1 0 0 -1 0 -1 -1
1532180124459111 -3 -1 0 -3 -1 0 0 1
1532180124481051 -2 -2 -3 0 -2 -2 -2 -1
1532180124518950 0 -1 0 -1 0 0 -1 -2
1532180124550865 -1 -1 -1 -1 -1 -2 0 -2
1532180124555852 -1 -2 -1 -3 -2 0 -2 0
1532180124600732 -1 -2 -1 0 0 -1 -1 -2
1532180124624667 0 0 0 -1 -1 -2 -1 0
1532180124638630 -3 -1 -1 1 -1 0 -2 0
1532180124662570 -1 1 0 -1 0 -1 0 0
1532180124677527 0 -2 -2 -1 0 -3 0 -2
1532180124700465 0 -1 0 -2 -3 0 -1 -2
1532180124721417 -1 -3 -2 -2 -2 -1 -2 1
1532180124744347 -2 1 -1 -1 0 0 -1 -1
1532180124783244 0 0 -2 0 0 -1 1 -2
1532180124796209 0 -1 -1 0 1 -1 -2 0
1532180124820145 1 -1 0 -2 0 -1 -1 -1
1532180124849067 -1 -1 -1 -2 -3 0 -1 0
1532180124864028 -1 -1 -1 -1 -2 0 0 -1
1532180124878988 -1 0 -1 1 0 -1 -1 0
1532180124900929 0 -2 -1 -2 0 0 -1 -1
1532180124955783 0 -2 0 0 0 -2 0 -2
1532180124968748 -2 0 0 0 -1 -2 -3 -2
1532180124991687 -1 -1 0 0 0 -1 -2 0
1532180125006647 -1 -1 -3 -1 -2 -2 -1 -2
1532180125058508 0 0 -1 -1 1 -1 0 -1
1532180125080449 -1 0 0 -1 -1 -1 1 1
1532180125104385 -3 -4 0 -1 -2 -1 0 -4
1532180125118348 -1 -1 -3 -1 -1 -1 -1 0
1532180125141287 -1 1 0 -1 -1 -1 -1 -1
1532180125165222 0 1 0 0 -2 1 -1 0
1532180125209105 -1 -3 -2 -2 0 -1 0 -1
1532180125231046 -1 -2 -2 -2 -1 -1 -1 -3
1532180125260967 0 0 -4 -1 -1 -1 1 -1
1532180125275926 0 -2 0 -2 -2 -1 0 1
1532180125298865 -2 -1 -1 0 -1 -2 -3 -3
1532180125329782 0 -2 -1 0 0 0 1 0
1532180125343744 0 -2 0 -1 -1 -1 -2 -1
1532180125382641 -2 -1 -2 0 -1 -1 0 0
1532180125404583 -1 -2 -1 -2 -2 -1 0 -2
1532180125418545 -2 -2 -1 -1 -1 -1 -1 1
1532180125448464 -1 -1 -2 -1 -1 -1 -1 -1
1532180125463425 0 -1 0 0 -1 0 -1 -1
1532180125501324 0 -1 -1 -1 -1 -1 -1 3
1532180125524262 -1 1 0 -2 0 0 -1 0
1532180125538225 1 -1 -1 -1 0 -3 -2 -3
1532180125584102 -1 -1 -2 -1 -1 0 -1 0
1532180125614022 -1 -1 -1 -1 -3 -2 -2 0
1532180125628982 0 -1 -1 -1 -2 0 0 -1
1532180125651921 -2 -1 -1 -2 -1 -2 0 -1
1532180125680843 -2 -1 0 0 -1 0 -1 -1
1532180125704780 1 0 -2 -2 -2 -1 -1 0
1532180125734700 -1 -1 0 1 1 -3 -3 -1
1532180125740683 0 -1 -2 -1 -2 -1 -2 -2
1532180125772598 0 -1 -2 -2 -1 -1 -1 1
1532180125801521 -2 -2 -1 -1 -1 -1 0 0
1532180125824459 -1 0 -2 -2 -2 -2 -2 0
1532180125861361 0 -1 -2 -1 -1 -1 1 1
1532180125892278 0 -2 2 -1 0 0 -1 0
1532180125898262 -4 -2 -1 -1 0 0 -1 -2
1532180126011958 -1 -1 -3 -2 -2 -2 -2 -1
1532180126026918 0 0 1 -2 -1 -2 0 1
1532180126064817 0 -1 -2 -1 0 -1 -1 -2
1532180126116678 -2 -1 1 0 -1 -3 0 -2
1532180126131638 0 1 -1 0 -2 -2 -2 1
1532180126184497 -1 -2 -1 0 0 -2 -1 -1
1532180126221398 -3 0 -1 -2 -2 -1 -1 0
1532180126304176 0 -1 -2 0 -1 1 0 0
1532180126343072 -1 -1 -1 -1 -3 -1 -1 -1
1532180126393937 0 -2 -1 -1 0 1 -1 1
1532180126460757 -3 -3 -3 -7 1 49 -4 -2
1532180126491675 0 -2 -2 2 2 7 6 2
1532180126514617 -1 1 2 0 -2 -15 -3 -2
1532180126551515 -2 -2 -2 -7 -4 -7 -3 -1
1532180126574453 0 2 2 -1 3 -2 0 2
1532180126596396 -1 -3 -9 -10 8 -5 2 7
1532180126641275 -1 -1 3 -1 -16 -1 3 -9
1532180126679174 -2 4 12 14 0 1 -1 -9
1532180126725051 -4 -7 -6 1 5 1 -3 -36
1532180126769932 0 0 -3 -10 1 3 7 40
1532180126806833 -3 -1 -1 -12 -1 1 -18 -30
1532180126820795 39 0 0 0 10 3 -11 49
1532180126889611 -4 -1 -5 -1 -10 14 -3 12
1532180126911552 -9 -3 -2 1 5 12 17 1
1532180126934491 0 2 1 -1 -1 -13 -8 0
1532180126941473 2 -1 2 2 3 11 -3 -5
1532180126987350 2 0 3 0 5 -2 -11 2
1532180127001313 3 -2 -3 5 23 -1 4 1
1532180127017270 -2 -2 -1 -2 -2 4 -6 -16
1532180127026246 1 1 1 2 4 -6 -8 6
1532180127068134 -1 1 1 5 -9 -5 -2 10
1532180127106033 5 3 1 0 5 1 9 15
1532180127114011 -1 -3 -3 -14 -5 -4 -4 0
1532180127151910 1 0 3 13 -15 -3 -22 1
1532180127173851 2 -1 0 4 23 12 -1 2
1532180127180833 0 0 0 0 14 -5 -5 11
1532180127211749 -5 -2 -1 -5 -7 -10 2 -8
1532180127226710 0 0 0 5 -1 -1 2 7
1532180127256630 0 0 0 -2 9 2 6 9
1532180127294528 -7 -4 -4 1 10 4 2 -18
1532180127309503 2 2 0 -1 -4 5 2 -1
1532180127362346 -3 -1 2 6 3 3 -5 -9
1532180127377307 -2 -2 -3 -3 -3 -1 -1 0
1532180127429168 3 3 3 6 13 20 2 7
1532180127444128 -4 -4 -1 -2 -7 -1 -5 0
1532180127505963 -2 -2 -1 3 -8 -16 -9 -5
1532180127517931 -4 -2 0 6 2 -2 -3 -2
1532180127534885 0 -4 -1 -6 -14 -1 -6 -6
1532180127572784 -4 -2 -1 -3 -4 -2 -10 -10
1532180127587744 -1 0 0 0 -1 -1 -8 2
1532180127639606 4 3 4 12 -6 0 1 1
1532180127646587 1 -2 -4 -4 1 3 1 2
1532180127690470 0 1 -1 0 1 -5 5 2
1532180127743328 -3 -5 -3 -10 3 -3 -6 -4
1532180127758288 1 1 1 2 3 -4 -1 2
1532180127797184 -2 -4 -3 -8 2 0 -1 4
1532180127818128 0 1 0 -10 -15 -11 -7 1
1532180127849046 -3 -6 -2 -1 -10 -8 0 -7
1532180127895920 -2 6 0 0 4 0 2 2
1532180127901904 1 0 -1 7 -8 3 2 3
1532180127931824 1 -11 -3 -6 -11 -3 0 -3
1532180127969722 -1 -4 -1 -2 0 -1 2 7
1532180128051504 -1 0 0 -4 -8 0 1 -14
1532180128074443 0 -2 -2 -3 -9 0 -3 1
1532180128112342 -1 0 -6 -14 15 -4 -4 2
1532180128149243 0 -4 -1 2 15 3 -2 -2
1532180128172193 0 1 2 13 11 -4 -11 1
1532180128196118 0 -1 -1 0 -15 -2 -4 2
1532180128253963 2 -4 0 -5 -12 -8 -1 -9
1532180128261942 -5 -3 0 -3 -4 -2 3 -1
1532180128337739 4 -3 0 -6 -8 0 -4 5
1532180128361675 3 3 0 -1 5 4 4 10
1532180128389600 1 0 -1 1 4 6 3 -1
1532180128411542 1 -2 -1 0 -3 4 19 -2
1532180128449440 -1 -1 -2 1 -1 1 -1 -2
1532180128472379 -1 -1 -1 -1 -5 2 2 -1
1532180128509285 -1 0 1 1 0 2 -6 -6
1532180128554160 -2 0 0 -2 -2 -2 4 1
1532180128614001 -6 0 -1 -2 -2 -1 5 -9
1532180128631952 7 -1 -1 -2 -1 0 8 4
1532180128651899 -5 -1 0 0 0 4 4 0
1532180128674837 -3 0 3 -1 1 2 4 2
1532180128725701 -1 0 -5 -2 -2 -7 -6 -2
1532180128749637 1 0 -1 -3 -8 18 -8 -4
1532180128795515 1 0 2 6 14 11 11 5
1532180128894251 -3 -2 -1 0 -11 -1 -8 -1
1532180128899237 1 1 1 -1 4 31 7 0
1532180128975035 -2 0 -1 -1 4 17 3 -9
1532180129025899 2 -2 2 5 3 8 0 -2
1532180129062800 -1 -1 -1 -2 -6 -11 -2 -2
1532180129124634 2 0 0 -1 -6 -3 1 -5
1532180129145578 -3 0 0 -2 -5 -7 -1 0
1532180129199435 0 0 -2 -1 -4 -27 -1 -1

1532180129258282 -2 -1 -3 -1 2 10 -4 -4
1532180129297173 -1 0 -2 0 -2 2 -3 0
1532180129340059 -2 1 0 -1 -1 -2 -3 -1
1532180129371973 -2 0 -2 0 1 1 2 -2
1532180129410869 1 -3 -1 -1 -3 -2 0 0
1532180129514604 -3 0 -2 -3 -1 0 -2 -1
1532180129619328 1 -2 -1 -1 -3 -2 -3 -1
1532180129648247 -2 -1 -2 -1 0 -1 0 -1
1532180129694124 -1 0 -1 0 -1 -1 0 1
1532180129709084 0 -2 -1 -1 -1 0 -1 -3
1532180129753964 -1 -1 -1 -1 1 -1 0 1
1532180129767927 -2 1 1 -1 -2 -1 -1 -3
1532180129791862 -3 -1 -1 -1 -1 0 -2 -1
1532180129813804 0 -3 0 -1 -1 -1 1 -1
1532180129844721 0 1 -1 -1 -1 0 -1 -2
1532180129874641 -7 1 -2 -1 -2 -2 -1 0
1532180129887606 3 -1 -1 1 0 0 -2 0
1532180129897580 3 0 -1 -2 -3 -1 -3 -1
1532180129913537 0 1 -1 -1 0 -1 -1 0
1532180129950439 -3 1 -1 -1 -1 -3 0 -1
1532180129964402 1 -1 1 0 0 -2 0 -1
1532180129994321 -4 -9 -1 0 0 5 -2 -2
1532180130054161 0 3 -1 -1 -2 3 -1 0
1532180130068124 -3 -1 0 -1 -1 3 -1 0
1532180130127964 -3 -1 -1 1 1 -1 -1 -2
1532180130174590 0 -1 -1 0 0 1 0 0
1532180130188553 1 -2 0 -1 -1 0 -1 0
1532180130233433 1 0 -3 -1 -2 -2 -2 -1
1532180130287289 -1 -2 -1 1 -2 -1 -2 -1
1532180130317209 -1 -1 -1 -1 0 -2 0 -1
1532180130436889 -3 1 0 -3 -1 0 -1 -1
1532180130465812 -1 1 -2 0 -1 -1 -1 -1
1532180130483763 -1 0 0 0 -2 -2 0 -2
1532180130547600 0 -2 0 -3 -2 0 -2 -1
1532180130587494 0 -1 -1 -1 -2 -1 -1 0
1532180130611430 -2 -1 -1 -1 0 -1 0 -1
1532180130662293 -3 -2 -3 0 -1 0 -2 0
1532180130693211 -2 -1 0 -1 -1 -1 1 0
1532180130716149 1 -1 0 -2 -2 -1 -1 0
1532180130781974 -1 -1 -1 2 -1 0 -1 0
1532180130796934 -1 -1 -1 0 -2 -1 -1 -1
1532180130842811 -1 0 -1 -3 0 -3 -1 -1
1532180130864752 1 -1 0 -1 0 0 -1 0
1532180130886693 1 -1 -1 -1 -1 0 -2 0
1532180130915616 -1 -2 -1 -1 0 -1 1 -1
1532180130939552 1 -1 -2 -1 -2 -1 -2 -1
1532180130976453 -1 1 0 0 1 -1 0 -2
1532180130999392 -1 -1 -1 -1 -3 -1 -3 -1
1532180131014351 0 -2 -1 -2 -1 -1 0 -1
1532180131044272 -1 -1 -2 -1 0 -1 -1 -1
1532180131059232 -2 -1 -2 -2 0 -1 1 0
1532180131089152 0 -1 -2 0 -2 0 -2 -1
1532180131097131 0 -1 0 0 0 -1 -1 -2
1532180131127051 0 0 0 -3 -1 -2 -1 -2
1532180131163952 -1 -1 -2 -2 0 -2 0 0
1532180131170933 -2 0 -2 -1 0 1 -2 -1
1532180131209829 0 -1 -2 -1 0 -1 0 -1
1532180131216811 -2 0 -1 -1 -3 -1 0 -1
1532180131246730 0 -3 1 -1 0 -1 1 2
1532180131253712 0 -1 -2 -2 -2 -2 -2 -2
1532180131293605 0 -1 -2 0 -1 0 0 -1
1532180131299589 -2 -1 -1 -2 1 -1 0 2
1532180131329509 -2 0 1 0 -1 0 -3 -1
1532180131336495 1 -2 -1 -2 -1 -2 0 -2
1532180131359430 -1 -2 0 1 -2 -1 -1 -2
1532180131382368 0 -1 -2 -1 -2 0 -2 -3
1532180131397328 -1 -1 -2 1 -2 1 1 0
1532180131420267 0 -2 0 -2 -1 -1 -3 -1
1532180131441211 -1 -2 0 0 1 -1 0 -1
1532180131457168 -1 -2 -1 -2 0 -1 -1 -1
1532180131480106 -1 -1 -2 -2 -1 -2 0 -3
1532180131508032 -2 0 -2 0 -1 0 -2 -2
1532180131522992 -1 0 0 -1 -1 0 1 1
1532180131576848 -2 0 -2 -1 -1 -2 -1 2
1532180131627712 -2 -3 -1 -2 0 0 -1 -2
1532180131660629 -1 1 0 -1 1 2 -3 0
1532180131696528 0 -1 0 -1 -4 1 0 -1
1532180131720464 -3 -2 0 -2 1 -2 -1 -1
1532180131734433 0 -1 -2 -1 -1 -2 -2 0
1532180131787285 -2 -2 -1 1 -1 -2 0 -1
1532180131793269 -2 0 0 0 -1 0 0 -1
1532180131839146 -1 -2 -1 0 -1 0 -1 0
1532180131869066 -2 -1 0 -2 -1 -1 -1 -2
1532180131876048 1 -1 -3 -3 0 -1 -1 -1
1532180131898986 -1 0 0 0 -1 2 -1 -2
1532180131922923 0 -2 -1 -1 -2 -1 -1 0
1532180131935892 -1 -2 -2 0 -2 -2 -2 -1
1532180131972789 0 -1 -3 -2 -1 -1 -2 -1
1532180131998720 -1 0 -1 -2 -2 -1 -2 -2
1532180132026645 -1 0 1 -1 0 0 1 0
1532180132056565 0 -1 -1 0 -1 -1 -1 -1
1532180132078507 0 0 0 0 -1 -1 -1 -1
1532180132118400 -2 0 0 -1 -1 -2 0 -2
1532180132123386 -1 -1 -1 0 -2 -1 -1 -1
1532180132146325 1 -2 -1 0 -1 -2 -1 -1
1532180132192202 -1 0 -2 0 -1 0 -1 1
1532180132209157 -2 0 -1 -2 0 -1 0 -2
1532180132236091 -3 0 0 -1 0 -2 0 -1
1532180132273983 0 -1 -1 0 -1 -2 -2 -3
1532180132281962 1 -1 -1 -1 -1 -1 0 1
1532180132320858 0 -3 -1 -1 -1 -1 0 -2
1532180132341802 0 2 -2 -2 -1 -1 -1 1
1532180132356762 -1 0 -3 -1 0 0 -1 -2
1532180132394661 -1 -1 1 -2 0 0 -1 0
1532180132409624 -1 -1 0 -1 0 -2 -1 -1
1532180132438544 -1 -2 -1 0 -1 0 -1 -1
1532180132462479 -2 0 -1 0 -2 -3 -2 -1
1532180132476442 0 -2 -1 -1 -2 -2 -2 -1
1532180132516335 1 -1 -3 1 -1 0 -1 -1
1532180132522320 0 0 0 -1 -1 -1 0 0
1532180132558224 -2 0 0 -1 0 0 -1 1
1532180132582179 -1 -2 -2 1 -2 -1 0 -3
1532180132605124 -1 -1 -1 0 -2 1 -2 -1
1532180132642018 0 -4 -3 -2 0 0 -2 0
1532180132671938 -1 2 0 -1 0 -2 0 0
1532180132715821 -2 -1 1 0 -2 -1 -1 0
1532180132739756 0 -1 0 -1 0 -2 -1 -1
1532180132769676 -1 0 1 -2 -2 -1 -2 1
1532180132783640 -3 0 0 1 -1 -1 0 0
1532180132829517 0 -1 -3 -2 0 -2 1 -1
1532180132843479 1 1 0 0 -2 2 0 -1
1532180132883373 -2 1 -2 -1 -2 -2 -1 -3
1532180132895341 -3 -1 -2 0 -2 0 -1 0
1532180132918279 1 -1 2 0 0 -1 0 -2
1532180132942224 -1 -1 -2 -2 0 -2 -1 -1
1532180132955181 -1 -2 -1 -1 -1 -1 -1 0
1532180132987096 -1 1 2 0 0 -1 -2 -3
1532180133010035 -1 0 -2 -2 -1 -1 -1 0
1532180133055912 -1 -1 0 -1 -2 -2 0 0
1532180133070872 -2 -1 -1 -2 -3 -1 -2 -1
1532180133121736 -2 -1 -1 -1 0 -1 -1 0
1532180133158637 2 -1 1 -2 -3 -1 0 -4
1532180133228450 -2 0 -1 0 -1 -2 0 1
1532180133256375 0 -1 -2 0 -1 -3 -1 0
1532180133302252 -2 -1 0 0 1 0 -2 -2
1532180133324194 0 -1 -1 -1 -1 1 -1 0
1532180133384034 0 -3 -1 -1 -1 1 0 0
1532180133422929 0 -1 -1 -3 -1 -2 0 1
1532180133451853 1 0 -2 -1 -1 -2 -1 -2
1532180133482769 0 1 -1 -2 0 -2 -1 1
1532180133504712 -2 -1 -2 -2 -2 0 -3 0
1532180133518674 -1 -1 0 0 0 -1 -1 -2
1532180133586493 -1 -1 -3 -3 1 -2 0 0
1532180133638354 -1 -1 0 -2 0 -2 0 0
1532180133691213 -2 0 -1 0 1 -1 -1 0
1532180133730108 -2 0 -2 -1 0 1 -1 -2
1532180133782967 -1 1 -1 -2 -2 -1 0 -2
1532180133803911 0 -1 -1 -2 -2 0 -1 -1
1532180133834829 0 0 -2 -2 0 0 -1 -2
1532180133873725 -1 1 -1 0 -2 -2 -2 1
1532180133877714 -2 -3 -2 -2 -1 0 0 0
1532180133905639 -2 -2 -1 0 0 -2 0 -2
1532180133931570 0 0 -2 -2 -1 1 0 -1
1532180133953511 -1 1 0 -2 -1 0 -1 0
1532180134015345 -2 -1 -2 -1 0 0 -1 0
1532180134059229 -1 -1 -2 0 -2 -2 -2 -2
1532180134089149 -2 -1 -1 -1 0 -1 -2 -3
1532180134142007 -1 -1 -2 -2 -1 1 0 -1
1532180134173922 -2 -1 -3 -1 1 -1 -3 0
1532180134216807 -1 -1 0 -3 -12 -29 -2 0
1532180134301580 1 -1 -3 -2 1 -3 -1 -1
1532180134382365 1 -1 12 8 -3 -2 -1 0
1532180134428242 -6 -2 -7 -15 -22 -5 -9 -9
1532180134458161 6 5 -3 16 20 3 3 -15
1532180134496061 -2 -1 -8 -5 -12 -1 -2 0
1532180134503042 0 -1 10 7 -6 -3 -4 -7
1532180134531964 -4 2 -4 -12 9 0 1 8
1532180134560887 -6 -9 -2 -4 -13 -4 -1 -26
1532180134614743 4 -2 1 4 7 11 18 5
1532180134666605 -6 2 7 15 3 -4 -24 -9
1532180134680567 6 -1 -7 -7 13 4 3 5
1532180134712494 6 1 3 7 4 4 7 37
1532180134720461 -9 -4 -5 -3 14 -9 -11 -30
1532180134749383 -3 -4 -4 -5 -11 -11 14 9
1532180134771324 8 3 -2 0 2 9 16 28
1532180134787282 -2 1 3 -1 10 1 3 11
1532180134800247 2 -16 -7 0 -24 -9 -3 2
1532180134809223 -1 4 3 1 10 2 0 0
1532180134860087 0 -6 2 -3 -15 -5 -2 7
1532180134892002 -8 -7 -5 -8 -9 -1 -20 -5
1532180134928902 -1 -2 -4 -11 -9 -4 -4 -8
1532180134943863 -3 2 -1 -8 -33 -16 -2 2
1532180134996722 5 2 0 1 -22 -4 1 14
1532180135064540 3 0 -1 2 2 1 -14 5
1532180135086482 -3 -3 -5 -4 -1 6 6 -3
1532180135132367 1 -4 0 -2 16 3 -4 7
1532180135147319 -3 0 1 -1 11 -1 -2 -1
1532180135168263 -2 -1 0 4 -6 -3 2 -5
1532180135178237 -3 0 -1 -4 -4 4 -5 -1
1532180135213143 3 12 1 -2 -16 -7 -8 5
1532180135237080 -4 -6 -1 7 11 -3 5 -3
1532180135266998 -1 4 0 2 11 -1 -8 -4
1532180135303900 -5 -2 -1 6 -1 6 -1 -2
1532180135328849 1 0 0 3 1 -3 -2 -2
1532180135363740 -5 1 -2 3 12 0 -6 -8
1532180135409627 -2 3 -2 -3 0 -4 -5 -4
1532180135423580 0 -3 -2 -2 -1 13 0 -6
1532180135447516 2 3 1 0 22 19 22 0
1532180135493393 4 2 4 10 4 1 6 15
1532180135506359 2 -3 -5 -3 -9 0 -1 6
1532180135574177 -5 -2 -2 0 14 3 -19 -8
1532180135650972 2 1 0 -6 -13 -1 14 3
1532180135656956 -5 -4 -3 -8 -2 -1 1 -8
1532180135687873 -2 1 -3 -7 -7 -1 -3 -4
1532180135746716 4 0 -1 2 4 -2 -5 2
1532180135792593 0 -1 -1 -6 7 4 8 0
1532180135829495 -3 -1 -2 -4 0 4 -1 -4
1532180135866396 -3 -5 -3 -11 -18 4 -7 -3
1532180135912273 -2 -4 -1 1 2 -2 -4 0
1532180135949175 0 -1 1 -2 -9 -1 12 -4
1532180135979094 -4 -3 0 10 5 3 9 -3
1532180136016993 1 -3 -1 -3 2 -3 -3 -17
1532180136038935 -3 -13 -5 -7 -4 -3 3 2
1532180136075836 -3 -1 -4 -2 -2 -14 -7 -8
1532180136091793 0 1 2 1 -13 -2 -26 11
1532180136136673 2 -3 1 -1 1 1 16 7
1532180136159612 -3 5 0 2 4 -1 -2 -10
1532180136196513 -4 -3 -2 -5 -7 0 -1 -2
1532180136228440 0 -1 0 -2 4 -2 -7 3
1532180136272310 -1 2 -1 -3 -4 2 14 -1
1532180136286273 -1 -4 -3 -4 7 7 7 -2
1532180136317191 6 -1 -2 1 -3 -8 -6 9
1532180136339132 -3 -2 -2 -5 -3 6 -20 -6
1532180136405953 -2 -1 0 0 -1 -4 -7 -3
1532180136436871 -1 -2 0 0 1 0 -3 -3
1532180136473772 -2 0 1 -3 -4 -7 -10 -2
1532180136505687 -1 0 2 0 -1 0 -6 -1
1532180136526630 -1 -3 0 2 -1 2 2 -1
1532180136535607 -1 0 -2 -1 -1 -6 4 -2
1532180136571510 3 -2 -1 0 -1 0 -2 -2
1532180136585473 -2 0 -2 0 -1 -4 -2 0
1532180136609409 -1 -1 -1 -4 -2 -2 -11 -2
1532180136631350 -2 -1 -3 -4 -6 -26 -20 -4
1532180136645313 -2 -1 -1 -2 0 0 5 0
1532180136692187 0 1 -1 -2 14 23 -1 0
1532180136705153 1 1 3 4 -6 3 12 1
1532180136729089 0 -1 -2 0 0 -20 -4 1
1532180136760007 -3 -2 -2 -6 -15 -48 -12 -3
1532180136781948 -1 1 2 0 -17 -43 0 1
1532180136795911 4 5 6 12 14 -13 -2 2
1532180136813863 -2 -3 -6 -5 18 47 22 -2
1532180136938528 -1 0 0 -2 -22 -15 11 0
1532180136956481 -2 -3 -3 -9 14 3 8 0
1532180136970457 -2 -3 -4 -2 -21 3 -17 -4
1532180136991388 0 1 1 4 -8 -15 -3 -3
1532180137031281 0 -3 -3 -1 21 5 2 -3
1532180137052225 -1 0 -2 0 -2 -13 0 -1
1532180137088129 -2 -2 -1 -3 -5 -6 -4 -2
1532180137112065 0 -1 1 1 -1 5 -6 -1
1532180137134006 -1 -1 -1 -1 -3 0 -6 -2
1532180137141985 0 0 0 -2 -3 4 1 0

1532180137178886 -2 -1 0 -1 -2 -11 7 -3
1532180137194843 0 1 -2 0 0 -6 -12 0
1532180137216796 -1 -2 0 -1 -2 -3 -2 0
1532180137233740 1 -2 -3 -2 0 9 -10 -4
1532180137270641 15 -3 -4 -2 -7 13 8 4
1532180137282479 -4 -2 0 -1 -3 -14 -2 -5
1532180137299434 -6 0 -1 -3 -2 -1 -7 -2
1532180137328356 0 1 0 -2 -3 -8 -3 -2
1532180137375244 -3 -4 -2 -3 4 6 -1 -1
1532180137388196 -1 0 -2 0 -2 -6 -3 0
1532180137427128 -1 0 -2 -1 -6 -5 -3 0
1532180137434111 1 -2 -2 0 -3 -4 -2 -3
1532180137448073 -2 -1 0 -1 1 0 -1 0
1532180137472009 0 -2 -3 -1 -5 0 -1 0
1532180137493951 -1 0 -2 -1 -1 -2 -2 -1
1532180137524868 0 1 -2 -1 -3 0 1 0
1532180137554788 -2 0 0 -3 -2 0 -1 -1
1532180137567753 -1 -1 -1 -1 0 -2 -2 -1
1532180137606598 0 -2 0 -1 -1 2 0 -1
1532180137628540 -1 -3 0 -4 -1 -2 0 -5
1532180137666438 -1 -2 -2 0 -1 1 1 2
1532180137681398 -1 -1 0 0 -2 0 0 1
1532180137697355 -1 -1 -1 -1 -2 -1 1 -1
1532180137734256 -2 -3 -1 0 0 -2 -1 -1
1532180137772155 -1 0 1 -2 0 -2 -1 -1
1532180137795094 -1 -1 -1 0 1 0 -1 -2
1532180137816037 0 0 -2 -1 -3 0 -2 -2
1532180137824017 -1 0 0 0 -3 -1 -1 0
1532180137861915 -2 0 -1 -1 -3 -2 -3 -1
1532180137876875 1 -2 0 -3 -1 -1 -1 0
1532180137891835 0 -1 1 0 -2 1 0 0
1532180137959654 -1 0 -2 0 -1 0 1 0
1532180137996555 -1 -2 -2 0 -3 -1 -1 -2
1532180138034454 -3 -2 -2 0 1 1 -1 -1
1532180138064374 -1 -2 0 -1 -2 -2 -1 1
1532180138079334 1 -1 0 -1 -1 -1 0 0
1532180138102272 -3 1 -2 -3 -1 1 1 0
1532180138131194 0 -1 -1 -1 0 -1 0 -3
1532180138154134 0 -2 -3 0 -1 0 -2 -2
1532180138191035 -1 -2 0 -1 -2 0 0 0
1532180138236951 -2 0 -1 -2 -3 -1 -2 0
1532180138257895 -3 -3 0 -1 0 0 -2 -1
1532180138275850 -1 1 -1 -1 -2 0 -2 -2
1532180138302774 0 1 0 -1 0 -1 -2 -1
1532180138317735 -1 -1 -1 -2 -1 -2 -2 1
1532180138335713 -1 -1 -2 -1 -1 -1 -2 2
1532180138358640 0 0 -2 -1 -2 -1 -1 0
1532180138379585 0 -3 1 0 -1 0 0 1
1532180138396551 -1 -3 0 -1 -2 -2 -1 -2
1532180138418490 -2 -1 -2 0 -2 0 0 -1
1532180138441419 1 0 0 0 0 -1 -1 -1
1532180138463377 0 -1 -1 -2 0 -2 0 -1
1532180138501259 0 0 0 0 0 0 1 -2
1532180138505248 -2 -2 -1 -2 -2 0 -1 0
1532180138544145 -1 -1 -2 0 0 -1 1 -1
1532180138559105 -1 -1 -1 -1 -2 0 -1 -1
1532180138597003 -2 -2 -2 -2 -2 -1 -2 -2
1532180138618951 0 -2 -1 0 0 0 0 0
1532180138633912 -1 -1 -1 0 -1 0 -2 -2
1532180138656850 -1 -2 0 -1 1 -1 -1 0
1532180138679789 -2 -1 -1 0 0 -1 -2 -3
1532180138740625 0 0 0 -1 -2 0 0 -1
1532180138754588 -2 -1 -2 -2 -2 -1 -2 -1
1532180138790492 -2 -1 -2 0 0 1 0 -2
1532180138820412 -2 -1 -1 -1 -1 -2 -1 -2
1532180138859309 -1 -1 -1 -2 0 -1 1 0
1532180138882246 -3 -2 -1 -1 -2 1 1 0
1532180138918151 -1 0 -2 -2 -1 -2 -2 -2
1532180138935106 0 -2 0 0 -1 -1 -2 -2
1532180139003922 1 -1 -1 -1 0 -1 0 -1
1532180139023868 -1 -1 -1 -1 -2 -2 -1 -1
1532180139052800 0 -1 0 -2 -2 -1 -1 0
1532180139098669 -1 -1 -1 -1 -2 -1 0 0
1532180139121607 -1 0 -1 -2 0 1 0 -1
1532180139144546 0 -2 -1 0 0 0 -2 0
1532180139175463 0 0 -2 -2 -1 -1 -1 -3
1532180139188428 -3 0 -2 -2 -2 1 -2 -1
1532180139211367 -1 0 -1 -1 0 -1 -2 -1
1532180139218349 0 0 -1 -1 -1 0 0 0
1532180139256246 -1 0 0 -2 -2 -3 -1 0
1532180139295143 -2 0 -1 -2 -1 -2 0 -3
1532180139332044 -2 0 0 -1 -1 0 -2 -1
1532180139385901 -1 0 0 -2 -1 -1 0 -1
1532180139399862 -2 -1 -1 -1 0 -2 0 0
1532180139414823 0 0 -4 -1 0 0 -1 -1
1532180139451725 0 -1 1 0 -2 -1 0 1
1532180139466684 -1 -1 -3 -1 0 -3 -2 -1
1532180139504582 0 -2 -2 -1 -1 0 0 -3
1532180139534503 -1 0 0 -1 1 -1 1 -1
1532180139548466 0 -2 -1 -2 -1 -2 -2 -1
1532180139578385 0 -1 -1 -2 -2 -2 1 -2
1532180139624263 -2 0 -1 -1 -1 -1 -3 -1
1532180139663159 0 -3 0 -1 -1 1 -2 -1
1532180139676124 0 0 0 -1 0 0 -2 1
1532180139699063 -2 -1 -2 -1 -1 -1 1 -1
1532180139721004 -1 -1 0 0 0 0 0 0
1532180139766882 0 1 1 -2 -2 -1 -1 -2
1532180139781841 -2 0 -1 1 -2 0 0 -1
1532180139810764 -2 0 -2 1 -1 -2 1 -1
1532180139841681 0 -2 -2 -2 0 0 -1 -1
1532180139864620 -1 -1 -2 1 -2 0 -1 -1
1532180139886562 -1 -2 -1 0 -1 0 -1 0
1532180139902519 -3 -1 -1 0 0 0 -1 -1
1532180139916481 -2 0 -1 -2 1 -2 -1 -1
1532180139939420 0 0 -1 0 0 -1 0 -2
1532180139976322 0 -2 0 -2 -2 0 1 0
1532180139987292 0 0 0 0 -2 -3 -3 -1
1532180140008236 -2 -3 -1 -2 1 0 0 -1
1532180140036161 -1 -1 -2 -1 -2 -2 -1 -1
1532180140059100 0 -1 1 1 -2 -2 -2 1
1532180140082039 -1 -1 0 0 1 -1 -2 -1
1532180140096999 0 0 -2 -2 -2 0 -1 0
1532180140148859 -1 -1 -3 -1 -1 -1 -1 -1
1532180140178780 0 -2 0 0 0 0 -1 -1
1532180140209698 0 -2 -2 -1 -1 -1 1 0
1532180140247596 -1 1 -2 -2 -1 -1 0 -2
1532180140261559 -3 -1 0 -1 0 -1 -1 0
1532180140298459 -1 -1 0 -1 -1 -1 -2 -2
1532180140325388 0 -2 -2 -1 -2 -1 -1 0
1532180140336369 -1 0 -1 -1 2 0 -2 -2
1532180140359297 -2 -2 -1 0 -2 -1 -1 0
1532180140390215 1 0 -2 0 0 -1 1 0
1532180140404177 -1 -1 0 0 -1 -1 -2 -1
1532180140443073 1 1 -3 0 -1 -1 -2 -1
1532180140455041 -1 0 -2 -3 0 -2 1 -3
1532180140508897 -1 -1 -2 -1 -2 -2 0 -2
1532180140515878 -2 0 0 -1 -3 -1 -2 0
1532180140538817 -1 -3 -1 -1 -1 0 -2 -1
1532180140575718 -1 -2 0 0 -1 -1 -1 -1
1532180140598657 1 -2 -3 -1 -1 -1 -1 -1
1532180140621596 -1 -2 -2 0 0 0 -1 0
1532180140658497 0 -2 0 -1 0 -2 -1 -1
1532180140681435 -1 -1 -2 -2 0 0 0 0
1532180140704375 -1 -1 -1 0 -2 0 0 0
1532180140765212 -1 -1 -2 -2 1 0 -1 -1
1532180140787153 -1 -1 -1 -2 0 -2 -2 0
1532180140802113 -1 0 -2 -1 -1 -1 -2 -1
1532180140832033 -2 -1 0 -1 -1 -2 -1 -1
1532180140862950 1 -2 1 -2 -2 -1 0 -2
1532180140883894 -3 1 1 -2 -2 -2 0 0
1532180140906833 1 -1 -2 1 0 -1 -1 0
1532180140922790 -1 0 1 0 -1 1 -3 -2
1532180140944732 1 1 -2 -2 -2 -1 0 1
1532180140958695 -1 -3 -2 0 1 0 -1 -1
1532180140981633 -1 -1 -1 0 -1 -1 -1 -2
1532180141011553 0 -1 -4 -2 -3 0 0 -1
1532180141050449 -2 -2 -1 -3 -1 -1 -1 -2
1532180141078374 1 0 0 -1 -2 0 0 -1
1532180141124252 -4 0 0 0 0 0 -1 -2
1532180141162150 -3 -1 -1 -2 0 -1 0 0
1532180141192070 0 0 -1 -1 -1 -2 -1 -1
1532180141221990 0 -2 -1 -2 0 -2 -2 -1
1532180141243932 -4 -1 -2 -1 -3 -1 -1 -1
1532180141258892 0 -3 0 0 -2 0 -1 -1
1532180141281830 -4 -2 0 -2 -3 -1 0 -1
1532180141303772 -1 0 -1 0 -1 -1 -1 -1
1532180141341670 -1 0 0 0 1 -2 0 -2
1532180141377575 -1 1 -3 0 -1 -2 -1 -1
1532180141409489 0 -3 -1 0 -1 0 -2 2
1532180141446390 0 0 -1 0 -1 -1 0 -1
1532180141461351 0 0 -1 0 -1 -1 -4 -1
1532180141514208 0 -3 -2 -1 0 -2 -3 -1
1532180141552107 -2 -3 -1 -2 -1 -1 -1 0
1532180141567068 -2 -1 -2 -2 -1 -1 0 -1
1532180141606960 -1 0 -1 0 0 -1 -2 -1
1532180141634886 -1 -1 -1 -2 -1 -1 0 -1
1532180141643863 -2 -1 -2 -1 -2 -3 -1 1
1532180141686748 -1 -1 0 0 0 -1 -1 -2
1532180141724646 -1 -2 -2 -3 -2 -1 0 0
1532180141754566 -1 -2 -1 -1 0 0 0 0
1532180141791467 -2 -3 -2 -1 -1 0 -1 -2
1532180141831361 -1 -2 -2 0 0 -1 -1 1
1532180141835350 -2 0 -2 -1 -1 -1 0 0
1532180141874247 -1 2 -1 -4 -2 -2 -1 1
1532180141904165 -2 -2 -1 0 0 -2 -2 -2
1532180141927105 -1 -3 -1 -1 -1 0 0 -1
1532180141964006 -1 0 0 -1 0 0 -1 0
1532180142000907 -3 -2 1 0 0 -1 -2 -2
1532180142023846 0 -1 -1 -1 -1 -2 0 -1
1532180142054763 0 1 0 0 -2 -1 -2 -1
1532180142069739 -2 -2 0 0 -2 -1 -1 -1
1532180142084683 0 0 -1 0 -1 0 0 0
1532180142106625 -2 -1 -2 -1 -1 -1 -2 -1
1532180142146518 -1 -1 0 -2 -2 -1 -1 -1
1532180142165467 -1 0 0 -3 -1 -1 -2 -2
1532180142218325 -3 -1 -1 -1 -1 -3 0 -2
1532180142228306 -2 -1 -1 0 0 -1 1 -1
1532180142309083 -2 -3 -1 2 -1 0 -2 -1
1532180142317062 0 -2 -2 -1 -1 -2 -2 0
1532180142346982 -1 0 -2 -3 -1 -1 0 -1
1532180142386875 0 0 -2 -1 0 -1 -1 -2
1532180142436748 0 -1 0 -1 -2 -2 0 1
1532180142470652 -2 -1 -1 0 -2 2 -2 0
1532180142534481 -2 0 0 -1 -2 1 0 0
1532180142626235 1 0 0 -1 2 -1 0 -1
1532180142662139 -1 -1 0 0 -1 -1 0 -1
1532180142715015 -4 -2 2 0 5 43 8 -4
1532180142774837 -4 1 -2 5 0 -12 2 -1
1532180142834677 -5 -2 -5 -5 -12 -13 1 1
1532180142909478 8 2 -3 -5 -9 -7 -18 2
1532180142992256 -6 1 -1 3 -36 0 -2 26
1532180143037137 -5 1 7 10 3 4 -6 -13
1532180143126897 4 2 -1 4 12 5 -13 -1
1532180143192721 -4 -8 -9 -14 -13 -12 -18 -8
1532180143218651 -9 -6 -6 -19 -20 13 18 40
1532180143231616 9 3 0 -3 -4 7 -4 -11
1532180143269516 7 2 -3 -3 -3 -9 -24 -3
1532180143299435 3 -3 1 19 -17 -3 5 8
1532180143329355 -5 -2 -4 -2 -18 1 11 11
1532180143389195 -5 -3 -4 -13 8 1 -11 -11
1532180143403158 0 -3 -4 -8 8 3 -6 26
1532180143412133 -7 -2 0 -6 -20 0 -5 -12
1532180143457014 2 0 -1 -4 -8 -8 2 -10
1532180143493915 2 2 2 11 13 1 -5 6
1532180143508875 1 1 1 0 -9 -4 -4 17
1532180143548768 1 -16 0 -6 3 1 -18 7
1532180143584672 0 0 -1 2 10 5 1 -5
1532180143606613 0 -4 0 1 -2 -4 5 -11
1532180143629552 -2 0 7 21 12 -5 5 -17
1532180143651494 3 0 -5 -11 -33 -4 -2 -2
1532180143688395 -1 -1 -2 -12 9 2 -1 4
1532180143712330 3 -2 -2 0 8 2 -8 10
1532180143726294 -5 -2 -1 -4 -11 -3 -17 -11
1532180143772171 -1 -1 -1 1 9 7 8 -2
1532180143786134 0 0 -1 1 7 -2 3 5
1532180143832011 0 0 1 -5 1 6 5 4
1532180143870907 -9 -10 -4 -3 -1 -6 -4 -5
1532180143891851 -4 -10 -1 7 -3 -12 -13 -2
1532180143905814 -2 -2 -1 -6 -27 -21 4 4
1532180143929750 -1 -2 1 -2 -3 4 -11 -11
1532180143988592 2 1 -3 -8 -5 4 5 7
1532180143996571 0 2 2 11 1 7 3 5
1532180144026491 4 1 -1 -6 2 -13 -1 12
1532180144040454 1 0 -2 -3 22 4 0 -13
1532180144051424 0 -2 2 1 -23 -18 -17 6
1532180144081344 -1 -1 -2 -3 0 4 7 -6
1532180144094309 -2 -2 0 -3 -7 -1 -27 0
1532180144132208 -3 2 2 4 -2 3 -6 -3
1532180144154149 -2 -1 -3 -5 -6 -2 5 -5
1532180144208005 2 -1 -2 -4 0 -6 2 2
1532180144221969 -1 0 -1 -5 2 0 -6 -11
1532180144238923 -1 0 -4 -2 -20 -2 3 -5
1532180144260864 1 -2 0 7 -17 -6 -6 2
1532180144283803 -1 -1 -3 0 2 -13 4 2
1532180144290796 0 2 0 1 1 6 -4 -36
1532180144328683 1 -1 0 7 24 1 15 14
1532180144334667 -1 -1 0 -5 -16 4 1 20
1532180144356607 -1 -3 -1 -6 -14 -2 -3 7
1532180144380544 -4 0 -2 -9 -9 -6 -29 -28
1532180144395504 2 -1 1 -3 -2 1 10 8
1532180144431408 -3 -3 -3 -3 -9 4 -1 -10
1532180144462325 2 1 1 10 29 4 -1 -2
1532180144499227 -4 -4 -4 -10 5 4 5 -8
1532180144514187 -1 -2 -2 0 8 -2 -6 0
1532180144530144 2 -1 -3 -5 -3 -4 1 2
1532180144552085 0 1 0 -1 -13 4 9 16
1532180144582005 1 0 1 0 -2 -7 -3 3
1532180144587989 1 0 -4 -3 1 -3 6 0
1532180144618907 -1 -1 -1 -1 8 -2 -1 -8
1532180144633867 4 3 1 -4 -6 2 3 -20
1532180144671765 0 -1 -2 2 -9 -2 -7 4
1532180144701685 -1 -2 0 1 8 -6 -2 -2
1532180144724624 1 -1 0 0 -2 0 -1 7
1532180144745568 -1 -1 2 2 0 3 2 3
1532180144777483 0 -1 -1 -1 5 -2 2 5
1532180144814383 -3 -3 1 0 -4 -1 -1 0
1532180144828346 1 0 -2 0 2 0 2 -2
1532180144852283 0 -1 -2 -3 5 1 3 -3
1532180144874230 -2 -1 -3 -1 -5 -3 -6 -8
1532180144897163 -2 0 0 -1 12 -1 1 -4
1532180144934064 -3 0 0 -1 -4 -1 4 7
1532180144973957 1 -2 0 -3 -3 -4 -15 -5
1532180145001883 -1 -1 -1 1 -1 -5 -1 8
1532180145016842 -3 -2 -2 1 0 1 3 -3
1532180145076682 -2 -2 -2 -2 -1 2 5 2
1532180145091675 -3 -1 -1 3 -2 -13 -17 -3
1532180145121563 2 0 1 0 4 17 3 2
1532180145137520 -2 -2 -1 0 -5 -26 -7 -2
1532180145174421 -1 1 4 17 -4 -1 3 0
1532180145188385 0 0 5 16 27 -5 6 -2
1532180145204341 0 -2 -1 2 -4 -15 -7 -1
1532180145233265 -1 0 7 19 14 38 8 2
1532180145248236 -1 -2 -3 -11 11 77 -6 1
1532180145279177 0 -3 -6 -12 -16 -26 -6 -2
1532180145302079 0 2 -4 -12 -8 0 7 2
1532180145333008 -2 -4 -3 -5 32 31 -2 -3
1532180145354938 -3 -5 -2 2 2 -43 -9 -3
1532180145376880 0 1 -4 -11 -24 -8 -2 -3
1532180145414778 -3 -2 -4 -7 9 -6 0 -1
1532180145436720 0 -1 -2 -6 -2 -3 -2 0
1532180145451680 0 -3 -1 -2 10 -4 -3 -1
1532180145481600 3 2 0 -4 -17 -2 1 0
1532180145510523 0 -2 -1 0 4 -8 -4 -3

1532180145534459 -1 1 -1 1 -3 -14 0 -2
1532180145556400 -1 -3 -1 -2 -5 -16 -5 -2
1532180145571360 0 -1 0 -1 -4 -40 -3 0
1532180145595296 -1 -1 0 1 -11 10 4 -1
1532180145617237 -2 -1 -1 -1 14 18 -2 -3
1532180145630202 -3 0 -1 3 36 104 -1 0
1532180145639178 0 0 -1 0 -10 -42 -1 0
1532180145656133 -3 -3 -2 1 25 70 0 -2
1532180145678075 0 0 0 -1 -5 -22 -1 4
1532180145700016 1 -1 -1 0 -5 -14 1 0
1532180145716541 2 0 -2 0 -2 -7 -4 -2
1532180145738485 -5 0 2 0 1 0 -10 -4
1532180145759429 -1 -2 -1 -1 -2 -22 -12 -3
1532180145776383 -7 -4 -3 -4 -6 3 9 -13
1532180145798325 -2 -1 -1 -2 -2 10 -1 -1
1532180145818271 0 0 0 -1 0 -7 -4 0
1532180145857167 0 -1 -3 -2 1 1 12 -2
1532180145871130 -12 -1 1 -1 -2 9 -6 14
1532180145902047 5 -2 -1 -1 0 8 8 17
1532180145917007 9 -2 -1 -3 -3 3 -3 0
1532180145930969 -2 -1 0 -2 -2 -5 -13 -14
1532180145937951 -2 -3 -2 -3 -4 -12 -14 -1
1532180145976847 -19 -2 0 -1 0 6 3 -7
1532180145990809 -14 0 -3 -3 3 4 -1 -4
1532180146014746 10 -2 0 -2 -8 -24 -10 -2
1532180146037684 3 -3 -4 -1 -4 -15 2 0
1532180146059626 1 -2 0 -1 -3 0 -1 -1
1532180146075584 -1 0 0 -2 -1 0 -3 -2
1532180146110490 1 -2 -3 -2 0 1 2 -1
1532180146141407 1 -1 0 -1 -3 0 -1 -2
1532180146165343 -1 1 1 0 -1 -1 2 -1
1532180146178309 1 0 -3 -1 -2 0 0 0
1532180146203242 0 1 -1 -1 0 -4 -1 -2
1532180146216207 0 1 0 -1 -3 1 5 -1
1532180146239158 -2 -1 0 -3 0 -1 0 0
1532180146254106 -1 -1 -2 -1 0 -1 -2 -3
1532180146276047 0 -2 -1 0 -1 0 -3 -2
1532180146298986 -2 -3 0 -2 -1 -2 -10 -2
1532180146320927 -1 -1 -1 0 -1 2 3 0
1532180146358826 -1 -1 0 -1 -1 -2 -2 2
1532180146373786 -1 0 -2 -2 -2 -3 -2 -2
1532180146395727 -2 -2 -1 -1 0 -2 -1 -2
1532180146418666 -1 -2 -1 -3 0 1 -1 -1
1532180146441605 -5 -1 -1 1 -1 -2 3 0
1532180146464557 1 0 -1 -1 1 -1 -10 -2
1532180146495461 0 -2 -1 -3 -3 0 1 0
1532180146524383 -1 -1 -1 1 0 -2 0 0
1532180146562281 -1 -1 -1 0 -2 1 2 -2
1532180146576245 -1 -1 -1 2 0 -1 0 -1
1532180146599191 0 0 0 -2 -1 -1 -1 -1
1532180146614143 -1 0 -2 -1 -1 -1 -1 1
1532180146636109 -3 -1 -1 -3 -2 0 -2 -1
1532180146659023 -1 -2 0 0 -2 -2 1 0
1532180146695924 -1 0 -2 -1 -3 -1 -1 -2
1532180146718863 -1 -1 0 0 -1 0 -1 -3
1532180146756762 0 -1 0 -1 0 -2 -2 -1
1532180146786698 -1 -1 -1 -3 0 -1 -2 -1
1532180146838543 1 -1 -1 0 -2 -2 -2 1
1532180146861481 -1 0 -1 -2 -3 0 -1 -2
1532180146915337 1 0 0 -1 -4 -1 -3 -1
1532180146928303 1 -1 0 -2 -3 -1 -2 -1
1532180146943263 0 -1 0 0 0 1 1 -1
1532180146975177 1 -1 0 -1 0 0 -1 -1
1532180146996122 -2 0 -1 -2 -2 0 0 -1
1532180147020060 0 -1 -3 -1 -2 -1 0 -2
1532180147041002 -2 0 -1 -1 -1 -2 1 -1
1532180147078900 0 -1 -1 0 0 0 0 -2
1532180147115802 -2 -1 0 -1 -1 -1 1 -3
1532180147152703 -3 -1 -2 -1 0 0 -1 -1
1532180147198580 0 -1 -3 -3 -1 -1 -1 -1
1532180147221519 0 -1 -2 1 -2 -2 -3 -1
1532180147258420 -1 1 0 -1 -1 -1 -1 1
1532180147274378 -1 1 -1 -1 -1 1 -1 -2
1532180147304298 -1 -1 0 0 0 -1 0 0
1532180147327236 -1 0 -2 0 -1 -3 -2 -2
1532180147356158 -2 -3 -1 0 -1 -1 -1 0
1532180147379098 -1 -2 0 -1 0 -1 -1 0
1532180147402036 -1 -1 -1 -1 -1 -2 0 0
1532180147423977 0 -2 0 0 -1 1 -1 -3
1532180147446916 1 0 1 -1 -2 0 -1 0
1532180147461876 -1 -3 -1 -2 -1 -1 -1 -1
1532180147498778 0 1 -1 -2 -4 -1 0 -2
1532180147521715 0 -2 -2 -1 2 0 -1 -1
1532180147559615 -1 -2 0 0 -1 0 4 0
1532180147581557 -1 -1 -2 -1 -1 -2 -2 -1
1532180147595518 -3 -2 -1 -1 0 -1 -3 -1
1532180147618457 -1 -2 0 0 -1 -3 0 0
1532180147641396 -1 0 -1 0 0 -1 -1 -2
1532180147703230 -1 -2 -2 0 -1 0 1 1
1532180147708218 -1 -1 -2 -2 1 -1 0 1
1532180147762073 0 -2 0 -2 -3 -2 -4 -1
1532180147881753 -1 -1 0 -2 -1 -1 -1 0
1532180147895716 0 -1 -2 -2 -3 -3 -1 -1
1532180147918655 2 -2 0 -2 0 0 -1 0
1532180147941593 -2 -2 -2 -1 -2 -2 -2 -2
1532180147964532 0 -1 -2 -1 -2 1 -2 -1
1532180148001433 -1 -3 -1 -1 -2 -2 -1 -1
1532180148015396 -1 0 -2 0 -1 0 -1 -1
1532180148038334 -1 -2 -1 -1 -2 0 -3 -3
1532180148069252 -2 0 -1 -1 -1 -2 0 -2
1532180148092190 -2 0 0 0 -1 1 1 0
1532180148121112 0 -3 -1 0 -1 -1 -1 2
1532180148138068 -1 -2 -2 0 -1 -1 -1 -1
1532180148173973 -3 -2 -3 -1 0 0 0 -2
1532180148203892 -1 -1 0 -1 -1 -3 -2 -1
1532180148249769 -1 -1 -1 -2 -2 0 2 2
1532180148278692 -1 0 -2 -1 1 -1 0 -2
1532180148308612 -3 -1 -2 0 -1 0 -1 -2
1532180148338532 -1 -1 -1 -2 -1 0 -1 -3
1532180148369475 1 0 -4 -1 -1 -1 -1 0
1532180148384409 -1 0 1 -1 -2 -2 -1 0
1532180148407348 -2 -2 -1 -2 -1 0 -1 -1
1532180148422308 0 0 -1 -1 -1 0 -2 0
1532180148452228 -1 0 -2 0 -1 0 -1 -1
1532180148467188 -1 -2 1 0 2 0 -1 -4
1532180148489129 -1 -1 -1 -2 -1 0 0 0
1532180148527028 0 -2 -2 0 1 -2 -1 -2
1532180148541987 -1 -2 -1 -1 -3 0 0 -1
1532180148577892 0 1 -1 0 0 0 -1 -2
1532180148609806 -1 -2 0 -1 -1 -2 -2 -1
1532180148661668 0 0 -2 -2 -1 -1 -1 1
1532180148684606 1 -2 -2 -2 -3 0 -2 -1
1532180148698569 -3 -2 1 -2 -2 -1 -2 -3
1532180148721508 0 1 -2 2 0 -1 -1 -1
1532180148812265 -1 -2 -3 -2 -1 -3 -1 -1
1532180148850164 -1 -3 0 -1 -1 -1 -2 -1
1532180148887065 0 -1 1 0 0 -1 0 -2
1532180148930947 0 -3 -2 -1 -1 -1 0 -1
1532180148977822 0 -1 -2 -1 -1 -1 -2 -1
1532180148991784 0 -1 -1 0 -1 0 -1 -2
1532180149021705 1 0 2 -2 0 -1 -1 0
1532180149082542 -2 -1 -7 0 -1 -1 -2 -1
1532180149135401 -1 -1 -3 -1 0 0 -1 -1
1532180149170308 -2 1 -1 -1 -1 -1 -1 -3
1532180149232142 2 1 -1 -1 -1 1 -3 -1
1532180149254083 0 -1 -2 -2 -1 -1 -1 -1
1532180149322899 -1 0 -3 -1 -2 -2 -1 -2
1532180149336876 -1 0 2 0 -2 -1 -2 1
1532180149380745 1 -2 0 1 -1 0 -2 0
1532180149457540 -1 0 -1 -3 -1 -1 0 1
1532180149494441 0 0 0 -1 -1 -3 -1 -1
1532180149516381 -2 -3 -1 -2 0 -1 0 -1
1532180149530357 -1 0 -2 0 -2 -1 -1 0
1532180149568243 0 -1 0 -1 -1 -2 -1 0
1532180149614121 0 0 0 -3 -1 0 0 -2
1532180149786675 0 -1 0 -1 -3 -2 -1 0
1532180149809598 -1 -1 0 -1 0 0 -2 1
1532180149876420 -2 1 -2 -1 -2 -1 -1 -1
1532180149907337 0 -2 -2 -1 0 -1 -1 -2
1532180149929278 -1 -1 -1 -1 0 -1 -1 1
1532180149945235 -2 -1 -1 -2 -1 -2 0 -1
1532180149967177 0 0 -1 -1 -2 -1 -1 0
1532180150012057 0 -1 0 -2 1 -1 -1 -4
1532180150027016 -1 -1 -1 0 -2 -2 -1 -1
1532180150034996 -1 -1 -1 -1 0 -1 -1 0
1532180150049956 -1 -1 -1 0 -1 0 1 0
1532180150094835 0 0 -3 -3 -1 -2 -2 -2
1532180150124756 -2 -1 0 -1 0 1 0 -1
1532180150169636 -1 -2 -1 -2 -1 -1 0 -1
1532180150206537 -1 -2 -1 -1 0 -2 -3 -2
1532180150267374 0 0 0 0 -2 -2 0 -1
1532180150289315 -3 0 -2 0 0 4 1 -1
1532180150327214 0 0 0 -1 -3 0 16 -1
1532180150364115 -2 -4 -2 -3 -2 14 -7 -2
1532180150408995 -1 1 -1 -1 0 33 1 -1
1532180150446894 1 -3 4 4 -4 -21 5 1
1532180150468835 -2 1 -4 -8 -4 -12 -6 1
1532180150482798 -1 -4 -2 -7 0 2 -3 -3
1532180150529672 3 4 4 4 2 4 -2 -2
1532180150542638 0 0 -3 -7 -12 -3 1 1
1532180150566574 0 -2 -9 -3 -3 -5 2 -5
1532180150605469 -1 1 4 6 11 2 -1 -3
1532180150619433 2 -1 1 22 -1 -6 0 10
1532180150649353 -1 -1 -1 1 4 -3 -10 -2
1532180150687251 1 -2 -5 -8 10 3 3 7
1532180150723155 -6 -1 3 6 7 2 -9 -35
1532180150754073 4 -1 -7 -8 3 6 10 3
1532180150792968 -8 -2 0 -7 -12 -21 -1 3
1532180150815907 -8 -3 -3 -6 -3 2 -17 -14
1532180150842852 -11 -5 -3 -10 -9 6 2 -16
1532180150868773 -5 0 0 -6 3 7 2 -47
1532180150918632 5 -3 -2 -7 -17 -2 -11 15
1532180150928606 -1 -2 -1 -2 -12 -21 -34 -11
1532180150949550 -15 -7 -1 11 27 4 -12 7
1532180150979470 4 2 -4 -6 6 -1 9 58
1532180150993433 -3 0 -3 0 -17 -1 -6 -7
1532180151017368 -1 5 4 1 15 4 7 -1
1532180151039310 -4 -3 2 1 1 -1 -7 -1
1532180151077208 1 -3 -2 7 13 -13 -11 -6
1532180151105134 -2 0 -1 0 3 3 -4 14
1532180151129070 -2 -1 -3 -10 -3 0 -14 12
1532180151152008 5 1 2 10 -10 0 6 21
1532180151166968 2 -1 -2 -7 -21 1 9 -7
1532180151190904 2 0 0 -3 -2 -9 -3 -7
1532180151210851 6 1 -2 -8 -19 0 0 23
1532180151249747 0 0 0 1 -8 -16 -6 -8
1532180151271688 -4 -2 -2 -3 -4 3 1 12
1532180151286649 -5 -1 -1 -5 5 -1 -2 -10
1532180151308590 -1 0 -2 -1 -12 10 2 -5
1532180151324559 -1 0 0 2 10 -1 -1 -27
1532180151354468 1 0 1 11 22 2 2 2
1532180151371422 -1 -2 -1 -5 -22 1 -5 31
1532180151401342 -3 -1 -2 -9 -13 4 6 8
1532180151452206 -4 -2 -2 -11 -12 0 -12 -16
1532180151473150 -5 -3 1 -2 0 2 0 -5
1532180151491102 0 0 1 6 23 5 7 4
1532180151513043 0 -3 -2 -7 8 0 -18 -32
1532180151548947 -2 -1 -1 -6 22 0 8 3
1532180151577870 -2 -3 -4 -1 -10 0 -1 -3
1532180151608788 -1 -2 -2 -1 1 11 7 -10
1532180151639704 3 -2 -2 1 0 4 10 -9
1532180151661645 0 -2 -1 1 8 2 -19 -2
1532180151670622 0 0 -4 -9 -6 -7 -8 4
1532180151705528 -2 -2 -1 1 -5 -4 -3 -4
1532180151751406 -2 0 0 -1 -4 -3 -13 2
1532180151782323 1 2 1 5 17 2 -3 0
1532180151819225 0 -2 -2 3 -12 -1 15 -12
1532180151825208 -3 -2 -4 -5 3 0 -6 -6
1532180151872083 -5 -9 -7 -3 0 -1 -7 -4
1532180151886048 0 -1 0 2 -7 -4 1 -10
1532180151909982 -2 -2 0 0 14 5 -2 -5
1532180151954862 2 -1 2 5 5 2 1 8
1532180151992759 -1 0 0 -7 -7 -4 2 0
1532180151999741 -3 -3 -3 0 -4 2 -2 -3
1532180152046624 0 0 1 2 2 -3 -8 -3
1532180152074541 -2 1 1 2 0 -4 -12 -6
1532180152111443 -1 0 0 -2 -1 -4 -2 -12
1532180152134381 -2 -2 -1 -1 -9 -4 -8 2
1532180152150339 0 0 1 -2 3 -1 0 3
1532180152187240 -2 -1 -2 1 0 -1 3 -4
1532180152195219 2 0 0 -2 -4 -1 1 11
1532180152232120 -3 -1 -2 -1 0 0 22 -4
1532180152268024 0 -2 -1 1 -1 0 2 -3
1532180152308915 0 -1 -1 0 0 0 -34 -3
1532180152315896 -2 -1 -1 -1 -2 1 -15 -3
1532180152336840 -1 -2 -1 -1 0 -1 -3 -2
1532180152374738 1 2 2 0 0 -2 6 0
1532180152387704 -4 -2 -1 -2 0 2 -5 -3
1532180152434579 1 -1 1 -2 -5 -10 -4 0
1532180152456521 0 1 -3 -2 -3 -14 -3 0
1532180152494418 1 2 0 3 2 -35 17 2
1532180152508381 0 -1 -3 0 -3 35 4 2
1532180152545283 -2 -1 -2 0 12 -10 -2 0
1532180152568221 -2 0 -2 -7 -6 -6 3 0
1532180152599139 -2 -4 -1 -6 -14 21 1 -1
1532180152628061 -3 -1 -2 1 -3 -20 -2 -1
1532180152651997 -2 0 -3 1 -1 -1 -2 0
1532180152689896 -1 -1 -2 -6 -14 1 -2 -3
1532180152741758 -2 -1 -3 -6 7 9 -2 -1
1532180152759722 -1 -3 -2 -11 -29 -30 -3 -2
1532180152807581 -2 -1 0 0 2 5 -2 1
1532180152824535 -2 -1 -2 0 -2 -9 -22 -4
1532180152841491 -1 -1 -1 1 3 -15 10 0
1532180152868419 -2 -3 -4 1 21 28 -1 -4
1532180152877395 -1 -1 0 -2 -32 -6 -1 -2
1532180152898338 5 1 -1 -1 6 2 5 -5

1532180152931251 -4 -4 -1 -3 -3 -7 -21 0
1532180152937235 4 0 -2 0 -1 12 2 0
1532180152961171 -7 0 -1 -2 -6 -11 10 0
1532180153000066 -3 -2 -1 1 10 15 2 2
1532180153004056 -3 0 -1 0 1 4 3 -2
1532180153018018 1 0 0 0 -4 -8 3 0
1532180153056914 -1 0 -1 -1 0 0 0 -1
1532180153079852 -2 -3 -1 -1 -1 -4 -1 -3
1532180153093816 -1 -2 -1 0 -3 4 6 0
1532180153116754 -2 -1 0 -1 1 3 -2 0
1532180153131714 -1 -2 -1 -1 -3 0 0 -1
1532180153154652 -3 -1 -2 -1 -2 -3 -4 -2
1532180153184572 -1 -2 -2 1 -1 -2 1 -1
1532180153214493 0 -1 0 -2 -2 -4 0 -1
1532180153236434 1 -2 -3 -1 -4 -8 1 1
1532180153250397 0 -1 -1 -2 0 1 -3 -1
1532180153274333 -3 -1 -2 0 -1 0 0 0
1532180153297272 -1 0 -1 1 -1 -1 -2 0
1532180153318215 0 -2 -1 -2 1 10 1 0
1532180153343149 -2 0 -1 -1 -3 -2 -1 -2
1532180153366088 0 -1 -1 0 -3 -6 -2 -1
1532180153394013 -7 0 2 -1 -1 1 1 -4
1532180153430914 -3 -1 -2 -2 1 -4 -4 -4
1532180153447869 -6 -3 2 0 7 1 19 -6
1532180153453853 -8 4 3 6 28 -4 -5 -2
1532180153483773 -3 -5 -7 -5 4 78 16 -1
1532180153498733 -3 -3 -1 -3 -15 -4 10 1
1532180153535634 24 -1 -3 -5 -35 -37 0 9
1532180153575527 -4 5 9 17 60 92 7 3
1532180153581512 -5 3 6 1 -17 -12 22 1
1532180153611432 -1 -2 3 4 -14 71 -40 -2
1532180153643347 -4 -2 -2 6 42 46 8 -2
1532180153656312 -3 -3 -3 -7 -14 -88 -18 -7
1532180153680248 1 0 3 23 22 -19 0 -1
1532180153693213 -5 -3 -3 -12 -3 16 -13 -6
1532180153724130 0 0 -3 -2 0 -9 17 1
1532180153747069 -1 -1 -1 -3 -2 -9 8 -1
1532180153775992 -2 -1 1 -2 -1 3 -3 -1
1532180153798930 -3 -2 -2 -1 -5 -18 10 -2
1532180153813890 -1 -2 0 -1 -5 3 -5 -1
1532180153858775 -2 0 -2 -2 -1 -12 0 -2
1532180153873735 -1 -2 -1 -2 1 23 -1 -2
1532180153911987 0 0 -1 -2 -3 11 9 2
1532180153918968 1 -2 -4 -4 -8 -62 -26 -3
1532180153957864 2 -1 0 -3 1 16 0 1
1532180153978822 -3 -1 0 1 -2 14 -1 -5
1532180153993979 -1 -1 -2 -2 -2 -17 -8 0
1532180154017915 0 -2 -1 -2 -1 11 8 2
1532180154039857 0 -2 -1 -1 -1 5 1 -3
1532180154054816 -2 -1 0 1 0 -2 -5 -1
1532180154084736 2 0 -4 -2 -3 2 21 6
1532180154099696 -1 -1 -2 -1 0 -4 1 -2
1532180154136597 -5 -2 5 5 5 3 -16 -6
1532180154173499 0 -1 -2 0 -1 -2 -2 1
1532180154197444 0 -2 -2 -3 -3 -4 0 -2
1532180154226357 -1 0 0 1 -1 -3 -10 -3
1532180154245307 2 2 -1 -2 0 7 -18 -5
1532180154264256 2 -2 -7 -6 -6 -6 7 5
1532180154278219 -1 -3 -2 -6 -2 0 12 0
1532180154317115 -2 0 1 1 3 2 0 -2
1532180154339056 -1 -2 -1 -3 -1 -1 3 0
1532180154375958 -2 -1 -2 -1 1 -1 0 -1
1532180154398896 0 -3 -2 -3 -2 -3 2 -1
1532180154413856 -4 2 2 1 -1 -8 -19 -6
1532180154458736 4 1 -6 -7 -5 2 6 3
1532180154473696 -2 1 0 0 -2 5 2 -1
1532180154496635 1 -1 -4 -5 -4 -1 2 4
1532180154518576 -3 0 -1 2 4 4 -7 -5
1532180154556482 5 28 -3 -3 -3 0 1 1
1532180154578425 -21 -72 -1 4 3 -3 3 1
1532180154594382 6 -15 -1 -1 -2 3 5 0
1532180154616323 0 11 -9 -6 -2 -5 -6 7
1532180154638264 -7 -5 3 4 5 1 -10 -10
1532180154662201 -1 16 0 1 1 3 -4 -4
1532180154676163 5 16 -2 -3 -3 -5 5 2
1532180154699102 -1 3 3 2 1 -6 -12 -3
1532180154721043 -2 -1 4 2 7 -4 -10 0
1532180154736003 -1 0 2 -2 -3 -3 1 2
1532180154772905 5 2 0 -2 -2 -2 2 2
1532180154795842 -3 -3 -4 1 -1 2 6 -1
1532180154832745 -1 1 2 2 1 -1 -3 -2
1532180154855683 3 1 -5 -7 -4 -4 -1 2
1532180154878621 -1 0 -3 -2 -2 1 3 1
1532180154892584 -3 0 4 4 1 0 -1 -2
1532180154938462 -4 -2 -1 2 0 2 0 -5
1532180154962411 0 -1 1 1 -1 -1 -3 -2
1532180154976360 1 -1 -5 -2 -2 0 0 1
1532180154998302 -1 0 -2 -2 1 -1 -3 -1
1532180155022238 -2 0 -2 -2 -2 -2 -2 -1
1532180155036200 1 -2 -1 0 1 -1 4 1
1532180155067118 -1 -1 -2 0 1 -1 -1 0
