1532331411886203 11 -1 -1 4 11 3 -12 -5
1532331411924101 7 0 7 2 -8 0 6 0
1532331411936068 5 2 -4 -1 5 2 2 8
1532331411967984 39 3 -1 -4 -9 7 15 11
1532331411984938 5 1 -2 -8 -8 -7 -12 -15
1532331412016853 0 -5 0 -1 -4 83 22 3
1532331412035801 15 2 1 6 2 -34 -7 7
1532331412082676 -9 -4 -2 4 -7 17 12 -4
1532331412097637 25 -11 -9 -7 10 43 -1 -1
1532331412135535 -3 8 -1 -5 -8 -8 16 3
1532331412150495 13 -4 -1 10 15 18 -4 -10
1532331412188394 -13 -3 0 -8 -37 -38 -15 -22
1532331412210334 -3 2 5 24 18 -25 -2 2
1532331412224297 -6 0 2 6 23 -4 9 5
1532331412247244 -27 -2 -2 -2 -21 -12 -4 2
1532331412292116 -1 -6 -6 -3 3 15 -11 -16
1532331412307076 -5 -3 -1 -3 -9 -14 9 1
1532331412331013 5 4 4 7 -5 16 -15 -12
1532331412343987 17 -3 -1 -4 3 6 0 3
1532331412359935 19 3 0 -6 2 11 -6 -6
1532331412397834 8 -1 3 18 10 1 -4 4
1532331412412793 22 -2 -3 -4 3 -1 -1 10
1532331412449695 -5 -4 -2 -18 -4 5 -14 -14
1532331412463657 -1 10 -2 1 -19 11 6 0
1532331412510532 -23 -8 0 7 -2 -1 9 -6
1532331412523497 4 -9 4 -10 -19 12 -14 0
1532331412570374 -53 -3 -7 -13 10 92 25 -6
1532331412583337 127 2 -2 9 10 21 -51 -31
1532331412614260 11 -2 -10 -49 1 -118 -128 56
1532331412631209 127 -2 -7 -1 -27 127 79 -23
1532331412653151 -83 10 -1 3 -1 18 -16 -19
1532331412690052 12 -3 6 9 -6 -5 4 3
1532331412704014 5 2 13 20 -2 -58 -2 6
1532331412727950 -22 1 -9 -11 1 13 -11 -2
1532331412749892 0 9 -4 -13 -6 29 -12 -15
1532331412763854 -4 2 -3 2 0 -10 5 0
1532331412794780 9 2 1 -4 -2 -8 1 6
1532331412832670 -5 -9 -1 -2 -8 8 3 1
1532331412846633 -4 3 -3 -2 6 3 2 2
1532331412885529 -2 0 -3 -6 -44 -21 1 -2
1532331412906472 -9 -14 -9 -20 -80 -18 -3 -4
1532331412967310 -4 -15 -7 0 4 -3 1 -3
1532331412989252 -7 -2 -1 -3 -22 2 -6 -7
1532331413019171 2 19 0 -8 -3 8 2 0
1532331413065049 -3 -4 -4 -24 -1 -5 -3 0
1532331413073027 -8 -26 -4 13 -8 -4 0 0
1532331413110926 -10 6 -3 -3 -13 -5 -5 -6
1532331413154808 0 -3 2 2 -34 -8 -2 -3
1532331413177747 4 9 5 -11 -34 2 5 3
1532331413192716 1 0 -1 0 -17 -4 -5 -4
1532331413228611 -2 -1 1 3 3 -4 -1 -2
1532331413252546 7 -11 1 -10 -38 0 1 4
1532331413275486 6 24 8 9 10 1 -1 -1
1532331413320366 -7 -7 -3 -5 -4 -7 -5 -2
1532331413335326 3 2 3 4 44 3 -6 -1
1532331413365256 -4 7 11 5 25 6 5 -2
1532331413380205 -5 -1 -14 -11 -11 -7 -7 -5
1532331413417115 0 19 -7 -5 24 15 -6 -3
1532331413432067 -9 -11 -4 1 11 7 -15 1
1532331413477944 1 -4 4 11 50 0 25 1
1532331413514846 -3 -17 -7 -3 -8 -1 -7 1
1532331413537784 0 7 9 6 4 -3 -6 7
1532331413551746 -16 -12 -4 9 55 9 -2 -8
1532331413611587 5 1 0 4 2 -2 -5 -3
1532331413635523 -9 -17 -5 0 -24 -3 2 -3
1532331413680420 3 0 1 -5 3 -4 3 4
1532331413719299 -13 -15 -3 1 19 5 -2 -2
1532331413740243 -4 6 0 -3 12 -4 -5 -4
1532331413757198 6 16 -4 1 38 25 7 -3
1532331413791106 -13 1 4 0 16 -8 3 1
1532331413823021 1 -5 -3 0 15 -3 -9 -56
1532331413904827 -23 8 5 -3 -20 -4 -6 -12
1532331413942701 14 -2 1 6 57 6 0 7
1532331413980618 3 2 -3 3 21 -3 -2 -3
1532331414025479 -3 2 5 0 -1 7 -3 -3
1532331414047421 -1 -2 -4 -7 -13 6 -7 1
1532331414076343 1 -2 0 2 22 0 -1 1
1532331414115239 -2 -1 0 -2 -11 1 4 9
1532331414198022 -2 0 0 -3 2 11 -4 0
1532331414273815 1 -3 0 -7 2 -2 1 -1
1532331414287778 0 1 0 3 2 -3 -4 1
1532331414317698 0 3 3 4 -3 -26 0 1
1532331414339639 -2 3 1 1 -2 5 0 -4
1532331414354616 -2 -2 -1 -1 1 -7 0 -2
1532331414377538 -1 -1 -3 3 12 -7 -3 -1
1532331414400477 -1 -3 -5 -3 6 -13 -8 -1
1532331414414439 -1 -1 0 2 -3 -3 -2 -2
1532331414446353 0 -1 -1 -5 4 -5 2 -1
1532331414460316 -1 -2 -1 -1 -6 8 0 -1
1532331414474279 -3 -1 -3 -6 -26 -15 -4 -1
1532331414498215 -3 -1 -2 -1 20 7 -6 -4
1532331414527137 0 -1 -2 4 18 19 2 -2
1532331414543095 -2 -2 3 2 -39 1 0 -1
1532331414579996 2 1 4 8 20 2 2 2
1532331414593959 2 0 1 -1 -2 -5 0 2
1532331414639836 -2 0 4 1 25 -14 -6 -3
1532331414653799 -4 -4 -6 -4 -8 -1 0 -2
1532331414707663 0 -1 0 2 8 5 1 0
1532331414722615 1 1 4 1 -25 -7 0 -1
1532331414745553 -1 -1 0 2 4 5 2 0
1532331414751537 2 0 1 -5 -18 -7 -2 -2
1532331414769489 -1 -2 -1 3 24 6 1 0
1532331414797415 1 -2 -3 1 3 -1 -3 -1
1532331414827335 -2 1 -4 2 -7 5 0 -2
1532331414842294 -1 -1 -1 -2 4 1 0 -1
1532331414859249 -3 -1 -1 0 3 -4 -3 -1
1532331414881190 0 -1 -3 -3 -8 -2 0 0
1532331414903131 0 -1 1 -4 -4 5 -1 -1
1532331414948012 -2 0 -1 4 13 -4 -2 -1
1532331414962972 -1 0 -1 -6 -2 -4 -1 -2
1532331415007852 0 -1 -1 -5 -4 2 0 1
1532331415013836 -1 0 -3 -1 -1 13 1 0
1532331415091628 0 -4 0 -2 -32 -13 -3 -2
1532331415106588 0 -1 -4 -5 -25 -5 -3 1
1532331415120550 0 -2 -3 -2 -4 2 2 -1
1532331415158448 2 1 4 1 3 1 0 2
1532331415226267 -1 -4 -2 2 -3 4 -1 2
1532331415240229 -1 -3 -2 1 -4 -5 0 0
1532331415278129 -2 1 1 7 2 0 -2 0
1532331415308064 1 -2 -2 -6 -7 0 2 -1
1532331415323009 0 0 -1 0 -1 -2 -3 1
1532331415383846 0 1 4 4 4 -3 -2 -1
1532331415398822 -1 -2 -2 2 12 -1 -2 0
1532331415427729 1 0 2 1 6 -1 -1 1
1532331415472616 0 -2 -1 -1 -12 -2 -2 0
1532331415502528 0 -1 -1 -7 2 -2 -1 -1
1532331415516491 -1 -2 -4 0 3 1 -1 -1
1532331415540427 -1 -2 -1 -7 -1 -2 -1 -2
1532331415585320 0 0 1 2 -3 0 0 -2
1532331415600267 0 2 -1 -3 -5 0 1 -3
1532331415621211 -1 -2 -2 1 -4 -2 -1 -3
1532331415662102 -1 -2 -4 -9 -22 -1 0 -2
1532331415675067 0 1 -2 -9 1 0 -3 -1
1532331415712966 0 1 0 -1 -3 -1 0 0
1532331415727926 0 -1 1 -2 -28 0 -2 0
1532331415741887 -3 -3 -1 -3 1 0 1 -1
1532331415779815 -4 -1 -9 -22 -25 -4 -1 -5
1532331415801728 0 -8 -5 4 53 11 1 3
1532331415831648 -4 -11 -6 -1 18 0 0 4
1532331415856581 -3 1 -3 4 28 0 -1 7
1532331415885519 -4 -6 0 -11 -86 -13 -1 -10
1532331415899466 4 21 1 11 45 5 1 -1
1532331415923402 -2 -2 -2 -4 -12 -2 -5 -2
1532331415952325 -1 0 3 6 21 4 -3 -4
1532331415982245 -11 -29 -6 0 10 2 -3 9
1532331416005184 0 -4 -1 -2 8 -3 -2 -3
1532331416019146 2 22 1 -1 8 2 5 -2
1532331416042085 2 8 -3 -1 9 1 -3 -9
1532331416073002 -3 -13 -5 -2 11 5 -3 -4
1532331416094944 8 -9 -1 -3 -8 -1 3 8
1532331416124864 -1 -5 -2 -2 -10 -2 1 -4
1532331416139823 0 2 5 6 8 4 0 -3
1532331416161765 0 -3 -3 -7 -24 0 -3 1
1532331416184720 -1 2 1 9 16 0 2 1
1532331416199668 -3 -2 -6 -27 -74 -21 -5 -7
1532331416221612 1 0 4 15 35 -6 -1 3
1532331416244551 2 -1 -2 -6 -35 4 -7 -3
1532331416281452 -1 -2 -8 -28 -100 -8 5 0
1532331416319350 0 0 3 26 62 4 -6 -4
1532331416342289 -3 0 -2 -17 -62 -7 -1 0
1532331416365228 0 -1 -3 8 64 27 3 1
1532331416387174 -5 -7 -10 -35 -18 -5 1 2
1532331416425068 -2 -1 0 5 50 15 -2 -3
1532331416468951 -4 0 -2 -10 -39 -19 -8 -17
1532331416484907 0 0 -2 -4 -4 8 -3 3
1532331416521809 -5 -5 0 -5 -47 -7 -2 -27
1532331416581650 -3 -1 1 -8 -67 -1 -1 -12
1532331416604588 1 1 -6 -7 -16 -1 0 13
1532331416627527 -1 -1 5 21 75 12 9 12
1532331416641489 -5 0 -2 0 16 -20 -6 -39
1532331416664437 0 0 -4 -9 -29 -9 4 15
1532331416711315 5 13 5 7 -10 7 -1 8
1532331416725266 1 -3 -1 -3 30 18 0 13
1532331416755185 -1 -3 -1 16 77 8 3 5
1532331416762166 1 -3 -4 -5 27 -6 -4 4
1532331416785105 -2 1 3 -6 -38 -11 -3 -5
1532331416822007 -1 -1 0 -4 6 -7 -5 -2
1532331416844976 -4 -2 -2 0 -11 2 2 0
1532331416881877 0 -1 -1 -6 -20 -3 -3 -2
1532331416904816 -2 -2 0 2 -2 -7 -1 -1
1532331416926756 -1 -1 -4 -2 -2 -6 5 7
1532331416941717 -2 -2 1 11 18 -2 1 -2
1532331416978618 -2 -2 -4 -4 -9 3 -12 -2
1532331417001557 -1 -1 1 -4 -1 -7 5 -6
1532331417025493 -1 -2 -5 -6 3 -11 -1 0
1532331417038458 0 -1 0 -7 -43 -5 -1 2
1532331417114256 -1 -2 0 -2 6 0 1 -3
1532331417151156 3 -1 -1 7 8 -3 3 8
1532331417162128 -1 0 -3 -9 2 -3 -1 -4
1532331417182074 6 0 2 3 -7 8 2 3
1532331417205013 0 0 1 8 -8 -5 0 -5
1532331417227951 -4 -1 -2 3 -11 -8 -1 -10
1532331417241914 -6 -1 -1 -7 -1 -3 -6 -24
1532331417265849 1 2 -2 -9 -44 -29 -5 9
1532331417287792 -3 -4 -4 -16 -6 9 -1 -2
1532331417324693 -1 -2 -1 1 -16 3 0 -2
1532331417347631 -2 2 2 7 -2 5 1 1
1532331417361594 1 2 5 -2 7 3 2 3
1532331417407471 -4 -13 -10 -8 -5 3 -1 -1
1532331417445370 -7 -18 3 9 20 4 -2 -3
1532331417475290 1 -3 -8 -2 17 1 -5 -3
1532331417512191 11 51 -4 -4 7 0 -8 -2
1532331417535130 -7 -2 -13 -20 -55 -10 0 0
1532331417567045 -4 0 -2 2 -22 -10 -9 -2
1532331417587989 2 11 12 7 13 8 2 -3
1532331417623892 2 -9 0 3 1 1 3 1
1532331417646831 3 -5 0 3 11 1 0 -1
1532331417654810 -4 3 -2 -6 1 -3 -2 -4
1532331417692708 -5 -5 -8 -10 -17 4 -8 -11
1532331417707668 -7 -6 0 -4 8 1 2 0
1532331417721631 -5 -2 8 5 15 -9 0 -2
1532331417775487 -3 -7 -5 -3 7 -8 -1 -10
1532331417781471 0 0 1 -12 -28 -3 0 4
1532331417813386 3 2 -2 7 26 9 -4 -6
1532331417829343 -3 -2 -1 6 8 0 1 0
1532331417872227 2 5 4 -7 -14 14 3 -3
1532331417901150 -1 -2 0 0 -12 -1 -1 -1
1532331417933069 5 -2 -3 2 25 -2 -2 6
1532331417948030 -1 1 -2 -1 23 -2 0 3
1532331418037785 -1 -3 -3 -1 -4 -4 2 2
1532331418067704 0 -6 -9 -9 11 -16 -9 -4
1532331418097639 -3 -2 3 3 6 -4 -3 -5
1532331418118569 0 -6 -5 -5 -3 2 2 -1
1532331418159462 0 1 10 17 8 -2 -2 -5
1532331418165444 -2 -4 -14 -6 -6 -2 -4 -5
1532331418187385 -2 -4 -1 -1 4 0 0 2
1532331418224286 0 1 -2 0 1 0 -6 -3
1532331418255204 -1 -1 -1 5 -3 -4 -3 -3
1532331418269166 -2 -4 -1 2 -2 -14 -2 0
1532331418284126 -2 -1 2 8 5 7 2 0
1532331418308076 0 0 8 9 5 -5 -4 0
1532331418330003 1 1 -1 -15 -18 -8 -3 -1
1532331418343966 -3 -2 -6 -3 2 6 1 -2
1532331418367901 -2 -2 0 -3 16 10 4 3
1532331418397822 -4 -1 -3 4 26 26 4 0
1532331418412782 2 -4 -3 -3 -11 -14 -4 -2
1532331418449684 -1 0 0 1 -8 -3 0 0
1532331418472622 -2 0 3 7 45 25 3 1
1532331418517502 0 0 2 6 0 -9 -6 -2
1532331418523486 2 0 -1 0 0 6 3 1
1532331418547422 -4 -2 -3 -3 9 -12 -1 -2
1532331418570360 0 0 0 3 16 2 1 0
1532331418622225 -2 -4 -6 -15 -80 2 -1 -2
1532331418652142 0 0 0 -4 -37 -18 -3 -1
1532331418690040 0 0 -2 3 18 2 4 2
1532331418712979 -1 -1 0 7 44 3 1 -1
1532331418727939 -2 0 -2 -6 -29 -1 -1 -3
1532331418763858 0 1 1 3 -5 -3 -1 -1
1532331418794760 0 -3 -2 -6 -29 -12 -3 -4
1532331418817699 -2 -2 -1 0 23 0 -4 -2
1532331418832659 -1 1 -1 3 1 19 5 3
1532331418883522 -3 -3 -2 -1 -2 -9 -4 -3
1532331418952338 0 2 1 -15 -34 -4 -1 -1
1532331418990237 -1 -1 -3 -3 -3 -4 -1 0
1532331419004199 -1 -1 -3 -2 -10 4 1 0
1532331419050077 -1 -2 1 3 1 -1 0 -2
1532331419079997 -1 -1 -2 4 23 0 1 -1
1532331419095954 0 0 -2 0 29 -3 0 0
1532331419132856 0 0 -2 -4 -14 -1 -2 -1

1532331419192696 0 1 -2 2 17 -1 -1 1
1532331419230594 -1 0 -1 -2 -6 -8 -4 -3
1532331419252535 0 -3 1 1 15 5 -6 -2
1532331419291431 -1 -1 -3 -3 -16 -10 -2 -2
1532331419312375 -2 0 0 2 -7 2 2 -2
1532331419350274 -1 -2 -3 -1 -6 -5 -1 1
1532331419386178 1 -2 -2 3 23 6 1 0
1532331419410114 -2 -1 2 -3 -13 -1 -1 1
1532331419477933 -2 0 0 -1 8 -5 -4 -5
1532331419492892 0 -1 -1 0 6 0 0 1
1532331419529819 -1 -1 -1 1 10 -3 -3 -2
1532331419552732 -1 0 -2 -1 2 -1 1 -1
1532331419558716 -1 -2 -2 -3 1 0 1 0
1532331419597632 -3 -3 -2 -1 0 -1 -1 -1
1532331419626535 1 0 -2 0 13 1 1 -1
1532331419642492 -2 -1 -1 2 0 5 -4 -3
1532331419680415 -1 0 0 -1 -15 4 -2 -1
1532331419702332 0 1 -1 0 -3 2 -1 -1
1532331419734247 -1 -2 -2 -2 0 -9 -1 0
1532331419747213 0 -1 -1 -1 4 1 -1 -1
1532331419770152 -1 1 -4 0 -2 -2 -1 -2
1532331419792092 -3 -2 0 -1 -9 -5 -2 -2
1532331419837969 0 0 0 -1 -8 -7 -1 -2
1532331419851932 0 -1 -1 2 3 2 -3 -2
1532331419889831 -2 -1 -3 -3 -1 -4 1 0
1532331419912775 -1 -2 -1 0 0 0 0 -2
1532331419935724 0 0 0 0 2 3 2 -2
1532331419951665 -2 0 -1 0 -2 -3 0 0
1532331419974603 1 -3 1 -3 -4 -3 -1 -2
1532331420001533 -1 -3 -3 2 -6 -7 -3 -3
1532331420011505 0 1 0 0 1 2 2 -1
1532331420034444 -1 0 -1 -2 -1 -1 -3 -1
1532331420055388 -2 -1 -1 -3 -3 0 0 0
1532331420076332 -1 -1 -2 -1 7 1 -3 -3
1532331420101266 -2 -1 0 -1 15 -1 -2 -1
1532331420116226 -1 -1 -3 -2 -11 0 1 0
1532331420152129 1 -1 -2 -3 9 2 0 2
1532331420175067 -2 -1 -1 -1 -7 -2 -2 -2
1532331420190028 -3 -1 -1 1 -1 -7 -1 0
1532331420212966 1 0 0 2 9 -1 -1 -1
1532331420234907 1 0 -1 -1 -20 1 2 -1
1532331420257847 -1 1 -1 -2 -5 1 1 0
1532331420279819 -1 -1 -2 0 0 -1 -3 -3
1532331420296743 -2 -3 -4 -2 13 5 1 -2
1532331420316693 -1 -1 0 0 19 2 -3 -1
1532331420392487 -3 -4 -5 -5 -27 -4 0 -3
1532331420445345 -4 -11 -15 -7 -42 -9 -3 -1
1532331420482246 -2 -5 21 4 2 -5 -3 -3
1532331420488230 2 3 -4 1 3 1 2 5
1532331420535105 -5 -4 -3 -10 -1 -7 -6 -3
1532331420549067 11 -1 -3 -7 6 -1 6 7
1532331420593955 -32 -6 -7 -15 -70 -7 2 -6
1532331420602923 22 -7 13 -7 -39 -5 -12 7
1532331420640821 14 2 -9 0 -5 -6 7 -1
1532331420668746 34 5 2 -7 6 -5 -1 1
1532331420685702 11 0 0 4 19 -4 -2 1
1532331420715622 1 4 -1 19 28 4 12 9
1532331420728587 -41 -8 -5 -17 -3 3 -16 -14
1532331420768480 -14 -6 -6 -14 25 -9 -1 -2
1532331420788427 6 1 -2 -6 4 8 9 4
1532331420812363 -12 -4 -4 5 11 3 -10 -10
1532331420835302 -10 -1 -1 -12 -19 -7 -30 -16
1532331420848267 -41 -8 -4 -19 -15 -5 -29 -29
1532331420864239 -13 -5 1 0 -14 -3 -7 -6
1532331420909103 -13 0 -3 -2 10 -9 3 5
1532331420933040 10 2 1 9 16 2 2 -1
1532331420984902 16 10 -2 3 22 -2 0 5
1532331420998864 -13 1 4 7 -39 -9 -17 -6
1532331421016816 -4 -9 -5 -11 9 -6 1 -1
1532331421038758 -6 5 -1 -11 -9 -3 7 -5
1532331421065685 9 -2 2 -1 1 10 2 6
1532331421090619 11 2 0 15 9 0 12 13
1532331421111563 22 17 6 -20 -3 9 13 15
1532331421157439 -1 -10 -4 9 2 -3 3 7
1532331421172400 9 -4 -6 -6 -26 7 -15 -3
1532331421195338 9 -1 -7 -28 -39 2 4 -7
1532331421217280 -6 3 6 12 -23 -12 0 -1
1532331421240231 15 5 0 -4 2 -8 11 10
1532331421272133 8 -2 -2 0 3 120 -6 -7
1532331421291082 -24 2 4 10 -13 -71 22 27
1532331421316016 2 4 4 -5 -5 -71 -24 -20
1532331421350922 -7 11 5 8 5 13 11 7
1532331421389853 -4 4 0 -2 -6 1 4 5
1532331421399792 1 2 3 7 8 4 10 1
1532331421410762 -7 -5 1 8 2 -5 2 -3
1532331421427717 -6 -4 -2 -5 -2 2 -3 -1
1532331421488553 -4 -1 -3 2 -2 -7 -4 0
1532331421504512 12 3 0 -2 -1 1 -3 -4
1532331421517477 1 -3 0 10 13 -3 -2 2
1532331421576319 -2 -1 -3 2 -8 -10 -2 -1
1532331421607237 -1 0 2 13 37 -10 -3 1
1532331421637156 10 23 -3 -21 -105 -16 -3 -2
1532331421651119 -2 -8 -8 -21 -88 -12 2 1
1532331421712954 -2 2 11 16 -4 7 0 0
1532331421727914 5 -1 -5 4 36 2 0 4
1532331421757833 -1 2 2 2 41 13 -2 -2
1532331421779814 -3 -10 0 31 105 7 1 2
1532331421796735 0 2 -3 7 25 6 3 0
1532331421826650 -2 -3 -13 -9 -16 -6 -3 -4
1532331421840612 -2 0 -2 -12 -36 -2 0 -2
1532331421856570 -4 -3 -1 -1 2 -3 -4 -4
1532331421879524 2 2 7 19 20 10 0 1
1532331421901460 -1 -1 5 -4 -36 -8 -2 -2
1532331421937354 -9 -6 2 16 111 8 1 -3
1532331421951316 3 5 9 35 77 6 -1 -2
1532331421967274 14 -12 -5 -5 -26 -13 -4 0
1532331421988218 -19 -2 -4 -4 5 2 3 -4
1532331422020132 -12 -32 -9 1 13 -10 4 -8
1532331422034094 1 1 -7 -13 20 -7 -6 -9
1532331422057034 -10 -9 -12 -26 -3 11 3 -3
1532331422093935 -11 -3 2 18 8 0 2 4
1532331422124852 6 28 2 5 17 1 -1 2
1532331422139812 5 1 1 0 4 -1 1 9
1532331422160756 4 -2 6 12 40 9 1 1
1532331422199652 1 -2 0 4 13 -6 -3 13
1532331422221593 1 -6 -11 -7 -10 0 -1 -1
1532331422246527 1 6 2 -3 13 0 -2 -3
1532331422282431 -3 -2 1 2 26 5 -1 2
1532331422321327 2 0 0 -1 -3 -3 -2 9
1532331422336286 -17 -11 -4 20 87 -1 -10 -24
1532331422358228 -46 -67 -4 10 48 0 -5 -5
1532331422387150 16 1 7 12 0 0 -8 -12
1532331422461950 2 2 -8 -30 -63 -6 -5 -38
1532331422493864 8 8 2 6 5 -7 -11 -1
1532331422507828 9 8 2 0 -8 9 14 9
1532331422536750 -7 3 1 4 33 7 -1 -13
1532331422559689 17 -18 -6 -14 7 18 4 12
1532331422581630 52 -2 -1 12 43 8 2 18
1532331422598585 2 -5 -4 -4 -13 0 21 31
1532331422619529 30 31 8 21 85 2 -31 -13
1532331422666403 -36 3 2 10 48 4 -2 -3
1532331422755165 -17 -8 -1 6 37 2 -3 -21
1532331422807027 -8 0 -4 9 3 6 1 -10
1532331422859886 -8 -2 -1 -5 -15 -1 -2 2
1532331422896788 8 -3 -3 -10 -22 3 2 -4
1532331422957624 -6 2 -6 -16 -30 -3 -1 -11
1532331422979566 1 3 6 6 20 2 0 -5
1532331423002504 -5 -2 -1 4 10 -1 2 -1
1532331423039405 2 5 -1 7 13 -3 -2 5
1532331423061347 -6 -4 -2 -3 -52 -7 -4 -11
1532331423096254 -1 2 0 -2 19 4 2 -2
1532331423101241 -2 -3 -1 8 21 1 0 1
1532331423138156 -1 0 0 1 14 1 -3 -1
1532331423168062 1 -2 1 3 9 -1 -2 -2
1532331423220919 1 -3 -1 1 1 0 -1 0
1532331423226904 3 -1 -1 1 4 -1 1 6
1532331423258819 -2 0 -3 -1 -2 -1 0 -1
1532331423271784 -2 0 -2 -2 -2 -1 0 -2
1532331423308685 -3 -3 -4 -5 -5 0 0 1
1532331423328632 1 2 4 4 1 -35 -3 -2
1532331423364538 -2 -4 -7 -7 -20 7 -3 -2
1532331423385480 -1 -3 -1 -6 -27 1 1 -1
1532331423399443 1 1 2 7 20 3 1 1
1532331423446317 -6 -2 -3 -3 4 3 -3 -4
1532331423475240 1 1 4 -1 -20 1 -1 -1
1532331423499176 -1 -1 0 4 8 -5 -1 0
1532331423504162 -1 0 0 -4 0 -2 2 -1
1532331423542061 0 -1 -2 -6 -3 -5 -3 -1
1532331423580957 -3 -1 -2 4 4 -9 -2 -2
1532331423602898 -1 -1 -3 0 30 -3 -5 -1
1532331423615864 1 2 5 -9 -22 10 2 -1
1532331423639800 -1 0 -4 1 5 -6 -3 -2
1532331423686675 -2 -1 0 3 3 2 0 -1
1532331423708615 0 1 5 4 -2 -2 -2 1
1532331423724573 -1 -1 -2 -6 -2 -2 -1 -2
1532331423805356 -1 -2 -4 -9 -9 -2 -2 -3
1532331423842257 0 0 -3 -2 13 1 -5 -2
1532331423865197 -1 0 -1 -2 4 -1 1 1
1532331423895117 -3 -2 -2 0 0 0 1 -1
1532331423902098 1 0 -1 -4 -28 -8 -1 0
1532331423933015 0 -3 -1 3 -5 0 1 -2
1532331423947975 0 2 0 -6 -4 0 -1 1
1532331423985873 -1 2 2 1 -1 0 -2 -2
1532331423999837 -2 -4 -3 -2 -2 0 -2 0
1532331424022775 -2 -1 -1 -2 -5 -2 -1 2
1532331424045729 0 2 0 1 8 1 -1 -1
1532331424067655 -1 -4 0 -1 1 -1 -2 -2
1532331424082615 -3 -1 -2 -1 0 0 -1 -1
1532331424105554 0 -4 -4 -4 6 -1 -1 1
1532331424119516 1 -1 0 2 -3 -2 -2 -3
1532331424150434 -2 -2 -3 0 -3 -1 -1 -2
1532331424172375 0 3 -1 -2 -18 -2 0 -1
1532331424202294 -2 -1 0 -1 4 -1 0 -1
1532331424239196 -2 -1 1 1 7 -2 -3 -1
1532331424262135 -1 -1 -1 0 3 1 -1 -1
1532331424285074 1 0 -2 -2 -5 1 0 -3
1532331424308012 1 -1 -2 -2 -3 0 0 2
1532331424322972 -2 -2 -4 -2 -1 7 2 0
1532331424344913 1 -2 0 -3 -7 -5 1 0
1532331424382812 -2 -2 -2 0 7 -2 -2 -2
1532331424404766 -1 4 1 4 1 15 6 0
1532331424418716 -3 -2 0 -1 -4 -6 -3 -1
1532331424441655 -1 -3 -2 -2 -7 -7 -1 -1
1532331424464593 0 -2 -1 -3 -9 -3 -2 -1
1532331424486535 0 -2 1 2 0 0 -3 1
1532331424525431 -1 -1 -3 -4 0 -2 -2 -1
1532331424555351 0 -1 0 -2 8 2 -1 -1
1532331424568316 1 -1 -2 0 -5 -1 -1 -1
1532331424608209 0 -1 -3 -1 -2 -2 0 0
1532331424624167 -2 0 0 0 0 0 0 -1
1532331424647106 -1 -3 -2 -2 9 -2 -2 -2
1532331424712928 1 2 1 0 -3 0 2 0
1532331424718913 -1 -1 -3 -2 -2 0 -2 -1
1532331424764790 -2 -2 -6 0 -2 -1 -1 -3
1532331424801691 0 0 3 -7 -16 -4 -1 0
1532331424808673 1 2 0 7 -17 -3 -1 0
1532331424847569 -2 1 8 -1 -13 -3 -3 -1
1532331424870513 -1 -5 -10 -21 -38 -4 -1 -2
1532331424885467 10 19 3 3 4 -3 0 2
1532331424922369 -3 -9 0 1 -1 1 2 0
1532331424938326 1 5 3 -1 -13 -3 -1 -1
1532331424952288 -4 -1 -3 -5 -11 -5 -2 -18
1532331424990187 -1 0 2 2 2 3 2 -2
1532331424996171 4 0 -2 0 11 0 5 10
1532331425027089 3 0 1 -1 -14 -4 2 -4
1532331425056011 3 1 -1 -7 -2 -3 -1 7
1532331425109867 0 1 0 -1 11 7 -2 8
1532331425124827 -1 -3 -4 -3 0 31 3 1
1532331425147768 0 0 0 7 29 5 1 5
1532331425160731 -1 -2 -2 -5 -21 2 -6 -5
1532331425215596 0 -2 -1 7 32 3 4 4
1532331425267446 -1 8 2 3 -6 -8 0 -2
1532331425281415 -6 -8 -6 2 24 6 -8 -10
1532331425312325 -1 -2 -2 -2 42 4 3 3
1532331425326288 7 3 7 6 -57 -7 4 9
1532331425365184 -4 1 3 -4 -3 -5 -4 -2
1532331425401088 -6 -6 -1 2 -20 -6 3 -4
1532331425447979 -4 -6 -10 -11 8 0 1 0
1532331425460928 -1 1 6 2 -2 -6 -1 0
1532331425507802 2 1 -5 7 62 -38 -9 4
1532331425520781 -2 -9 -2 -3 -38 -9 -3 1
1532331425567643 9 22 2 5 -71 -4 1 8
1532331425627482 -3 -4 -4 4 15 -5 4 3
1532331425665385 4 -5 -1 -7 -72 1 4 8
1532331425687322 -7 -8 0 4 48 5 -5 -5
1532331425701285 -3 -4 -2 -1 9 20 0 -1
1532331425740181 -1 -3 0 -4 -10 -19 -3 1
1532331425770101 -3 -1 1 6 -8 -10 -4 2
1532331425784064 -3 -2 -1 3 -1 8 -1 -2
1532331425807999 0 1 2 -3 10 -2 0 1
1532331425835925 3 0 -2 -3 -4 20 -1 0
1532331425867840 2 -3 -2 -10 -32 -12 3 1
1532331425889781 -1 1 0 -1 11 2 0 0
1532331425927679 1 -1 -3 -11 -10 1 -5 -3
1532331425949620 1 -3 -3 0 -5 15 0 5
1532331425966576 0 -2 -3 0 -9 -5 4 -9
1532331426031402 2 0 2 2 1 -6 1 4
1532331426049355 -3 -2 -1 -4 -6 -8 -4 -4
1532331426083263 0 0 0 4 6 0 4 1
1532331426107199 -2 -3 -4 1 17 3 -1 3
1532331426144101 -2 -6 -6 -21 -39 -1 -4 -4
1532331426168037 -5 0 0 6 17 -4 -1 0
1532331426219898 1 0 1 6 45 7 3 3
1532331426249818 -4 -6 1 -5 -8 2 -2 -2
1532331426302676 -1 -1 1 0 7 0 -2 -1
1532331426340575 -8 -16 -2 -10 -45 -6 -5 2
1532331426378473 0 27 2 1 2 -2 -3 -4
1532331426400415 -13 -54 -2 -1 7 4 -1 3
1532331426475215 -9 -31 -2 -4 -2 6 2 7
1532331426481199 1 -5 -4 -3 6 -1 5 -7
1532331426535055 4 18 3 -4 -51 -5 -3 -2
1532331426572954 -7 -15 0 -2 19 0 -2 -6
1532331426603870 4 13 2 7 -16 2 0 -1
1532331426632793 -2 -5 -2 -1 -7 -2 -2 -1
1532331426654735 5 20 -1 2 -1 0 -2 -2
1532331426700612 -1 -3 -1 1 3 -1 1 2
1532331426730533 -2 -4 -2 0 0 0 -1 2
1532331426753471 0 -1 2 2 1 -5 3 1
1532331426775412 1 0 0 0 0 1 -5 1
1532331426790372 1 0 -1 -1 0 27 9 3
1532331426812313 -4 -3 -4 -1 -6 -16 -2 -2
1532331426827273 1 -1 -1 -3 5 30 4 2
1532331426850212 -2 -2 -2 -4 0 25 -3 -4
1532331426873151 -1 -1 -1 -1 -4 -22 -4 -1
1532331426895091 -3 -3 0 -3 -11 -57 -8 -3
1532331426910052 0 -1 0 0 -5 12 -3 2
1532331426932990 1 -2 0 -2 -18 33 6 -1
1532331426962911 0 0 3 4 -14 -5 -1 0
1532331426991833 0 2 4 7 32 -14 -1 1
1532331427029732 -1 0 -1 -2 -10 6 -1 -1
1532331427052670 0 -1 1 4 -2 12 -4 -3
1532331427066633 -1 0 -2 5 27 -6 0 0
1532331427126473 -3 -3 -5 -8 -27 -4 -2 -1
1532331427150408 -1 -2 -3 -7 -5 2 -5 -2
1532331427186313 -3 -2 -1 1 29 3 -1 -3
1532331427240168 1 -2 -1 -2 -17 0 2 1
1532331427255128 -2 -3 -6 -3 14 -7 -3 -2
1532331427285049 0 1 1 -5 -7 -12 -2 1
1532331427315966 -1 -2 -1 1 -25 -3 -2 -1
1532331427352867 1 0 -1 -2 -23 -3 -2 1
1532331427365832 0 -2 -1 -5 -15 -1 0 -2
1532331427397747 -2 -3 -3 -3 10 3 -3 0
1532331427418692 0 -2 -2 0 2 -5 -2 0
1532331427472547 -1 -1 0 1 -2 -4 -2 -2
1532331427486510 0 -1 1 1 -10 -1 -2 -2
1532331427502473 0 -1 0 -1 5 8 0 0
1532331427555325 -3 -1 -2 -3 12 -1 -8 -4
1532331427592227 -2 -1 1 -1 11 -2 0 1
1532331427630125 1 0 -2 -2 -12 3 0 -1
1532331427652067 0 -1 -3 -4 9 2 0 0

1532331427682984 1 0 -3 -3 -7 0 -1 -1
1532331427712904 0 -1 -1 -1 2 -1 1 1
1532331427735843 -3 1 0 4 -5 1 -4 -2
1532331427740829 0 -1 -1 0 -7 -11 -4 -3
1532331427772744 0 -2 1 -2 -5 0 0 0
1532331427795682 -1 -2 -3 -3 1 3 -2 -1
1532331427825602 -1 0 -1 0 3 -5 0 -2
1532331427832584 -2 -4 0 -1 7 -2 -1 -2
1532331427883448 0 -1 1 -2 7 1 2 3
1532331427939298 1 0 -1 3 6 2 -2 -4
1532331427954259 -2 -2 -3 -1 5 -1 0 -2
1532331427996146 -2 -3 0 -2 -2 0 1 -1
1532331428029059 0 0 -1 -1 -12 -4 1 0
1532331428081917 -1 -3 -3 -4 -1 -2 4 -2
1532331428088921 -1 1 -2 0 3 1 3 1
1532331428115826 1 0 -1 0 -2 -2 -3 -1
1532331428148738 -1 0 -1 -1 1 -2 0 -2
1532331428201596 -1 -3 2 0 7 0 -4 2
1532331428215565 -3 0 -3 -7 -11 -3 -2 -3
1532331428228525 -1 -1 -2 -2 -15 -12 1 -2
1532331428243484 -2 -1 1 -1 1 -2 1 -2
1532331428275399 -1 -3 -2 -1 2 -5 1 1
1532331428288365 1 0 0 1 6 4 0 -4
1532331428305319 1 -2 -2 -2 -8 0 -1 1
1532331428342221 -2 -3 -1 -2 3 -1 2 1
1532331428349217 -2 0 -1 0 -3 0 -3 -1
1532331428372141 -1 0 -1 1 -2 0 2 0
1532331428439958 -2 -1 -4 1 -1 1 1 6
1532331428462898 -2 -2 0 0 3 1 -2 0
1532331428468882 -2 0 0 -1 2 0 0 -4
1532331428492818 0 -3 -3 -2 2 2 -1 -1
1532331428521741 -1 0 -1 -1 4 3 0 -2
1532331428582578 0 -1 1 -2 -4 -1 2 4
1532331428588562 1 -1 -1 -1 -2 -3 -1 0
1532331428642417 0 -1 -1 -2 -1 0 -6 -4
1532331428680336 0 -1 -2 -2 -3 -3 -4 5
1532331428694279 -3 2 0 1 5 -1 -2 0
1532331428702257 2 -2 1 2 1 2 -2 -2
1532331428740156 1 -1 -2 -1 1 -4 -3 -4
1532331428785036 0 -1 -2 0 -1 -3 -2 -2
1532331428798999 1 1 -1 -1 -1 0 -1 -7
1532331428824929 -1 -1 -1 -2 2 1 0 1
1532331428838893 -3 -2 1 -1 -1 -3 1 1
1532331428861831 0 1 -1 -2 -1 -1 -2 1
1532331428876791 0 -2 -1 -2 -2 4 0 2
1532331428906711 -3 -1 -1 -1 -4 -2 -2 -1
1532331428926657 1 -1 -1 -1 2 5 -1 0
1532331428944609 0 -1 -3 -1 0 0 -1 1
1532331428980513 -2 -3 -1 -1 0 0 4 1
1532331428995473 1 -2 0 -1 -5 -5 -2 -3
1532331429017414 -1 -2 0 -1 -4 -3 -2 -4
1532331429031377 -1 0 -1 -1 -2 -2 0 -1
1532331429055312 -2 -1 -1 -1 1 -3 -3 -1
1532331429077254 0 1 -2 -3 -11 -1 -2 -2
1532331429100193 -2 -2 1 -1 4 -1 -3 -1
1532331429114156 -1 -2 -3 -2 3 0 -3 -2
1532331429151057 -1 -1 -1 0 3 -2 -2 -2
1532331429173996 1 0 -1 1 -4 3 -1 -4
1532331429204913 0 -2 -3 1 20 2 -2 5
1532331429221884 0 -1 -1 -2 -11 0 -2 -1
1532331429259766 -1 0 0 2 1 -1 1 0
1532331429272731 0 0 -4 -3 -17 -1 4 0
1532331429325602 -1 0 -1 2 -1 -1 0 -1
1532331429378448 0 -1 -1 0 -4 -1 -3 -3
1532331429437298 -1 -1 1 0 20 -3 -5 -2
1532331429476187 -2 -1 1 11 18 -2 -3 -2
1532331429542011 6 2 1 6 -6 7 7 3
1532331429564962 -6 0 2 -5 -22 0 -8 -5
1532331429579910 -17 -8 -9 1 3 0 -9 -4
1532331429617808 10 -1 1 2 4 0 -8 -6
1532331429640747 12 -1 -3 1 -4 -5 4 1
1532331429655707 6 1 0 -1 -7 2 4 2
1532331429676651 2 -2 0 6 2 0 -10 -3
1532331429714551 11 -7 -3 -2 -9 -1 -7 -5
1532331429759430 6 -2 -1 -8 7 13 8 1
1532331429783366 -20 2 1 -20 -12 -9 0 -9
1532331429797330 -54 -8 -8 -16 -20 -3 4 -7
1532331429821264 18 -4 2 4 3 -6 7 18
1532331429857168 -6 -4 -4 4 2 -26 2 4
1532331429880122 27 4 2 8 5 6 -2 1
1532331429911023 -13 1 -4 -6 1 8 0 -5
1532331429947925 -9 3 3 5 0 -2 13 6
1532331429976848 -14 -10 -4 -6 2 -1 -13 -5
1532331429999787 28 6 11 23 -8 -4 4 1
1532331430021728 -5 -3 3 13 9 4 2 -2
1532331430076581 -27 -5 -4 -10 0 -3 -11 -11
1532331430105504 1 -1 -5 -5 4 -2 -3 -6
1532331430120464 -15 -3 -2 -3 -10 0 -2 -8
1532331430142405 -24 6 1 1 0 15 -1 -16
1532331430187301 11 5 6 -2 -4 0 9 12
1532331430202245 -7 -3 -3 -7 -6 3 3 3
1532331430225184 -20 -6 1 9 3 6 10 -4
1532331430277045 12 -3 -2 -9 -9 5 -26 -6
1532331430299983 25 -13 -4 19 -2 -4 -16 1
1532331430336885 9 4 -3 -16 4 -2 -9 -8
1532331430366805 0 -1 -9 -29 -26 17 -1 2
1532331430419663 -14 -6 -18 15 -1 0 -7 -10
1532331430480509 -4 -4 6 13 6 18 5 1
1532331430502442 -16 -8 8 -1 5 -6 7 6
1532331430540341 -1 2 7 3 -12 -7 -10 -5
1532331430600181 -18 -4 -4 -1 -1 -2 3 4
1532331430645060 3 -1 -4 -2 3 -3 -1 -1
1532331430660020 -2 -6 -6 -15 -10 4 1 3
1532331430697919 4 1 1 2 0 -3 4 1
1532331430742799 5 -2 -3 0 -3 2 1 3
1532331430779700 0 0 -1 0 1 -4 1 -4
1532331430840537 -3 -1 -4 -6 -9 -5 -1 -1
1532331430862479 2 -2 3 6 16 0 -2 -1
1532331430900378 -1 1 6 15 28 7 1 3
1532331430939274 -3 -5 1 6 31 -3 -4 -2
1532331430944260 -7 -23 -2 5 15 11 -1 -3
1532331430997125 0 8 -1 -11 -31 -10 -1 -3
1532331431021054 -4 -11 0 -10 14 0 1 1
1532331431042995 0 -9 -1 15 75 11 -1 -2
1532331431094856 -4 -26 -6 8 30 1 -3 -4
1532331431132756 6 -3 4 -4 -27 -1 -2 -1
1532331431162676 0 13 14 12 6 -4 -1 -1
1532331431184617 -2 -10 0 0 25 3 2 0
1532331431222516 -2 -16 -3 -1 27 5 -4 -5
1532331431268393 -23 -27 -8 -4 4 2 -6 -5
1532331431296318 -1 -2 -2 7 -14 3 -1 -4
1532331431356158 -6 -5 -4 -5 -22 0 -2 -6
1532331431382089 -1 -10 -3 -5 22 0 0 7
1532331431403049 4 4 -2 -8 4 -2 1 0
1532331431424975 3 3 6 10 32 -1 0 1
1532331431462873 9 18 -1 7 29 6 1 2
1532331431484814 0 4 2 -2 4 2 6 0
1532331431529694 1 -13 -8 -19 -79 -3 0 -1
1532331431544654 -3 6 -1 16 25 -1 -3 -2
1532331431589534 1 -4 1 2 -15 -3 0 -6
1532331431621448 -5 -8 -6 -1 -14 -1 -1 5
1532331431665331 5 10 4 1 -12 -4 -1 -2
1532331431725171 1 1 3 0 -14 -4 0 12
1532331431747113 0 -8 -1 4 -17 -6 -6 6
1532331431785011 -4 -4 4 7 2 12 5 -6
1532331431807950 2 0 -2 4 25 -1 2 -9
1532331431844864 -16 -2 -4 -12 8 -6 0 -13
1532331431858813 10 19 -4 -9 43 2 4 0
1532331431867790 7 9 -3 -14 -62 -18 1 9
1532331431883747 1 -10 -3 -10 -33 -10 1 9
1532331431906688 -9 -7 1 1 54 -2 -2 6
1532331431929624 -15 -13 -8 -14 8 -15 -13 -6
1532331431944584 3 17 0 6 3 5 3 0
1532331431966526 -18 -13 -10 -17 3 6 3 -9
1532331431995448 -31 1 -1 8 -19 -8 3 -5
1532331432004424 8 -12 6 4 -8 -2 -3 -14
1532331432034343 -2 -7 0 14 33 10 -4 8
1532331432047314 11 0 -2 -8 -27 2 1 1
1532331432064282 7 -10 -2 -10 -21 -9 1 -2
1532331432099171 1 -6 -6 -20 -51 -4 -4 -5
1532331432108147 7 2 2 18 69 4 -2 1
1532331432132083 -8 -4 0 6 -15 0 1 -8
1532331432151032 7 6 5 5 -1 -2 2 5
1532331432167987 -1 -2 -4 -7 -13 3 -5 -2
1532331432204888 -5 9 2 2 20 -3 -5 0
1532331432218851 4 2 0 1 -31 -1 6 3
1532331432272707 2 4 1 9 28 5 1 -2
1532331432278690 1 0 -1 0 7 0 0 -2
1532331432302626 1 0 -3 -3 -18 3 1 3
1532331432325565 1 -5 -2 -6 -18 -1 -2 4
1532331432338531 2 -1 -3 -3 -36 -3 -1 -2
1532331432361469 2 0 1 1 5 -3 -3 -9
1532331432392386 2 1 2 0 15 -1 -1 -3
1532331432415325 -2 -4 -4 2 -6 -2 -3 0
1532331432428290 5 -2 0 3 8 -1 -3 -5
1532331432447239 4 5 -2 -2 -1 -4 4 6
1532331432469191 10 -2 8 2 7 17 4 6
1532331432496109 3 -1 -1 3 8 0 0 -3
1532331432507079 1 -6 -2 0 -2 -5 -6 -2
1532331432535005 -2 -2 -1 0 -6 -5 1 2
1532331432548967 -8 0 -2 0 6 1 -3 -7
1532331432566920 -10 -2 1 0 0 -5 -3 0
1532331432588865 2 -3 -4 -4 -8 -6 1 3
1532331432624765 0 5 -1 -2 17 6 -2 6
1532331432654685 3 6 1 2 -5 1 2 1
1532331432668647 -3 0 -1 0 -1 3 3 2
1532331432692584 -3 -5 -4 -4 2 -2 -2 -4
1532331432721506 -1 -1 -4 -11 13 3 1 -3
1532331432760402 -4 -2 -3 -2 -14 -20 -4 -2
1532331432775362 -1 -3 -6 -1 0 12 1 0
1532331432797306 -1 -2 0 -4 -7 -5 -9 -5
1532331432827224 -2 -2 -2 -1 -6 -6 -5 -1
1532331432841189 0 2 1 3 26 8 -1 1
1532331432850161 -2 0 3 1 8 4 0 0
1532331432867117 1 3 -2 -5 -6 0 -3 -1
1532331432889057 -3 -4 -4 -7 -10 -1 -1 -2
1532331432910002 -1 -2 -5 -5 -2 -3 0 -1
1532331432933937 -1 -2 -4 -7 -14 4 -1 -2
1532331432949895 0 2 5 0 11 -13 -3 -2
1532331432969842 -1 -1 -3 9 2 -6 1 1
1532331432986797 0 -3 -2 -6 -13 5 -1 -2
1532331433016732 0 1 -3 -1 0 -3 -4 -1
1532331433030693 0 2 5 1 5 -1 -3 -2
1532331433054615 -3 -5 -11 -2 -2 2 -5 -4
1532331433069575 0 1 0 -2 -7 -3 5 2
1532331433091516 -1 -2 0 -5 -2 0 -3 -2
1532331433106476 -3 -1 -1 -1 3 1 0 -1
1532331433129415 2 2 3 1 1 -1 2 0
1532331433165319 -1 1 -1 -1 -2 -1 -2 -2
1532331433187261 1 -1 -2 -3 -8 1 1 -2
1532331433201223 0 -3 -2 -2 6 4 1 -1
1532331433231143 -4 -1 -1 -3 6 -7 -1 -1
1532331433250091 -1 0 -1 -4 3 3 0 -2
1532331433262060 -1 -3 -2 -3 -4 -3 -3 1
1532331433284001 1 -1 1 1 0 1 -1 1
1532331433315915 -1 0 2 0 -2 1 -1 -1
1532331433320903 -1 -4 -8 -6 0 -3 -2 -1
1532331433344842 2 3 5 3 -4 1 -1 0
1532331433367777 -1 -2 -3 1 -1 0 2 -1
1532331433390715 0 0 0 0 0 -1 0 0
1532331433404679 -1 -2 -3 1 5 1 -2 -1
1532331433434598 -1 -1 -2 2 -3 -5 -2 -1
1532331433472497 2 1 1 5 1 4 0 -1
1532331433487457 -4 -3 -4 -5 -7 -5 -3 -3
1532331433517377 0 -1 2 2 2 2 -1 -1
1532331433524358 -2 -2 -2 -4 -6 1 -1 -2
1532331433562256 -1 -2 -2 -5 -22 -14 -3 -1
1532331433584198 -1 -2 0 -3 -4 0 2 -2
1532331433607137 -2 0 -4 -2 -5 -5 -1 -1
1532331433630076 -2 -1 2 0 11 3 -1 0
1532331433666977 -1 -3 -2 -2 -11 0 0 -1
1532331433689915 -1 -1 0 2 0 6 -4 0
1532331433712854 0 1 3 -1 6 -1 0 -2
1532331433727813 0 0 1 3 8 -2 -1 -1
1532331433749755 0 0 -2 -5 -4 0 -1 1
1532331433772695 -1 2 1 2 1 -1 -2 -2
1532331433795633 0 -1 -2 -2 -2 1 0 0
1532331433811590 -2 1 -1 -4 -21 -4 -2 -2
1532331433847509 -1 0 -1 0 -1 -2 -2 0
1532331433878411 -1 1 0 -1 4 1 -2 0
1532331433883398 -2 -2 -3 -2 -2 -2 1 -2
1532331433915313 0 -1 -2 -2 0 -1 0 -1
1532331433952214 0 -1 1 2 0 4 -2 1
1532331433975153 -2 -3 -4 -5 -3 3 -1 -1
1532331433998090 -2 -1 0 2 -4 -5 -3 -1
1532331434004075 -1 1 0 5 4 -1 -1 1
1532331434028011 1 -2 1 4 3 1 0 -1
1532331434072906 -3 1 0 3 3 -1 0 1
1532331434094832 -1 -2 -1 -2 -2 -2 0 1
1532331434109792 1 -1 -4 -4 -2 -1 -2 -2
1532331434123755 -4 -1 -2 0 -4 -4 -3 -1
1532331434147691 -3 -1 -1 1 4 1 0 -3
1532331434183595 -3 -3 -1 -3 -1 1 -1 1
1532331434215509 0 0 -1 0 2 -1 -2 -2
1532331434230471 -1 -2 1 -3 -5 -6 -1 -2
1532331434243434 -1 0 -2 3 -8 -7 -1 -2
1532331434267371 0 0 3 2 5 0 0 -2
1532331434290310 -1 0 -5 -8 7 5 3 1
1532331434313249 -1 0 2 6 8 0 1 0
1532331434334191 -3 -1 -2 -1 7 0 -1 -4
1532331434372090 0 -1 2 8 16 6 1 -1
1532331434388050 -2 -4 -2 -9 -24 -5 -3 -2
1532331434409989 -2 2 0 -7 -7 3 0 0
1532331434439909 -1 0 1 -1 -13 -6 -2 0
1532331434447888 1 1 1 1 -15 1 0 -2
1532331434469829 -2 -5 -5 -6 -22 -11 -4 -1
1532331434492768 2 -2 2 6 47 5 1 0
1532331434568566 -1 -2 -1 4 14 4 1 2
1532331434581531 -1 -3 0 0 -7 0 -1 -3
1532331434591503 0 -4 -2 2 12 1 -3 1
1532331434614442 -2 -2 3 -6 -37 -9 0 -2
1532331434642367 -2 -3 -1 2 -7 1 1 1
1532331434688245 0 0 2 5 31 12 0 -10
1532331434695226 -1 -1 1 -4 -7 17 3 -1
1532331434731130 -5 -2 -1 -2 12 -4 -4 -2
1532331434792965 2 1 -6 -25 -50 -11 -1 -3
1532331434805930 -2 -3 0 4 29 15 8 1
1532331434829866 1 0 2 7 25 6 3 -1
1532331434852805 3 4 -5 -8 -28 -11 -3 1
1532331434865770 -1 -1 3 3 -20 -16 -4 -2
1532331434889706 -1 0 -2 -2 26 11 3 -1
1532331434912644 -6 2 5 8 15 8 -1 -7
1532331434942580 -3 -8 -1 8 45 10 3 0
1532331434995424 -1 -1 -4 -10 2 2 -5 6
1532331435010383 -3 -3 -7 -7 -14 -7 2 -1
1532331435046287 -4 -3 -4 -21 -29 34 1 -18
1532331435092165 2 0 2 -9 -60 -16 -3 10
1532331435106127 -2 0 1 2 23 -13 -8 -12
1532331435115104 3 2 2 -1 -14 -13 -4 -4
1532331435132058 0 4 0 1 5 41 0 -2
1532331435153999 0 -6 -10 -30 -22 -1 5 -10
1532331435174946 -2 -5 -5 -16 -10 -23 1 9
1532331435203865 -1 -2 -4 4 -11 -16 -6 -8
1532331435213840 1 -2 0 6 3 3 -1 13
1532331435240767 -1 0 2 19 78 24 8 -17
1532331435272682 -3 -13 4 9 25 3 1 5
1532331435294623 -6 -4 1 -4 -28 -4 5 17
1532331435309583 -2 -1 -5 -2 19 -19 0 -13
1532331435323546 -7 -5 4 12 -9 5 -3 10
1532331435355460 -8 -4 -4 -9 4 -5 -14 -19
1532331435392361 2 1 -5 5 3 0 8 3
1532331435415300 1 5 -1 8 15 9 -2 13
1532331435453199 -1 -4 -3 -1 16 16 0 1
1532331435482121 2 -1 3 3 -14 -5 6 3
1532331435489102 0 -2 3 -6 -28 -7 5 -9
1532331435513055 0 -2 2 3 4 -3 0 -2
1532331435534979 2 13 18 -3 -19 -9 -3 -8
1532331435557919 0 6 -13 17 5 -5 -6 -24
1532331435573875 -4 -6 1 5 1 -13 1 19
1532331435600804 -5 7 8 -1 -38 -17 -1 1
1532331435632718 -1 -4 -6 0 -7 2 0 -3
1532331435654660 -3 1 3 -4 2 -8 1 -8
1532331435668622 -2 4 -2 -10 -18 -6 -1 -8
1532331435692558 -1 -2 -9 -14 -21 -30 -13 -2
1532331435715497 -2 -3 -3 -2 14 20 5 0
1532331435728462 0 -2 0 -3 -4 -3 6 -3
1532331435745417 -3 -3 0 2 23 2 -6 -2
1532331435775337 1 1 3 -1 -32 -9 -6 -1
1532331435788302 0 0 -5 -16 9 21 2 0
1532331435812238 2 3 0 5 -7 1 15 19
1532331435834180 0 -2 3 8 7 2 -6 2
1532331435857117 0 0 4 -1 -38 -7 -5 -2
1532331435880058 2 0 -1 -4 -25 -6 -2 0
1532331435902995 -11 -3 -7 -5 19 -14 -11 -26
1532331435931918 4 1 1 13 14 8 3 9
1532331435953860 1 3 3 -18 -49 2 5 4
1532331435976797 -7 -4 -3 -3 -1 3 6 -10
1532331436014697 9 6 1 -6 27 -2 8 19
1532331436051597 -10 -2 5 13 50 6 6 2
1532331436074537 -4 -13 -6 8 27 -1 -3 -10
1532331436096482 8 4 5 4 -16 1 0 0
1532331436144350 -9 -20 -3 -3 -15 -3 -2 2
1532331436157316 0 9 1 -4 8 0 -9 -1
1532331436180291 0 -13 -4 7 33 3 -8 3
1532331436194216 12 31 3 -4 4 2 5 6
1532331436234109 7 3 -3 -7 1 3 4 8
1532331436255054 0 -9 -3 -20 -55 -13 8 1
1532331436300931 2 11 -2 -2 -16 -4 -2 -5
1532331436315899 -4 -14 1 6 19 1 -3 -1
1532331436336835 4 26 3 -2 -23 0 -5 2
1532331436367752 -1 -7 2 4 14 5 1 -5
1532331436421609 -5 -8 -1 -2 -3 -4 -3 1
1532331436426595 -1 -3 -5 -1 5 -6 -11 -11
1532331436479453 -5 -7 -1 6 29 1 -2 -7
1532331436490424 -1 -3 4 4 14 -4 -12 -5
1532331436525330 -7 -1 -1 -11 -45 -6 -1 -2
1532331436540291 -1 -3 -2 4 36 6 3 1
1532331436579187 -7 -25 -4 -5 0 2 4 -2
1532331436593150 -3 -11 -1 5 31 3 1 -2
1532331436660968 -1 -2 -1 -4 -22 -3 -2 -3
1532331436673933 -1 -5 0 5 15 1 -1 0
1532331436713827 -1 -5 1 -1 -9 -5 0 0
1532331436749731 0 -2 -3 -7 -3 -2 -1 -1
1532331436764691 -3 -7 -7 -3 -3 3 2 -1
1532331436802589 -2 -2 0 -1 -3 0 -1 0
1532331436816551 -3 -3 -4 -1 -3 -3 2 2
1532331436847469 2 -1 -1 0 1 0 -1 -2
1532331436876392 0 0 -2 0 -1 1 -1 -2
1532331436899330 -1 -2 -1 -1 1 -1 -2 -1
1532331436924263 -2 0 1 0 -2 -7 -2 -1
1532331436937238 1 1 0 -1 3 4 0 1
1532331436962163 2 -1 -2 -1 -5 -7 -3 -1
1532331437012029 -4 -4 -5 -6 -19 -4 1 -2
1532331437023000 2 3 2 4 17 -2 3 -1
1532331437034968 -3 0 -3 -6 -18 -6 0 -1
1532331437096802 3 0 2 -1 53 12 6 2
1532331437140684 -1 -2 -1 1 10 -9 -5 -3
1532331437201522 0 0 -4 -12 -34 6 -2 -1
1532331437305258 -1 -4 -1 -1 20 2 -1 -2
1532331437357106 -2 1 1 -6 -11 1 -3 -4
1532331437424924 -1 -1 -3 -9 -7 2 0 0
1532331437439884 0 0 -1 1 -5 -6 2 1
1532331437462822 -2 -2 -4 -2 0 1 -2 -3

1532331437499724 -5 0 0 -1 4 -5 -2 -3
1532331437544604 -3 -2 -1 2 29 1 1 -5
1532331437597463 -3 0 0 1 -3 -6 -6 -3
1532331437627383 -1 -1 -2 3 18 -1 0 -1
1532331437680198 -1 -5 0 1 10 1 -1 0
1532331437702139 -1 0 -1 1 5 -4 0 -1
1532331437754997 0 1 0 0 12 0 -1 0
1532331437861711 -2 -2 0 -2 1 -2 0 0
1532331438017295 -2 -2 0 -1 6 0 -2 -3
1532331438137973 -1 1 -2 -3 -2 1 2 1
1532331438182852 -2 0 0 -1 -20 -7 0 -3
1532331438219754 -1 -2 -2 0 5 -1 -2 -3
1532331438242693 -1 0 -1 -1 2 2 -4 -3
1532331438271615 0 0 -1 -1 -4 -4 -2 -2
1532331438295551 -1 -1 -1 1 -1 -2 -3 1
1532331438312506 0 -2 -1 -3 -9 -1 -1 -1
1532331438326472 0 -1 -1 -1 1 1 -2 -3
1532331438349407 -1 0 0 1 -1 2 -1 -1
1532331438383316 0 -1 0 0 3 5 -2 0
1532331438423209 -2 -2 -1 -3 -3 -3 4 1
1532331438437172 -1 0 1 1 -4 -11 -2 -2
1532331438483050 -1 -2 -3 -3 -5 -2 1 1
1532331438497022 -2 -1 -4 -1 -1 1 -3 -2
1532331438503994 -1 -2 -1 -1 -3 -2 -2 1
1532331438549871 -1 0 -1 0 2 2 2 -2
1532331438563842 1 0 -1 -1 -1 -2 3 -1
1532331438585775 1 -2 -2 -1 0 0 1 -2
1532331438603727 -2 -1 -1 -2 0 2 -2 -2
1532331438639631 -1 1 0 -1 0 1 0 -2
1532331438662569 -3 -1 -2 -1 -2 0 -2 -1
1532331438692489 -2 0 -1 -1 -1 2 2 1
1532331438709444 -1 -1 0 -2 -2 -4 -1 -2
1532331438745365 -2 -1 0 -3 0 1 0 -1
1532331438762319 -1 -1 -1 -2 -2 -1 -1 -1
1532331438791242 0 -2 -1 3 -1 -3 -2 0
1532331438806202 -2 -1 -2 -1 -3 0 0 -1
1532331438826148 0 -2 -2 -2 0 -1 0 0
1532331438845374 0 0 0 -1 -1 0 -3 -2
1532331438865322 -1 -1 -1 -2 -2 -5 2 1
1532331438881280 -1 0 -3 -1 -1 1 0 1
1532331438904218 0 -1 0 1 -1 0 -4 -2
1532331438933142 -2 -1 0 0 -1 -1 -2 0
1532331438949099 -2 -2 0 -3 -1 -3 0 -1
1532331438972037 0 -1 -2 0 -1 0 -2 -2
1532331438985002 -2 -1 -1 -3 0 1 -2 -1
1532331439001957 -1 0 -1 0 -1 -3 1 -2
1532331439023899 0 1 0 0 0 0 -1 -1
1532331439052821 0 -3 -1 -2 0 -1 -2 0
1532331439089722 -1 0 -2 -1 1 -3 0 0
1532331439104682 -1 -1 0 0 -1 2 -3 -1
1532331439142581 -1 -1 -1 6 18 15 -1 -2
1532331439165520 -3 -2 -3 -2 1 -23 -4 -3
1532331439210399 -1 1 0 -7 9 -5 -4 -1
1532331439225360 -2 -4 -8 -4 -5 1 -1 1
1532331439240325 0 0 4 -2 3 1 -6 -1
1532331439262261 0 2 -1 -2 -21 0 2 2
1532331439299162 -3 -4 3 -1 8 0 8 2
1532331439322101 0 -9 -2 0 3 1 -1 -1
1532331439353018 -1 3 -1 1 0 0 0 -2
1532331439382938 -5 1 -1 1 0 -2 -22 -12
1532331439441781 2 3 -6 0 -5 6 17 9
1532331439457738 1 -1 2 7 8 5 -6 -4
1532331439487658 -42 9 7 1 -16 -1 20 6
1532331439504625 76 3 -1 -2 5 2 9 17
1532331439526564 4 -11 -4 10 4 -8 -19 -13
1532331439547498 4 -8 -1 1 5 -10 -17 -9
1532331439564453 -7 2 2 14 27 9 1 1
1532331439594373 21 2 6 22 -11 -5 -3 3
1532331439621301 10 -1 -8 -19 -16 -1 9 11
1532331439645237 24 -12 -1 1 -5 6 -7 -2
1532331439659199 4 3 10 18 -8 1 -3 -2
1532331439682138 42 16 0 14 11 1 0 11
1532331439712058 -1 0 -3 -1 -7 -12 -2 -6
1532331439743972 -25 -9 -7 -11 -8 -5 6 -2
1532331439764916 13 -1 -7 -8 -3 -4 -5 -4
1532331439787866 43 1 -1 5 -2 -1 7 6
1532331439803812 57 -5 -2 20 9 2 -12 -4
1532331439826751 -34 -1 -8 -21 -7 -7 -3 -7
1532331439855674 -20 -3 0 -5 -3 2 -3 1
1532331439871631 -2 -7 7 9 -2 2 -2 -1
1532331439886592 -1 -1 4 24 22 -7 -9 -4
1532331439907535 16 2 -3 -23 -10 0 1 2
1532331439924490 -36 3 -9 -20 -9 -6 4 2
1532331439946431 -13 1 -2 -12 -27 -6 -18 -14
1532331439975354 -27 3 15 18 6 11 3 0
1532331439991311 -7 -8 0 -7 -10 -4 12 16
1532331440014250 33 -2 -2 11 10 -7 -5 2
1532331440029211 24 5 -14 -31 -3 -3 -2 -1
1532331440056137 -15 -12 5 9 0 4 0 -1
1532331440067108 -9 4 -8 2 6 -3 -1 1
1532331440089050 13 5 1 -2 -3 7 -5 -8
1532331440111988 -4 -4 1 -1 -9 4 -12 -14
1532331440133929 -19 -2 7 10 0 -5 0 -7
1532331440148896 -19 -2 -6 -13 -3 -3 5 -10
1532331440168836 26 4 4 -2 -7 5 6 23
1532331440186787 -9 -5 -6 -5 7 -8 -17 -11
1532331440209727 25 0 -6 3 5 -1 -3 1
1532331440228676 20 8 2 -16 -13 -7 3 -1
1532331440246627 -11 -1 -9 5 1 -1 -1 -2
1532331440269567 -9 -2 -2 -6 -10 1 3 -1
1532331440290510 -7 -5 1 9 -3 3 -2 0
1532331440306468 -11 -1 0 -7 3 0 9 -2
1532331440329407 -15 1 5 13 18 -2 -3 -8
1532331440351349 4 -3 -4 -10 0 0 -1 1
1532331440366308 0 0 -4 7 9 0 0 1
1532331440389246 1 -1 2 14 -11 -1 -2 1
1532331440411188 -4 0 -3 -5 4 0 4 0
1532331440427145 0 -1 1 -2 -1 2 8 2
1532331440449087 1 -3 -5 -7 -4 0 -1 -2
1532331440507929 0 -4 -1 0 1 0 4 0
1532331440529877 -2 1 -1 4 1 1 -1 0
1532331440574750 -3 -3 -6 -5 2 0 -3 -2
1532331440580734 0 1 7 4 1 -1 2 1
1532331440597688 -1 -7 -10 -5 7 -1 -1 0
1532331440634590 -1 0 -4 -1 -33 -9 0 -1
1532331440641571 0 -1 0 -1 12 3 -1 0
1532331440665507 -2 7 -3 0 -6 2 2 2
1532331440687449 -4 -7 -5 -5 -7 -1 -1 -4
1532331440701411 0 -5 -2 12 76 10 2 0
1532331440732328 3 -1 7 9 -5 -2 -2 -1
1532331440755267 1 -2 -4 4 22 8 5 1
1532331440770227 2 -1 2 4 12 2 4 2
1532331440785187 3 13 0 -1 -37 -1 -1 -3
1532331440807128 -5 -10 -3 -1 23 2 0 -2
1532331440859987 0 -1 -7 -1 -1 6 -3 -3
1532331440891902 -8 -2 -5 -24 -65 -5 1 -1
1532331440897886 1 9 -5 -20 -47 -8 -1 0
1532331440927806 9 36 6 22 85 7 -3 1
1532331440940771 -3 -8 -1 -2 -23 0 -1 -1
1532331440965704 -5 -10 -4 -5 27 -5 -3 -4
1532331440986652 4 13 -3 -12 -66 -14 -3 -2
1532331441010584 3 17 4 4 7 8 2 3
1532331441024547 -8 -21 -5 -11 -19 -5 -2 -1
1532331441062445 2 -8 0 4 7 0 2 -1
1532331441100344 -8 -24 -7 -17 -1 -2 0 1
1532331441139240 -1 10 6 -4 -41 -7 -1 6
1532331441154200 -7 -15 2 19 74 8 2 -5
1532331441168163 0 -6 -2 5 11 2 0 0
1532331441190104 -6 -11 -4 -15 -39 -4 2 -4
1532331441257923 -3 8 1 10 26 7 1 -1
1532331441272883 -8 -9 -2 -4 -36 -3 0 -4
1532331441293827 -3 -8 -5 0 0 0 0 -2
1532331441323746 0 -9 -8 -7 32 7 0 0
1532331441347696 -7 7 4 1 -20 -6 -3 4
1532331441378600 8 2 0 3 12 -2 -1 11
1532331441391565 -1 1 3 -4 -15 -10 -5 -4
1532331441400541 0 0 -2 -3 -39 -5 -1 -2
1532331441437443 1 -3 -5 -10 -34 -1 1 -2
1532331441453400 13 0 8 5 -6 1 4 1
1532331441475341 22 15 0 -1 40 1 -6 -20
1532331441497291 -2 -18 -2 8 19 4 0 -9
1532331441512242 -5 -1 -1 -10 -70 -6 1 7
1532331441535181 -14 -15 -5 1 -20 0 2 4
1532331441557122 -28 -18 -5 -2 4 5 2 -2
1532331441564103 8 -20 -4 -3 -25 -6 -3 -1
1532331441595020 -2 -1 -4 -5 8 -3 -7 -8
1532331441656864 17 22 4 1 73 10 0 3
1532331441671815 4 22 -3 -8 -1 6 -9 4
1532331441694754 -3 -11 2 8 29 5 1 2
1532331441698749 -4 -15 -6 -11 -35 -5 2 -4
1532331441737639 -15 -7 -7 -15 -38 2 -10 -17
1532331441760578 5 -10 -1 10 23 -1 -1 0
1532331441766562 -6 -9 -5 -7 -26 -11 -7 -6
1532331441803463 -15 -16 -4 -6 -2 -3 -1 -12
1532331441828396 -3 0 -7 -1 -10 -4 -3 3
1532331441850338 6 6 8 7 13 0 3 2
1532331441864301 4 5 1 -6 -26 -1 1 0
1532331441902198 3 2 -4 4 21 3 0 9
1532331441949074 0 -2 1 -2 -5 2 0 1
1532331441972012 0 -1 0 -4 -12 -2 -3 1
1532331442008914 0 11 -1 4 -13 -1 0 -2
1532331442022876 -13 -7 0 2 -2 1 -1 -3
1532331442037837 5 3 -1 -5 -29 0 1 2
1532331442066759 3 -2 -2 -2 16 1 1 2
1532331442089698 -2 3 0 6 8 1 2 2
1532331442120615 1 -2 0 4 -5 -5 -3 1
1532331442141565 4 0 2 -3 3 0 0 1
1532331442151532 -2 -3 0 0 -11 -3 -1 1
1532331442211373 9 2 0 -2 -5 -3 -1 -3
1532331442225335 -2 0 -1 0 -4 0 -1 -2
1532331442240295 -2 -3 -2 -3 11 -3 -2 0
1532331442255255 -1 -1 1 -2 -6 -4 0 1
1532331442279200 -3 -3 -2 0 -5 -2 0 -2
1532331442316092 -3 -1 -2 -2 -4 -2 -1 -1
1532331442330054 0 1 -1 -1 2 4 -1 1
1532331442352993 2 0 1 5 1 1 -1 1
1532331442391889 8 27 -1 -9 -9 -3 0 2
1532331442412834 1 4 1 0 -3 -10 1 2
1532331442434774 -4 -7 -3 -7 6 -3 -1 -1
1532331442451729 -2 -4 -2 -5 -12 -9 -5 -4
1532331442474668 -2 -7 0 11 -3 -8 -1 0
1532331442512567 -3 -5 -3 -2 1 1 -1 0
1532331442540492 -1 -1 -1 -1 -1 0 0 -1
1532331442592353 1 1 3 -3 -4 2 -1 0
1532331442706051 -2 -2 -3 -6 1 -8 -1 -1
1532331442763902 0 4 3 2 1 3 0 -1
1532331442794811 -1 -2 -3 -4 9 1 -3 -3
1532331442816752 0 -1 -2 -1 -4 0 1 0
1532331442831712 -1 -1 0 1 21 6 -1 -1
1532331442870609 -2 -1 -2 -3 -3 -3 3 0
1532331442907510 -3 -2 -5 -10 -12 2 -1 -2
1532331442937429 0 -2 1 3 22 -2 -1 -1
1532331442951393 -2 0 0 2 -8 -2 -1 -2
1532331442974331 1 0 3 13 -4 -2 -2 0
1532331443012230 -2 -3 -4 -8 -18 -5 -4 -2
1532331443042150 -1 0 0 -1 -3 0 0 -2
1532331443057110 0 2 -1 -1 11 1 -1 1
1532331443110966 0 0 1 0 5 -3 -1 -2
1532331443154848 0 -3 -1 -11 13 -1 0 -2
1532331443184768 -1 -1 0 1 5 1 -1 -2
1532331443251590 -2 -1 -1 3 12 -2 -3 -2
1532331443296477 0 -2 -1 1 15 -2 -2 -2
1532331443395205 -2 1 -2 0 -13 0 -3 -3
1532331443432107 1 0 -2 -3 -19 -3 0 -1
1532331443530842 -2 0 1 2 21 2 -1 -1
1532331443551786 0 -4 -3 -9 -3 -1 0 0
1532331443596666 -1 -1 -2 -4 -25 -4 -3 -2
1532331443611626 -2 -2 -2 -6 -13 -1 -2 -1
1532331443672464 0 1 -2 -1 6 0 -4 -1
1532331443716346 -1 -3 -2 -4 5 2 -1 0
1532331443755242 -2 -2 -5 -7 -14 -1 -3 0
1532331443777184 0 0 -1 1 -23 -4 -2 -1
1532331443837023 -3 -5 -6 -2 1 -1 -2 -2
1532331443851984 0 4 8 3 8 0 1 0
1532331443896864 0 -2 3 -11 -30 -1 1 5
1532331443942741 -2 -1 0 -4 -17 -3 -3 -2
1532331443964681 1 3 -5 0 -7 -2 -2 -7
1532331444018537 0 2 0 2 -1 -8 -2 4
1532331444054442 0 2 1 4 2 2 -2 2
1532331444092341 0 0 3 8 4 -10 -1 0
1532331444137220 -2 0 1 -5 -15 3 -4 7
1532331444152180 2 -4 -6 -4 20 -28 -5 19
1532331444205039 -1 -1 -2 -11 -47 -36 -4 3
1532331444233977 -1 -2 1 -5 -1 -5 2 -5
1532331444271860 -3 -4 -1 7 47 18 2 -3
1532331444317738 -1 -1 -1 -2 -9 -6 2 4
1532331444339679 -2 0 -4 -6 -34 -3 1 -7
1532331444377577 -6 -4 -7 -7 5 0 -4 -33
1532331444391541 -4 -1 -2 5 27 6 4 6
1532331444438415 1 -3 1 6 -26 3 0 7
1532331444451380 1 -1 3 26 86 7 1 9
1532331444505236 -4 -1 1 11 3 7 -2 0
1532331444514228 8 0 0 -1 -26 0 -3 -3
1532331444534159 -4 -4 -7 -23 -61 -6 -1 6
1532331444557097 3 -3 -5 1 43 6 -3 10
1532331444579038 -7 -6 -1 8 114 7 6 -5
1532331444593998 -6 -1 -2 -12 -45 -11 0 11
1532331444617934 3 3 5 -4 -12 -8 1 12
1532331444638878 -2 4 4 -2 -21 -3 -2 -27
1532331444653838 -4 -1 -4 12 17 -7 -5 -18
1532331444690740 0 -2 -8 -13 -7 1 -2 8
1532331444714676 1 1 9 31 65 9 5 10
1532331444737615 -6 -5 -3 -3 -18 -1 -3 -2
1532331444759556 -2 -2 -2 -9 -70 7 0 4
1532331444773519 -5 -3 -7 -5 -64 -10 -9 -21
1532331444797455 2 -2 -2 -13 -8 -7 -3 18
1532331444820393 -1 0 1 11 48 2 1 1
1532331444833358 -2 1 0 3 14 -33 -9 -7
1532331444850327 -4 -4 -5 -4 -31 6 -7 -5
1532331444880243 -2 -2 -2 12 39 8 0 3
1532331444902173 0 -1 0 1 20 14 6 -5
1532331444917134 -1 4 4 -4 -6 6 0 0
1532331444940073 2 0 2 3 -17 1 -2 -2
1532331444963012 -3 -1 -1 -3 11 2 -4 -16
1532331444984952 -1 1 0 -11 -52 -15 -1 3
1532331445001914 -2 -2 -2 8 -2 2 1 -4
1532331445023861 -6 0 0 13 59 15 1 -11
1532331445039806 -1 1 -2 6 17 0 -7 -6
1532331445061747 2 0 4 2 23 0 3 6
1532331445088675 -1 -1 -1 -3 -24 -13 -3 5
1532331445099645 1 -2 -1 -1 -29 -3 1 0
1532331445157491 -1 2 1 -1 -2 -30 -1 1
1532331445163475 -2 -2 -1 6 35 15 5 -7
1532331445193395 5 0 -1 3 1 7 -6 11
1532331445225310 -5 -3 -2 -3 -1 -1 -5 -7
1532331445247252 -6 -2 0 -5 -3 4 4 -10
1532331445262211 -3 -2 -4 -3 -20 7 -4 -5
1532331445277171 -1 -2 -1 -6 -12 -6 -1 -11
1532331445300109 -1 -1 -6 -9 -40 -10 0 -7
1532331445314072 -9 0 -1 0 12 3 -3 -5
1532331445338009 0 -2 1 -1 -3 -4 -2 3
1532331445365934 -4 -8 -3 -7 -52 -16 -1 -2
1532331445397848 -1 -8 -2 -2 8 -5 -2 12
1532331445442728 -2 2 -1 -4 -26 -12 -14 -10
1532331445487609 -2 -5 -2 -2 14 -13 -4 10
1532331445510547 0 0 1 -4 -21 -12 -2 -2
1532331445525506 1 6 2 5 8 -13 0 -7
1532331445540467 -4 0 -1 -11 -51 -4 -6 -8
1532331445553432 -1 -2 3 10 -2 -2 1 -10
1532331445577368 -3 -4 -4 -6 -11 7 1 -2
1532331445608285 -2 -7 -5 -2 17 -7 -4 -2
1532331445637208 -3 -6 -1 0 -9 3 1 0
1532331445660147 2 -1 -2 0 19 2 2 3
1532331445683085 -2 -2 -4 -5 -6 1 2 -2
1532331445700040 -1 2 0 -1 3 -7 0 0
1532331445749906 1 0 -3 1 1 0 -8 -13
1532331445787805 -11 0 -2 -1 3 2 1 1
1532331445847645 2 2 2 3 7 11 5 4
1532331445885544 -9 -3 -1 -2 -1 2 2 0
1532331445894520 -2 2 3 0 -1 -12 -3 1
1532331445922445 -3 -1 -2 -7 -4 3 0 -1
1532331445936408 0 0 2 6 6 9 0 -2
1532331445975303 -2 -2 -3 -8 -14 -4 0 -2
1532331445996248 -1 -1 2 1 21 -7 -2 -2
1532331446020184 -1 -1 -4 -4 10 6 -3 -1
1532331446043123 -1 -2 -2 -8 -18 5 2 0
1532331446057084 4 2 4 -3 35 4 2 2
1532331446094984 0 1 -2 1 27 17 2 1
1532331446102963 -1 0 -2 3 6 -6 -1 0
1532331446115927 -3 -4 -5 -6 -16 4 0 -3
1532331446139863 -1 -1 0 3 24 1 1 -1
1532331446162816 0 -2 1 1 -5 0 -3 -2
1532331446184743 -2 -1 2 0 1 1 0 -1
1532331446199703 0 -1 -3 -2 -19 1 0 1
1532331446236604 -2 0 2 -6 3 -6 0 -3
1532331446267521 -1 0 -1 4 14 -4 0 0
1532331446290460 0 -1 0 1 8 6 -3 0
1532331446305421 0 -1 1 -1 -27 -5 -1 0
1532331446320381 -1 -1 -2 2 17 2 -1 -2
1532331446342322 -2 -2 -4 0 -20 -2 -3 -2
1532331446356284 -1 -2 -3 -1 13 -3 -2 -1
1532331446372242 -2 -3 -2 -1 3 1 -1 0
1532331446402162 -5 -1 1 -2 14 -5 -2 -10
1532331446425101 0 -1 0 -4 -13 -5 1 -6
1532331446440061 1 0 -1 2 13 5 -5 5

1532331446462999 0 -1 -2 -7 -16 0 1 5
1532331446492930 1 -1 -1 0 -4 -1 1 -5
1532331446529820 1 1 2 7 6 5 4 5
1532331446535804 -4 -2 0 1 12 -6 2 8
1532331446559740 0 -2 0 0 1 1 -3 -7
1532331446582679 -1 0 -2 1 8 0 -5 -3
1532331446612600 1 0 -1 0 6 0 -1 1
1532331446626562 -2 -2 0 -1 13 -4 -1 -6
1532331446651495 -1 -1 -1 0 6 2 -2 -6
1532331446666455 0 -1 -1 -1 -2 6 0 5
1532331446686401 1 -2 -4 -4 -20 -5 1 1
1532331446704354 0 -2 1 -1 -14 -2 -2 1
1532331446741254 7 1 0 -1 -2 2 3 17
1532331446754220 -6 -3 -2 -3 6 13 4 -7
1532331446792118 -4 -3 -1 0 -11 -5 0 -10
1532331446808076 -2 -2 -2 0 1 -2 -2 -8
1532331446824033 -2 1 0 0 -4 -10 -2 -2
1532331446846973 -2 0 -1 0 1 -2 -1 0
1532331446873900 -2 1 0 1 0 -1 0 -4
1532331446898833 1 -1 -1 -3 -1 2 -1 0
1532331446910801 0 -1 -1 -1 1 0 1 -4
1532331446925761 -2 0 0 1 0 -1 -2 -3
1532331446943713 -1 -1 -2 0 -3 -1 -1 -10
1532331446966653 0 -1 1 -1 -2 2 -3 2
1532331446986598 -2 -1 -1 0 -1 1 -1 -14
1532331447004551 -1 0 -1 -2 -2 -4 2 2
1532331447031478 0 -3 -2 -3 -1 -3 -1 3
1532331447049430 0 -1 -2 -1 -1 0 -1 3
1532331447064390 -2 -1 -1 0 -1 -5 0 -2
1532331447086332 -2 -2 1 -1 -2 -11 -7 -1
1532331447106278 0 -1 0 -1 2 0 -3 0
1532331447124230 0 2 1 2 -2 1 1 0
1532331447146171 -2 0 1 -1 -2 1 -3 -4
1532331447174097 -1 0 -1 0 1 2 -5 -2
1532331447184070 -1 -2 -1 -2 -2 1 -1 -5
1532331447227953 0 -2 2 -1 1 1 -3 -7
1532331447242913 -3 -1 1 1 2 -1 -7 -6
1532331447264854 -1 0 0 -1 -1 5 2 -3
1532331447278817 -3 0 -3 -2 -2 -6 1 3
1532331447293777 2 -2 -2 -2 -2 0 0 12
1532331447324694 1 -1 0 -2 -3 -2 -3 2
1532331447347315 0 -2 -1 0 -2 -3 2 -1
1532331447363272 0 0 -1 1 -1 -2 -1 0
1532331447385278 0 -2 0 0 -2 -6 -2 0
1532331447398244 0 0 -3 -2 0 -2 -1 4
1532331447423176 -2 -1 0 0 -2 0 -1 -4
1532331447452100 -2 -1 -1 1 -2 2 -3 -6
1532331447459081 -2 -1 0 -2 -1 -3 -1 -3
1532331447485012 0 0 0 3 3 4 -3 0
1532331447504958 -2 -4 -2 0 -1 -2 -1 0
1532331447527897 -1 -2 -2 -1 -2 -1 1 0
1532331447543857 1 -2 -1 -3 -2 -3 -1 -1
1532331447573775 -1 -3 -1 0 0 0 1 2
1532331447587737 -1 -1 0 -2 -3 -1 3 2
1532331447608681 -1 -1 -2 0 0 1 -1 -3
1532331447626633 -1 0 1 0 -1 -2 -2 -3
1532331447649572 0 -1 0 -1 -1 0 -1 -1
1532331447668520 -2 0 0 -3 -3 -2 1 -1
1532331447686472 1 -1 -3 -1 0 0 0 2
1532331447709428 -1 -2 0 -3 -2 -1 -1 -3
1532331447728360 -3 -2 0 0 1 -2 -4 -10
1532331447746313 0 0 -2 -2 -1 0 -1 4
1532331447769252 -2 -1 -2 0 0 0 -4 -2
1532331447788201 0 -1 -1 0 0 -1 0 1
1532331447807150 -2 0 0 1 1 0 -3 0
1532331447842056 0 -2 -2 -3 -1 1 1 8
1532331447864995 -3 -1 -1 -1 -1 -3 -3 -12
1532331447887936 -2 0 -2 0 -2 0 -1 1
1532331447901896 0 -2 0 0 -2 -1 0 3
1532331447915859 -1 -2 -2 -1 -2 -3 3 1
1532331447947773 1 0 1 1 -1 1 -1 0
1532331447969714 -1 -2 -1 -1 -1 0 0 3
1532331448007614 -1 1 -1 -1 0 0 -3 -2
1532331448037558 -3 -2 0 -3 -2 0 2 3
1532331448067477 -1 0 -3 0 0 1 -1 1
1532331448105376 -1 -1 -1 -1 -1 -2 -1 1
1532331448128315 0 -2 0 0 -1 -1 -4 -1
1532331448141280 -2 -2 -2 -1 0 -2 0 -4
1532331448175190 -3 -2 -2 0 -1 -3 -2 -1
1532331448179179 -1 -1 -2 -1 -1 -3 1 5
1532331448218075 -2 0 1 0 -1 3 -5 -1
1532331448233034 -3 -1 -2 -2 -2 -2 1 0
1532331448247995 -1 -2 1 0 -1 -1 1 1
1532331448284896 0 -1 -3 -2 -4 -4 5 1
1532331448307834 -3 -2 -1 1 -2 -3 0 -13
1532331448353712 0 1 1 -1 0 1 -1 -4
1532331448367674 -1 -2 -1 -1 -1 1 -1 -1
1532331448404576 -1 0 -1 -1 1 0 -3 0
1532331448435492 -2 0 -1 -1 0 2 -5 -2
1532331448457434 -1 0 0 1 1 -1 -1 1
1532331448495333 -1 -2 -2 -1 -2 -2 0 6
1532331448525253 1 -1 -2 -2 -1 -2 -1 10
1532331448548192 0 -3 0 0 0 0 -1 -11
1532331448561157 -1 -3 0 -1 -2 -4 0 0
1532331448595066 -2 -1 -1 -2 -1 -1 -3 -11
1532331448599056 -1 -3 -2 -1 -1 -1 2 1
1532331448615013 0 0 -1 -1 -2 -1 0 2
1532331448631968 -2 0 -1 -1 0 -2 0 2
1532331448646928 0 -1 0 0 1 -2 0 -1
1532331448668869 0 0 -1 -2 -2 0 0 -11
1532331448698895 -2 -2 0 -1 0 -1 -1 1
1532331448706876 -1 1 -2 -2 -2 -1 -2 2
1532331448734800 0 -2 -1 -1 -1 0 1 0
1532331448764721 -2 -1 -2 -3 -1 -3 1 8
1532331448786662 1 0 -2 -2 -3 -1 2 4
1532331448824561 0 0 1 1 -3 -1 -1 -3
1532331448870437 -1 -1 -1 -1 0 0 -3 0
1532331448884400 0 -3 -1 -1 2 -1 -4 1
1532331448891382 -2 -2 0 0 0 -1 -5 -5
1532331448930278 -1 -2 -1 -3 -1 0 -1 2
1532331448959200 0 -1 -1 1 -1 -1 0 3
1532331448970171 -2 0 -2 -1 -2 -6 1 1
1532331448990118 -2 0 -1 -2 -1 -2 1 -1
1532331449011062 1 -1 -2 1 -1 0 0 7
1532331449049958 -2 1 -3 -1 -4 -1 -1 -1
1532331449078880 0 -1 -3 -1 0 -1 2 6
1532331449117246 1 -1 0 -1 0 -1 -1 -1
1532331449133203 0 -1 -3 -1 1 3 -7 -3
1532331449163152 0 -1 -2 -2 -2 -3 1 1
1532331449170106 -1 0 -1 -3 -1 -1 2 -1
1532331449208003 -2 -3 -1 1 0 0 -6 -15
1532331449237923 -1 0 0 0 -3 -2 3 1
1532331449243907 -2 0 0 -2 -3 -2 -1 1
1532331449291779 -1 0 -1 0 0 1 0 2
1532331449320708 -1 -1 -2 -3 -2 -3 -2 -13
1532331449350622 -2 -4 -1 -2 0 -2 -1 -4
1532331449363589 -2 -2 0 -2 -1 -3 2 1
1532331449396515 0 1 -1 -1 -1 -1 -3 -5
1532331449409464 -3 -2 -2 0 -1 -2 -4 -6
1532331449449358 0 -2 0 0 1 1 -4 1
1532331449469304 0 -1 -2 -1 0 -1 0 -2
1532331449506204 -1 -1 -3 -1 -2 1 0 1
1532331449529143 0 -1 -1 -1 -1 -3 2 2
1532331449552082 0 -1 0 0 2 4 -1 0
1532331449588984 -1 -1 -2 -3 -18 -3 -1 2
1532331449619905 -1 1 0 5 7 -2 -1 1
1532331449649821 -1 -2 -1 2 0 -4 -3 0
1532331449717639 0 3 4 -11 -47 -2 2 2
1532331449746561 -2 -1 0 9 36 -3 2 0
1532331449793437 -2 -1 -7 2 7 -1 -2 1
1532331449808397 -2 -4 -5 -7 -7 -3 1 7
1532331449829348 -3 -3 -2 0 2 5 19 9
1532331449912119 -45 -11 -6 -3 2 16 -38 -19
1532331449949020 36 5 -5 -6 -2 -5 37 25
1532331450017837 20 -3 -1 1 2 -1 6 0
1532331450072690 -25 -5 0 -3 -1 4 -12 -28
1532331450091639 -9 -1 2 0 11 7 33 24
1532331450121559 -24 4 5 1 -18 0 8 5
1532331450151479 -10 -2 -5 -18 -6 -1 -2 -9
1532331450181408 20 -3 3 15 11 -8 -9 -2
1532331450226279 -29 -6 -8 -1 -3 3 5 2
1532331450257197 24 4 -3 -10 -6 -16 -17 0
1532331450272156 -16 -3 -3 -8 -12 10 11 1
1532331450294098 -24 -9 -10 -20 -13 3 -12 -16
1532331450331996 -11 -1 0 -5 6 9 5 -2
1532331450361916 16 2 1 9 -7 -16 5 0
1532331450405799 12 -5 -10 -10 7 9 5 0
1532331450429735 -12 0 0 -11 -28 -13 -11 -6
1532331450474615 -1 -10 -7 1 -9 -12 -10 -16
1532331450511516 -8 -5 -6 -21 4 1 2 0
1532331450542433 7 9 8 4 -12 -23 -1 6
1532331450609254 1 -1 -10 -30 -29 3 -4 0
1532331450655131 4 4 4 9 16 -7 3 -2
1532331450669094 -5 -3 -4 0 -4 4 -10 -5
1532331450714972 -8 -1 -6 -3 -6 4 2 2
1532331450728934 8 6 7 -2 -2 0 3 4
1532331450798748 -1 1 -1 -3 3 8 -1 0
1532331450804731 -1 -3 -4 -2 -3 -12 0 -2
1532331450836646 2 -1 6 15 3 1 -1 -4
1532331450871553 -1 -5 -10 -14 -22 -5 -4 -1
1532331450902469 -2 -2 -6 -11 2 -2 -1 0
1532331450931393 2 22 5 22 50 4 -1 -4
1532331450956326 -9 -22 -16 -21 3 -5 -6 -4
1532331451007190 -6 -7 -5 -7 -19 -6 -1 -3
1532331451016166 3 2 6 9 41 4 0 -1
1532331451029131 -1 -5 -3 0 -42 -8 -2 -3
1532331451052080 -2 6 -4 0 54 4 -2 -1
1532331451075009 -2 -3 2 3 5 -1 -1 0
1532331451088971 -5 -11 -3 -24 -60 -7 -3 -2
1532331451119889 -3 -5 -4 -4 -9 1 0 -2
1532331451134849 0 -5 -5 -6 -62 -13 -3 -3
1532331451157787 4 7 -5 -9 -36 -4 -2 -1
1532331451171750 5 14 2 12 78 8 2 2
1532331451195686 -4 -7 -7 2 23 6 0 -1
1532331451224608 -9 -10 1 -6 -23 -10 -2 -3
1532331451231590 3 4 1 2 7 -7 -5 0
1532331451286443 -1 -3 1 5 -4 1 0 0
1532331451301409 -1 -6 -6 -11 -28 -5 -1 -3
1532331451316365 7 -1 6 20 14 3 2 3
1532331451338305 -3 -13 -4 3 4 -2 0 0
1532331451352279 0 -5 -8 -31 -102 -11 -2 0
1532331451375206 -6 -11 -1 -3 -17 -1 -2 -2
1532331451398146 -2 3 -5 -28 -75 -10 -5 -4
1532331451429061 4 21 2 6 36 0 0 0
1532331451457984 4 7 4 13 2 6 4 0
1532331451471947 -1 -5 7 17 9 0 3 0
1532331451495883 -8 -6 -5 -23 -28 -5 -3 -2
1532331451524805 -3 -3 -4 4 15 -3 -2 -1
1532331451555723 -5 -12 -7 -22 -20 -2 -1 -3
1532331451577664 8 6 8 5 21 -2 -2 -1
1532331451594619 -3 1 -3 2 -10 5 2 1
1532331451628528 0 -6 3 4 3 -3 1 2
1532331451646500 0 13 1 11 15 -5 -1 -1
1532331451666427 -1 -10 -2 -1 -35 -5 -2 -3
1532331451697348 -9 -10 10 11 42 5 2 -1
1532331451728261 -1 1 -4 -7 -5 -4 -3 -5
1532331451735242 8 17 2 1 -40 1 -1 0
1532331451765162 -1 -4 -3 -8 -16 -8 -2 -2
1532331451780126 0 3 -2 -3 7 4 0 1
1532331451802064 -7 -12 -4 -4 -21 3 -3 -6
1532331451862901 -4 -5 -1 -1 15 4 1 0
1532331451886838 1 16 0 -9 -23 -1 -2 -1
1532331451922741 -5 -14 -7 -12 -57 -5 -2 3
1532331451937701 -6 -15 0 5 -24 -4 1 -5
1532331451951663 2 4 1 7 40 6 0 3
1532331451975599 -1 -4 2 0 -16 -4 1 2
1532331451997558 -6 1 -4 -2 8 -3 0 -4
1532331452027461 -6 0 -1 -6 -41 -1 1 -7
1532331452044416 -5 -1 0 -11 24 0 -3 -1
1532331452059376 -5 4 -1 11 41 0 -3 -9
1532331452081317 10 -4 -2 7 14 -1 -1 3
1532331452096289 2 3 3 10 53 3 -1 4
1532331452119216 0 -18 -5 -13 -67 -7 1 2
1532331452140171 -3 -1 -1 6 12 2 0 2
1532331452157114 17 3 2 -17 -46 -2 -1 2
1532331452222938 -1 16 -1 3 23 3 3 4
1532331452250863 -3 -9 -5 -7 2 -2 -6 -5
1532331452284774 0 -14 -6 -1 -10 0 -2 -2
1532331452304719 -3 4 -3 -18 -9 -3 -3 -4
1532331452319679 -3 2 1 0 -20 -1 -1 -3
1532331452342618 1 6 2 15 26 -5 -1 2
1532331452357578 -8 -14 -1 5 33 3 2 0
1532331452402458 4 1 5 8 2 4 1 1
1532331452425396 3 1 -2 -10 -16 -5 -3 -4
1532331452470276 1 -1 1 -1 -16 0 -1 0
1532331452477257 -14 -21 -2 -1 12 -2 0 -1
1532331452507178 4 5 -1 -2 -3 -4 -1 -4
1532331452545076 -6 -4 -3 -8 -8 2 0 -2
1532331452567018 -5 -2 -4 -1 -3 -4 -3 -2
1532331452580999 -5 -4 5 -1 -20 -5 -2 -1
1532331452619876 7 19 2 1 -10 -3 -3 -4
1532331452634836 -1 -8 -5 -13 -44 -5 -3 0
1532331452657775 0 2 4 6 19 -1 -1 -1
1532331452687695 -1 2 -2 1 4 -1 -3 -1
1532331452701657 -1 -1 -2 -1 2 1 -1 -2
1532331452739556 2 -1 1 0 4 1 0 0
1532331452754516 1 -2 6 6 -4 -4 0 1
1532331452799396 4 -1 -1 -2 2 7 1 0
1532331452828319 -1 1 -1 4 6 2 1 -1
1532331452860233 -3 -1 -1 -3 -4 -4 0 0
1532331452900126 0 -2 -4 -1 -4 -2 -3 -2
1532331452911096 0 1 -1 -1 -8 -3 -2 -1
1532331452922067 -1 0 1 8 1 -2 0 0
1532331452943014 0 0 -3 -6 0 -3 0 -1
1532331452966948 1 -1 -1 1 7 1 0 -2
1532331452981908 1 1 1 -4 -6 -3 0 0
1532331453002858 -2 -4 -1 0 8 -1 -1 0
1532331453018812 -2 -3 -2 -1 10 2 -1 -4
1532331453041758 -2 -1 -3 0 -10 1 -1 1
1532331453070683 -3 -1 -2 3 -6 -4 -2 1
1532331453079646 1 2 5 6 -1 0 0 1
1532331453101587 -2 -3 -3 -4 -5 -2 -3 -1
1532331453124526 0 1 -2 -4 -6 -1 -2 -2
1532331453139496 -1 -1 -2 -2 -27 -3 1 0
1532331453162425 0 -1 -2 -3 18 4 0 -2
1532331453190356 0 -5 0 0 -3 -2 -3 -2
1532331453199326 -1 0 -1 -2 -18 -3 0 -2
1532331453221267 0 -1 1 2 4 1 -1 -1
1532331453252185 -2 -1 0 -6 2 3 -1 -1
1532331453281108 0 -1 0 0 14 -1 1 0
1532331453294073 -1 -1 -1 -5 -7 1 -2 -1
1532331453324990 -1 -1 -1 -5 -4 0 -2 4
1532331453376851 -2 0 -2 -5 -4 0 -1 -2
1532331453400787 -2 -1 -1 -3 1 -2 -2 -2
1532331453438687 -1 1 3 4 -6 -4 -1 -2
1532331453452648 0 -1 1 0 6 -2 -1 -1
1532331453482569 0 -2 -1 0 -1 -1 -2 -1
1532331453511491 -3 -2 0 4 6 0 0 -1
1532331453542408 -1 0 -2 -2 -6 -3 -1 0
1532331453563352 -1 -2 -3 -1 -1 -1 -2 -2
1532331453581305 0 -1 -1 1 2 1 0 -1
1532331453619203 -1 0 4 4 -5 -2 -1 0
1532331453640147 -1 -1 0 -3 -3 -1 -1 -1
1532331453677048 -1 1 0 1 0 -2 -3 0
1532331453707966 0 -4 -2 -1 -2 0 1 0
1532331453746875 -1 -1 -1 -2 1 1 -1 -1
1532331453760824 -2 -4 -2 3 0 -3 0 0
1532331453811688 -1 0 0 -2 -2 1 -1 -2
1532331453849586 -3 -1 -2 -4 -7 -3 -2 -1
1532331453886489 0 -1 -1 4 0 -3 1 -1
1532331453902445 -2 -1 -2 1 1 1 -1 0
1532331453916408 -1 -1 -2 1 -5 -1 -3 -1
1532331453940344 1 0 -2 -4 -4 -2 -2 -2
1532331453970277 -1 0 0 0 2 -1 -1 -1
1532331453976247 -2 -1 0 0 -5 -2 -2 1
1532331454000184 -1 0 1 -2 1 -1 1 0
1532331454023122 -1 0 -1 0 5 0 -1 -1
1532331454045064 -1 -3 -1 -5 -5 -1 -1 0
1532331454060023 -2 -4 0 -3 -2 -1 -1 0
1532331454082962 -1 1 -3 -1 -2 0 0 -1
1532331454112882 -1 -2 -3 -3 -7 -2 -2 1
1532331454128840 -1 -2 2 1 -11 -1 -1 0
1532331454180701 -1 0 0 2 11 1 0 -2
1532331454209623 -2 -1 -2 -4 3 -2 -3 0
1532331454216604 -3 -2 -1 -1 -4 -1 -1 0
1532331454247522 -2 -2 1 -1 -6 -1 0 -1
1532331454262482 -1 -3 0 0 0 -2 -1 0
1532331454300381 0 -1 -1 1 -1 -2 -1 -3
1532331454337282 -1 -1 -2 -3 -2 -2 -1 -1
1532331454390140 -2 0 -1 0 0 -2 1 0
1532331454405100 -1 0 -1 -1 -1 0 -1 -1
1532331454419064 1 0 0 -5 -4 0 -2 0
1532331454442999 -1 -1 0 0 1 1 -1 -1
1532331454472920 1 1 1 -1 -2 -1 0 -3
1532331454524780 -1 2 5 -5 3 -2 0 0
1532331454547720 -2 -1 -4 -2 -2 -3 -2 0
1532331454562679 -1 -6 -1 -2 1 -1 -2 -1
1532331454584620 -2 -2 -4 -1 -13 -2 0 -3
1532331454622519 -1 -3 -6 -2 2 0 -2 -2
1532331454645457 -2 -1 -4 -3 -4 0 -1 -1
1532331454704300 -3 -1 -4 -4 1 -1 0 2
1532331454719260 3 -4 13 11 4 0 0 0
1532331454750178 -2 -3 -2 0 20 0 1 -3
1532331454765138 -2 -5 -6 -2 32 3 -1 -1
1532331454779100 0 -2 1 4 34 -3 0 1
1532331454803039 -2 -3 4 7 -4 6 0 16
1532331454832956 -4 -5 -3 -18 -75 -11 -5 -5
1532331454838940 2 6 5 -3 -47 -1 1 -3
1532331454869857 1 2 -1 -7 -19 -12 -8 -3
1532331454892796 -1 -1 0 -3 -61 -10 0 4
1532331454923713 -4 -2 0 -3 24 -10 -4 -19
1532331454944657 0 -1 -2 6 17 3 0 1
1532331454967606 1 -3 -2 -4 -9 8 2 0
1532331454982567 0 -2 -1 1 61 12 1 0
1532331455005495 2 4 4 19 46 10 1 5
1532331455018459 -1 -2 -3 -12 -24 -18 -7 -2
1532331455042396 -2 -2 2 1 -5 15 -2 8
1532331455065336 6 3 -5 -14 -6 1 5 18
1532331455078300 6 -2 0 6 3 0 3 16
1532331455124177 -5 -1 -4 -4 9 12 3 -9
1532331455133152 2 4 -1 11 22 5 2 5
1532331455170055 3 0 1 0 -14 -11 -3 0
1532331455185025 -2 -4 -7 -20 -99 -8 -2 -13
1532331455214934 -7 0 3 11 20 6 3 -9
1532331455252833 -1 7 -6 -7 -23 -8 -2 -13
1532331455275773 -3 -4 -3 -13 -16 -6 -5 -1
1532331455296715 -13 -2 -2 3 10 2 -7 -31
1532331455327633 -4 -4 -2 6 60 8 -4 -4
1532331455342593 5 -2 1 14 -4 -8 -1 21
1532331455387473 -17 -8 -1 -33 -128 -22 -9 -30
1532331455448311 3 -4 -3 1 -14 -5 2 6
1532331455478238 0 -4 2 5 13 -5 -5 -31
1532331455507152 0 0 3 18 -3 10 2 -5
1532331455521115 1 1 -2 -8 -9 7 6 -9
1532331455530092 -4 -1 -5 -11 2 3 1 -3
1532331455567990 9 -1 3 1 34 5 0 37
1532331455580955 -2 -12 0 2 55 0 0 7
1532331455619851 -11 -1 1 0 -31 -6 -3 -28
1532331455634811 1 3 -7 -11 -30 -9 -8 -10
1532331455649770 -1 2 0 13 47 1 -8 -5
1532331455687669 0 2 -2 -3 -19 -15 0 3
1532331455710608 -2 0 0 -3 3 -19 -3 -1
1532331455747523 4 0 -5 -5 -22 -11 -7 5
1532331455761472 0 3 2 6 0 -1 5 0
1532331455792390 -2 -1 -1 3 32 7 0 -3
1532331455807349 -4 -5 -6 -11 -6 3 -8 -21
1532331455830295 6 2 0 -5 3 2 -3 12
1532331455845247 -3 0 -2 -3 -9 -4 -1 -7
1532331455867189 -1 1 1 -9 -6 -1 5 1
1532331455882150 -1 0 -1 -4 -30 -9 1 -6
1532331455890128 2 11 0 -12 -42 -2 -1 -5
1532331455928027 -5 1 -2 2 -20 -8 -1 -16
1532331455965925 -3 -2 0 6 36 4 -3 -3
1532331455972907 3 0 1 -2 -3 -3 -1 9
1532331456000832 1 -6 1 6 -37 -3 -2 4
1532331456032746 -1 -3 -1 -5 -13 2 0 2
1532331456047723 -2 -3 -3 -3 12 -4 -5 -2
1532331456076629 -13 -5 -3 7 25 0 -6 -18
1532331456091589 6 0 7 -1 4 7 -1 9
1532331456144447 6 35 0 -2 -7 -2 -3 -13
1532331456167387 3 -11 -4 -11 -31 -4 -1 -2
1532331456190325 -4 -7 -2 -7 -29 -5 -14 -10
1532331456212266 -10 -43 -3 -5 -12 0 -4 3
1532331456249168 -1 -2 -4 -12 -55 -9 4 1
1532331456287067 -4 -2 3 1 19 5 6 6
1532331456324965 -4 -20 -2 5 35 2 3 5
1532331456346909 3 17 4 7 38 4 -1 0
1532331456377824 2 -4 -4 -3 -1 1 2 6
1532331456399765 6 -11 -6 -7 -18 -2 0 14
1532331456437663 -5 -9 -4 -8 -8 -10 -8 -10
1532331456466586 2 -3 -2 2 -1 0 1 -7
1532331456505482 -2 -1 -3 -11 -36 -5 -4 -9
1532331456557343 12 -4 -3 3 7 1 6 4
1532331456587263 -5 -1 3 1 1 1 -1 -1
1532331456625161 -1 2 2 -1 -3 0 1 1
1532331456647131 -4 -1 -2 1 16 -4 0 -1
1532331456677023 -3 -2 -2 -4 -3 17 0 3
1532331456715919 -5 -3 0 7 6 4 1 -3
1532331456745838 13 8 -2 5 2 7 5 2
1532331456751823 3 -1 0 3 6 34 6 1
1532331456788724 -1 -3 -3 1 -1 -6 -3 0
1532331456811663 3 -2 -1 -3 -1 8 0 1
1532331456849562 2 0 -2 0 -4 -11 -1 1
1532331456910399 1 0 1 -1 7 1 1 0
1532331456923364 0 1 -1 5 24 8 -1 -3
1532331456992180 -2 -4 -4 -7 -17 -3 -4 -1
1532331457038057 -1 -2 1 1 -2 4 -1 -2
1532331457074959 1 1 -1 -4 -14 -18 -5 -3
1532331457088921 0 1 4 1 -28 -6 0 3
1532331457126820 -2 -1 -1 1 18 -3 -1 -2
1532331457157737 2 0 1 5 -15 -2 -2 -1
1532331457179679 -1 -1 0 -1 21 2 0 0
1532331457217577 0 2 2 -4 -16 -3 1 0
1532331457232537 1 2 1 9 27 1 -1 -1
1532331457269439 -2 -2 0 2 4 8 2 -1
1532331457292377 -1 -4 -6 -5 4 -7 -4 -2
1532331457315316 -1 -1 1 11 14 0 -2 -1
1532331457329279 -3 -2 -2 -2 0 1 1 -2
1532331457367177 -1 -2 0 -1 7 1 -1 -3
1532331457389118 -2 -1 2 -4 -24 -5 0 -1
1532331457414052 -1 1 -1 0 24 3 0 0
1532331457427017 1 2 -1 0 -31 -11 -1 -1
1532331457448959 1 -1 0 -5 -7 1 1 0

1532331457472894 -2 -1 -1 2 12 2 0 0
1532331457486857 0 -1 -1 -2 -4 -3 -2 -1
1532331457509795 -2 -1 -2 -2 -13 4 0 0
1532331457532734 -3 -1 1 1 18 1 -2 -4
1532331457570633 0 -3 -2 -5 -12 -8 -1 5
1532331457592573 -2 -1 -1 3 20 2 -2 1
1532331457629475 -1 0 0 -5 -13 -3 1 -1
1532331457652413 -4 -3 -1 0 -8 -2 -3 -5
1532331457667374 -2 -1 -4 -3 -3 -3 -1 -1
1532331457697294 1 0 -2 0 -5 2 0 8
1532331457720233 3 1 0 -2 0 -1 -1 3
1532331457726222 -2 -1 -1 -1 -5 -1 -3 0
1532331457749155 -2 0 -2 -1 6 -3 3 2
1532331457772094 -5 0 -2 0 -3 1 -2 -5
1532331457794034 0 -1 -2 1 6 -2 -3 -1
1532331457808995 0 -1 0 -1 -15 -2 -4 0
1532331457839912 -1 -2 -1 0 -1 -1 -1 0
1532331457854872 1 -4 -3 -3 -6 -4 -1 17
1532331457877811 -2 0 -1 1 -2 -3 -2 -12
1532331457892771 -2 -3 -1 0 -3 0 -1 -8
1532331457905737 -1 0 -2 -4 -24 -3 0 -1
1532331457937651 -4 -2 0 1 7 0 -1 -8
1532331457960590 -3 0 0 1 2 0 -3 -10
1532331457966574 -2 0 1 0 2 -3 -4 -9
1532331457997491 -1 0 -1 -1 6 2 0 3
1532331458013452 4 -2 -2 -4 -1 2 2 13
1532331458026413 -3 -2 -2 -2 -9 -1 -7 -1
1532331458049352 -2 -1 1 -1 2 1 3 -2
1532331458095229 -2 -2 -1 1 2 -3 0 6
1532331458109192 2 -1 -1 -2 5 2 1 1
1532331458132131 1 -1 -2 -3 -1 -2 2 5
1532331458155069 -1 1 -2 -1 1 -1 0 -6
1532331458169032 -1 -3 -3 -3 3 1 -2 -5
1532331458192968 0 -2 1 1 2 1 -6 -15
1532331458214909 -1 -1 -1 -1 -1 -2 1 0
1532331458228872 -2 1 -2 -1 -7 -2 0 0
1532331458252807 -4 -2 0 -2 4 3 1 -3
1532331458274749 -4 0 -1 -3 -1 -2 -2 -1
1532331458289723 1 0 -1 1 0 -2 -1 -1
1532331458312648 -1 -2 -1 -1 0 1 -2 1
1532331458349552 -1 -4 -1 1 2 -1 -2 -4
1532331458372488 0 -1 2 3 4 -1 0 0
1532331458395427 -2 -2 -2 -8 -4 0 4 7
1532331458409389 1 0 0 3 1 0 0 6
1532331458432328 0 -3 -3 -8 10 9 0 -1
1532331458455267 -1 1 11 35 23 -11 -1 -6
1532331458468232 -2 0 -5 -22 -24 -1 -2 1
1532331458492168 -2 -3 -4 0 -3 0 -1 -3
1532331458515106 0 1 -2 -12 -12 -5 -3 -2
1532331458553005 0 -1 -6 1 6 3 4 3
1532331458582925 -1 -2 -3 -1 -10 -2 -1 -3
1532331458588909 -1 0 0 7 17 1 1 -1
1532331458612845 0 0 -3 -2 -5 -2 4 1
1532331458634786 0 3 3 0 0 1 -6 -1
1532331458657725 -3 -2 -2 2 -4 -5 0 -4
1532331458673682 3 0 -2 0 6 -3 2 3
1532331458704600 -4 -4 -4 -11 -10 -10 -11 -18
1532331458762445 18 6 1 10 13 6 10 11
1532331458768429 -41 -4 -1 0 -20 4 2 5
1532331458817297 -13 -3 -3 -5 -6 10 -19 -12
1532331458828269 -23 -12 -4 -6 -2 8 -26 -15
1532331458846221 26 8 2 -8 7 14 41 26
1532331458891101 -1 7 -1 -6 15 -14 5 4
1532331458913042 26 -4 -5 1 7 -2 19 11
1532331458933986 28 -6 -2 -3 0 1 3 9
1532331458950941 -22 -1 5 29 -1 4 8 5
1532331458971885 -31 -7 -6 -3 -4 -22 -17 -8
1532331459002801 -23 1 -1 4 1 -2 2 -7
1532331459047699 -16 -2 -2 -2 12 6 3 -9
1532331459054663 -4 -5 -4 -17 1 2 2 -5
1532331459085580 -18 0 -1 -1 -17 -5 -25 -14
1532331459114519 34 -4 0 3 7 5 11 11
1532331459122482 2 -4 -3 -14 -13 -1 -1 -6
1532331459139436 6 6 -4 -11 -15 -4 -1 1
1532331459166364 -8 6 6 3 9 10 0 -1
1532331459205260 28 4 -3 -6 7 -2 -6 -8
1532331459212241 -6 1 0 -4 -19 1 -3 5
1532331459235180 -54 -6 -6 2 1 0 -11 -7
1532331459257122 -12 -10 0 11 14 15 -12 -15
1532331459280060 -14 6 9 -1 -9 -24 -5 -6
1532331459295020 12 -7 1 3 1 -2 -1 7
1532331459316961 -6 0 -2 -3 -3 -3 -2 2
1532331459355857 14 7 15 2 0 6 30 17
1532331459360844 -15 -10 -18 -11 4 0 -3 -2
1532331459399740 2 2 3 2 -15 -10 -8 -2
1532331459414700 -9 -2 1 -1 9 2 -5 -6
1532331459437638 8 9 5 4 3 5 11 8
1532331459460578 -1 -1 -5 -14 -19 -3 -3 -1
1532331459484513 -9 -5 -4 -6 -6 -1 -1 -2
1532331459511441 8 4 -2 -3 -3 -5 -5 1
1532331459535377 0 -2 -3 -3 -1 1 -1 -2
1532331459557317 -6 -8 -4 -6 -2 -1 -2 -2
1532331459571281 -2 -4 0 0 1 1 -2 -1
1532331459587239 2 2 0 2 -2 2 -3 -1
1532331459625154 -4 -11 0 10 63 4 2 0
1532331459640097 0 3 1 -2 -12 -14 -1 -3
1532331459663036 2 8 2 2 -43 7 1 0
1532331459684977 -2 -8 -6 -7 9 2 -5 -4
1532331459707915 -1 3 -2 6 79 6 1 1
1532331459716892 -1 0 3 -2 -1 -11 -1 1
1532331459746811 0 0 0 1 18 2 0 -1
1532331459767755 -3 -3 -5 -9 17 0 -3 -6
1532331459783713 -3 -1 -3 -10 -51 -13 -5 -4
1532331459820614 0 0 0 -1 -7 5 1 4
1532331459834576 -5 -6 -11 -21 18 1 -2 -5
1532331459865493 -1 3 9 6 -28 -3 2 1
1532331459879456 -1 -2 -3 -16 -36 -7 -3 -2
1532331459902395 1 0 5 20 -3 -6 -1 -2
1532331459918352 -2 0 -5 13 16 -2 -2 -2
1532331459931317 -2 3 11 12 8 -3 1 0
1532331459955254 -1 -3 -9 -14 -1 -1 -1 -2
1532331459976198 -1 -2 -2 -10 -20 -7 -3 -2
1532331459999137 -1 -3 -14 -18 -38 -9 -3 -2
1532331460008113 1 -4 4 24 47 9 3 1
1532331460029056 -4 -24 2 -6 -18 -8 -2 -1
1532331460059974 1 7 0 -13 -29 -2 -2 -2
1532331460074934 2 8 9 20 56 10 2 -1
1532331460105851 0 1 8 14 -15 -6 -1 2
1532331460127792 -5 -7 0 -14 -34 0 -1 -4
1532331460148736 2 2 1 -5 -37 -2 0 -1
1532331460166688 -1 4 -2 -12 -22 -5 0 1
1532331460217556 0 10 -1 -1 -26 -5 -2 -3
1532331460247473 0 0 7 2 4 -7 -4 -2
1532331460270424 -4 1 0 -13 0 0 3 -2
1532331460279386 4 -3 4 19 63 5 -1 -1
1532331460316288 -9 -27 -16 -27 -65 -14 -1 -2
1532331460322272 5 -13 -2 -7 -3 2 -2 1
1532331460340224 2 23 10 31 85 15 1 -1
1532331460374134 2 3 -2 -12 -34 -14 0 -2
1532331460405050 5 2 -2 15 69 7 -3 -3
1532331460435968 2 5 -1 -12 -51 7 5 -1
1532331460457909 5 13 3 -11 -17 0 1 2
1532331460479851 2 4 -9 -17 -49 -6 -3 -9
1532331460485835 17 19 -5 -31 -100 -17 -5 2
1532331460502789 -8 0 8 16 -6 1 -5 0
1532331460526725 -2 0 -4 -15 -55 -8 -2 -3
1532331460541685 -4 1 -6 0 24 3 -3 4
1532331460562629 -13 -4 -4 -18 -29 -7 -5 -3
1532331460579592 19 10 5 3 32 4 0 -3
1532331460614490 -5 -12 -2 1 12 3 4 1
1532331460630452 -15 0 -3 -11 -22 -9 -2 -17
1532331460652389 3 2 -4 -16 -55 -8 -1 -2
1532331460673333 14 10 2 3 4 2 -13 -10
1532331460704251 -2 -1 2 9 62 -4 11 14
1532331460713226 1 -2 2 4 -15 5 -1 3
1532331460743146 17 -3 1 4 58 7 -7 -2
1532331460767083 -15 -4 -3 3 3 0 -10 -15
1532331460782052 -11 -3 -7 -11 -39 -2 1 -5
1532331460802986 -5 5 3 8 8 1 1 1
1532331460819949 -8 -5 -4 -1 27 3 5 -31
1532331460841882 2 -2 0 8 52 1 1 11
1532331460884767 -3 3 3 6 1 3 -3 3
1532331460907705 2 1 -1 -9 -32 -3 0 0
1532331460922675 2 4 4 -4 -18 -5 -1 6
1532331460936628 -3 0 -5 -1 5 -1 -5 -5
1532331460982506 3 -1 -2 2 31 14 8 3
1532331461027394 -4 -8 1 6 36 -14 -3 9
1532331461066282 -4 -3 -2 -3 -41 -10 -8 -7
1532331461081242 0 -1 0 10 32 0 0 -2
1532331461119140 0 -2 -3 -2 -10 -2 1 -1
1532331461139087 -3 1 0 -1 -8 12 2 0
1532331461163023 1 -1 0 -1 -2 3 -2 -2
1532331461175989 -1 4 3 0 0 -3 3 1
1532331461199925 -3 1 1 3 11 -4 0 5
1532331461222863 -3 -3 -1 -3 -15 -8 -1 5
1532331461235828 -1 -3 -1 0 -1 -6 -4 -6
1532331461252783 3 -3 -3 -2 7 -3 -3 2
1532331461290691 -4 -3 -2 -2 5 7 0 -3
1532331461304662 0 1 -1 -2 -2 -2 0 -2
1532331461328580 -1 -2 -4 -2 7 -2 -4 -3
1532331461342543 3 -1 1 -1 -1 4 2 0
1532331461356506 1 -1 0 2 -6 -8 0 -1
1532331461380442 -1 -2 -2 -1 1 3 -1 -1
1532331461402391 0 0 -3 0 -4 0 0 -3
1532331461416345 0 0 1 7 9 3 -2 -1
1532331461432318 0 4 3 4 10 5 1 -2
1532331461463220 -1 0 -1 -7 -8 -1 -2 1
1532331461476185 -2 -5 -1 -5 -10 -1 -3 -2
1532331461500121 0 -2 -2 -8 4 -2 -2 -1
1532331461523060 0 2 -1 -3 -9 -3 0 0
1532331461545001 0 -1 -5 -6 -8 2 -1 0
1532331461582900 -1 0 -1 1 10 0 0 0
1532331461595875 -1 -2 0 3 10 -2 -2 -1
1532331461620799 -2 0 2 3 7 0 -1 -2
1532331461649721 -1 -2 -2 -4 -16 -4 -1 -3
1532331461702579 -2 -1 -2 3 19 1 0 1
1532331461740478 -1 -3 -2 -5 -9 0 -1 -2
1532331461763425 1 1 -2 -15 -7 -3 0 0
1532331461776382 -2 -2 -2 -7 -33 -3 -2 1
1532331461807300 0 3 3 4 3 -2 2 -1
1532331461830238 0 -1 -2 3 16 -2 1 -2
1532331461836223 -1 -2 -3 0 3 0 -1 -2
1532331461860158 0 -3 -3 -3 -11 0 -2 0
1532331461882100 -4 -1 -2 1 -1 -3 -5 -2
1532331461905038 1 -1 1 -3 -23 -3 0 -1
1532331461927977 -1 -1 -2 3 9 0 0 0
1532331461979840 -2 -4 -2 0 2 1 -1 -2
1532331462002776 -1 0 2 2 12 -1 0 0
1532331462032697 0 0 -2 2 -5 -2 0 0
1532331462053641 -2 -2 1 1 2 0 -2 0
1532331462108494 -3 1 0 -2 -1 0 1 -1
1532331462122457 0 0 2 7 4 1 -1 0
1532331462145395 -2 -1 -3 -3 -6 -2 -3 1
1532331462159358 -2 -1 -1 -1 -3 0 -1 -1
1532331462166340 -1 -2 -3 -3 -13 -1 -2 -2
1532331462227176 0 -1 -4 -4 -7 -2 -4 -3
1532331462265075 -2 -2 -2 -5 1 1 -4 -1
1532331462317934 -1 -2 -4 -3 7 0 1 1
1532331462349848 -3 -2 -2 -11 -29 -3 1 -2
1532331462415672 -2 -1 -2 -3 -10 -5 -1 0
1532331462482493 -1 0 -1 2 18 2 1 -3
1532331462505432 -1 -1 -2 1 20 3 -2 -2
1532331462595192 -3 -1 -2 -4 -5 -1 -2 -1
1532331462663011 -1 -2 -2 0 -3 -2 -3 0
1532331462684953 1 -1 0 3 6 -1 -1 -2
1532331462781693 0 0 3 3 -22 0 2 0
1532331462865469 6 -6 -5 5 20 -13 -2 2
1532331462902370 -2 -7 3 5 30 8 -2 -29
1532331462955229 -5 -2 0 1 26 3 -3 -5
1532331462962210 0 1 0 0 17 5 4 -7
1532331463007090 -5 -2 -5 -12 1 -14 -3 -3
1532331463044988 0 0 -3 1 2 7 1 1
1532331463073911 -1 -2 -1 0 26 3 -2 -1
1532331463126770 -3 -2 -3 -17 -49 -3 -2 -2
1532331463140733 -3 -5 -1 1 -3 -5 -1 -3
1532331463164669 -2 -1 2 6 -23 -5 0 1
1532331463203565 2 5 -2 -15 -62 2 -3 1
1532331463270386 0 -6 -2 9 15 -11 -1 6
1532331463307287 -3 1 -1 -8 -45 -5 -1 -4
1532331463367127 -3 0 -1 -5 29 -6 -5 -2
1532331463381090 -3 -5 -1 -11 -50 -6 -2 7
1532331463440930 4 2 1 13 6 14 6 -3
1532331463500770 3 3 6 11 -19 -7 1 1
1532331463524705 -2 4 5 5 17 -1 -1 -13
1532331463546647 -1 -2 -3 -4 -34 -3 0 -2
1532331463577573 -2 -4 -1 -1 -4 0 3 8
1532331463584546 0 0 2 11 35 -8 1 6
1532331463606487 0 -2 1 4 29 6 1 -1
1532331463621447 -1 -2 0 -1 -16 -9 -9 -6
1532331463644386 0 0 1 7 23 0 -2 0
1532331463667324 -2 -2 -5 -5 14 6 0 -7
1532331463704225 12 0 -3 -15 -63 -26 -3 18
1532331463735143 2 1 0 6 23 17 0 5
1532331463750103 -2 0 -1 6 33 12 4 5
1532331463787004 -4 -3 -9 -33 -70 -14 -5 -6
1532331463809943 1 2 3 -1 -3 9 1 5
1532331463831884 -14 -5 -4 6 47 6 -1 -20
1532331463846844 -1 2 1 9 -4 0 -2 -2
1532331463877762 -4 -2 0 -5 15 -1 3 -1
1532331463906683 -6 -4 -1 9 20 -4 -5 0
1532331463929622 -1 -4 -6 -8 -15 -10 -4 -2
1532331463944583 -2 2 0 -3 1 5 5 -7
1532331463966524 -1 -2 -3 3 10 -1 0 -4
1532331463990460 -2 3 0 0 7 2 -1 1
1532331464026364 9 -5 -10 5 49 3 -2 11
1532331464058278 -4 -21 -2 2 27 10 8 23
1532331464066257 -5 -9 -10 -19 -52 -6 -1 -4
1532331464087201 -2 10 1 4 5 -6 -4 -10
1532331464111137 -4 -2 -14 -7 12 0 1 -8
1532331464132081 -5 -15 3 7 -4 3 -5 0
1532331464154022 12 -3 -3 -8 -33 -3 1 -5
1532331464169980 -1 6 0 10 15 4 -1 0
1532331464191921 -4 -7 -11 -17 -40 -8 -4 -6
1532331464206881 -3 10 -8 -3 -7 -5 -1 -5
1532331464228822 -1 -8 4 -22 -10 1 -2 -16
1532331464243797 5 18 3 7 -61 -6 1 5
1532331464282682 -5 -4 0 -3 0 -1 -4 -4
1532331464290660 3 9 -8 -10 -32 -5 -2 -1
1532331464304620 1 2 11 10 22 2 -2 2
1532331464326561 2 -9 -17 -9 -32 -1 -1 -6
1532331464357478 -1 0 3 8 22 -2 -4 1
1532331464395376 -4 -15 -9 -9 9 -2 1 -5
1532331464410336 3 -2 -6 1 -3 -1 2 5
1532331464433275 -6 -5 8 -2 14 -1 1 3
1532331464447244 6 32 -2 2 -9 -5 0 3
1532331464470176 -7 -14 1 -7 17 4 0 -1
1532331464492117 -7 -21 -10 -11 10 0 2 -14
1532331464536999 0 6 -2 -4 15 5 1 -2
1532331464555947 -5 -2 0 3 23 6 -2 -4
1532331464567915 -6 -1 -5 -1 -21 -9 -4 -4
1532331464597842 1 -3 -3 5 7 0 1 6
1532331464606811 -3 -9 3 1 30 0 1 0
1532331464657675 5 25 8 7 0 -1 0 12
1532331464717514 2 -6 -7 -2 -5 -2 1 0
1532331464756411 4 -5 3 6 12 6 3 1
1532331464779349 -1 -14 -5 -7 -8 -2 -4 10
1532331464794310 0 2 3 7 15 -1 -1 -2
1532331464815253 -5 -7 -1 -5 -24 -11 -3 -2
1532331464869109 -3 1 0 -2 -11 3 2 1
1532331464891051 0 1 3 0 -4 -2 0 -1
1532331464912995 -9 -4 0 1 -3 -4 0 -1
1532331464926956 9 2 -4 -4 -10 3 -3 -2
1532331464949893 -4 -2 0 -1 4 9 1 -3
1532331464971836 0 0 0 -1 -4 -9 -2 0
1532331464994773 -1 -2 -2 -2 1 -2 -2 0
1532331465010731 1 0 4 1 -3 -7 -1 0
1532331465033673 -3 -3 -4 -3 0 2 -1 -1
1532331465069573 1 -1 0 2 4 17 3 -1
1532331465092512 1 1 2 0 3 1 -3 -2
1532331465114453 -2 -3 -6 -7 -3 -12 0 -1
1532331465160330 -3 -3 -2 -1 4 1 -1 -1
1532331465190250 -3 -5 0 5 2 10 1 0
1532331465212192 2 0 3 7 3 4 2 0
1532331465227152 -3 -2 -3 -13 -24 17 4 -1
1532331465257071 -1 0 5 11 31 -13 -3 -2
1532331465280016 -1 -2 -7 -8 1 15 1 -1
1532331465285994 -1 0 -3 -2 17 -1 -1 -3
1532331465309930 -2 -2 1 1 -17 2 -2 -1
1532331465332869 0 2 -2 -1 2 1 1 0
1532331465368773 -1 0 1 7 9 3 -3 -1
1532331465392710 -4 -1 -1 -2 -3 -8 -1 -2
1532331465406671 -1 -3 -4 -6 1 1 0 0
1532331465422628 1 1 3 -5 -11 2 0 0
1532331465453559 2 -1 2 3 -9 -2 0 -2
1532331465466511 -2 -2 -5 -4 16 4 0 0
1532331465496431 1 0 -1 -1 8 0 -3 -1
1532331465526351 -1 -2 -1 2 -2 -4 0 -1
1532331465550287 0 0 0 -7 -34 -4 -1 0
1532331465572228 0 -1 0 1 -6 -4 -2 0
1532331465611125 0 0 -1 5 3 0 0 1
1532331465624090 -2 -2 0 -1 -4 0 -3 -2
1532331465662986 0 -1 0 1 1 -3 -2 -1
1532331465675951 -1 1 -1 2 5 3 0 2
1532331465714846 0 -2 -2 -1 4 0 -2 1
1532331465729816 0 -2 -1 0 2 -2 -3 0
1532331465752746 -1 0 0 -3 -21 -1 1 0
1532331465782666 -1 -2 -2 1 4 1 -2 -3
1532331465789647 1 0 0 4 2 0 0 -1
1532331465819572 -3 1 -2 -1 -5 -2 0 0
1532331465835524 -1 -2 0 -3 11 1 -1 0

1532331465863450 -2 -1 0 3 13 3 0 -2
1532331465874436 -1 0 -1 2 1 0 -1 -1
1532331465904341 -1 1 -1 0 1 2 0 0
1532331465932265 -3 -2 -2 -6 -38 -11 -3 -1
1532331465955203 0 0 1 5 15 0 0 -1
1532331465969166 -1 -1 -1 0 11 4 1 -1
1532331465992104 0 1 0 1 4 2 1 1
1532331466023023 0 0 0 6 -5 0 -2 0
1532331466029007 -1 -1 0 1 21 0 0 0
1532331466060927 -1 -2 -1 -1 -5 -2 -2 -2
1532331466074884 -1 0 0 0 -8 -3 -3 -1
1532331466112782 1 0 -1 -1 -3 1 1 -1
1532331466134724 -2 -2 1 -1 2 -1 -3 -2
1532331466156665 1 1 -2 -2 -6 0 -1 -1
1532331466165642 -1 1 -1 0 8 -1 0 0
1532331466195560 0 -2 1 1 1 1 0 0
1532331466217503 -1 0 -1 0 -3 -4 -2 -1
1532331466234457 0 0 -1 2 10 4 -3 -1
1532331466256398 0 -1 -1 0 -2 0 1 0
1532331466285326 -1 -2 0 -1 1 0 -1 0
1532331466294307 -3 1 1 0 -8 -4 -1 -1
1532331466316238 -1 -1 -2 0 11 1 0 -1
1532331466339177 -3 -3 -1 0 10 -1 -1 -2
1532331466354152 1 0 0 -1 -12 -3 1 -1
1532331466377076 -2 -2 0 0 -3 4 -6 -1
1532331466405001 -1 -1 0 -4 -12 -4 -1 -1
1532331466442899 2 0 -2 1 2 1 -6 -2
1532331466457859 1 -2 -1 -1 -5 0 -1 -1
1532331466479800 -1 0 -3 -3 -3 -1 0 1
1532331466494761 -1 0 0 -4 -8 -1 1 -2
1532331466508723 -1 -1 -3 -3 -7 -3 3 0
1532331466525678 -2 -2 -2 -3 4 -1 -2 0
1532331466562579 -1 -3 -1 0 2 1 -3 0
1532331466577539 -2 -1 2 -1 0 0 -1 -1
1532331466592499 -1 0 -2 1 2 -1 -2 -1
1532331466615506 -1 -2 -1 -2 4 2 -4 -2
1532331466653405 -2 0 0 2 2 -13 -2 -2
1532331466667367 1 0 1 3 0 -9 -3 -2
1532331466697287 -2 0 -1 -1 2 3 -4 -2
1532331466735186 0 0 0 -1 3 2 -2 0
1532331466765106 -1 -1 0 0 -1 -3 -2 -2
1532331466772087 -2 -2 -1 -1 -4 -3 -1 -1
1532331466786050 0 -2 -1 1 -1 0 -2 -2
1532331466817964 -1 -2 -3 -2 -1 6 -3 0
1532331466839906 -1 0 -1 2 3 1 -1 -1
1532331466854865 0 -1 -1 -2 -5 -6 0 0
1532331466877804 0 -1 0 -1 2 1 -1 0
1532331466891767 -1 -3 -1 -1 2 0 -2 -1
1532331466914706 -2 -1 -1 -1 -1 -1 4 0
1532331466937644 0 -2 -1 0 -1 -2 1 0
1532331466960202 -2 -1 -2 0 -2 1 -1 -2
1532331466975162 -2 0 -1 -1 -4 -2 -1 -1
1532331466997103 1 -1 -2 0 2 -1 -5 -1
1532331467019044 -1 -2 -2 0 3 -1 0 0
1532331467051970 1 -1 1 -1 1 3 -3 0
1532331467079881 -2 0 -1 -4 0 -2 -3 -2
1532331467094842 0 -1 -2 -1 -8 1 0 1
1532331467117780 0 0 -2 0 5 -3 -1 -1
1532331467140719 -2 0 -1 1 3 1 -3 -4
1532331467177620 0 0 0 -3 12 1 -3 1
1532331467199561 -2 1 3 -6 -18 -4 3 -1
1532331467222500 1 -3 -4 0 13 0 -2 -1
1532331467237460 -4 -1 -1 0 -24 -4 -2 -3
1532331467266383 0 1 3 2 -1 -1 1 -4
1532331467298297 -2 -3 1 -4 -3 -8 -2 -1
1532331467311263 -1 5 3 7 5 -2 0 -1
1532331467335200 1 -6 0 -1 3 6 16 13
1532331467356143 -3 -2 0 0 5 -2 -8 -9
1532331467409999 -5 -5 -4 2 -6 -12 4 -5
1532331467430942 2 0 14 13 1 0 4 9
1532331467462857 -34 -5 -6 -6 -8 18 1 -2
1532331467477816 41 8 -2 -8 0 8 6 17
1532331467499758 33 3 2 14 6 1 -6 1
1532331467528681 6 0 3 10 9 -14 20 30
1532331467546633 5 2 2 -4 -9 9 5 11
1532331467590516 0 -2 1 -1 2 2 -13 -11
1532331467620436 -12 -4 -4 2 4 3 -19 -4
1532331467641380 15 4 -2 0 3 0 -3 -5
1532331467659331 -8 -4 -6 -10 7 -3 -14 -4
1532331467689252 7 -3 0 1 -17 -15 -1 -3
1532331467704211 13 -5 -3 -11 -2 -12 29 9
1532331467727150 11 11 3 2 6 0 -32 -8
1532331467742110 -23 -2 0 -10 -6 -6 6 4
1532331467761059 11 1 1 13 -6 -8 -18 -14
1532331467779016 -14 -6 -1 -6 -7 12 8 10
1532331467814915 22 1 -2 2 6 4 8 10
1532331467837854 10 0 3 29 20 -3 5 3
1532331467859795 9 2 1 -16 -23 -6 -16 -16
1532331467874755 8 5 2 -1 -5 -4 25 23
1532331467897694 -28 0 1 5 -2 0 -5 -7
1532331467927613 -10 -6 -9 -5 3 1 -7 0
1532331467967507 7 3 4 14 -18 8 5 -5
1532331467972494 16 -13 -6 -7 -17 0 -10 -12
1532331468002414 0 7 -6 -15 1 11 -1 -7
1532331468047294 3 5 -9 -22 -16 16 0 -1
1532331468085192 -9 -4 0 -4 9 -6 7 6
1532331468100153 1 -5 -10 -20 -12 -9 -17 -16
1532331468137065 2 13 7 9 61 -6 6 17
1532331468160990 -2 -18 -13 -1 -22 -10 -5 -8
1532331468197891 7 -3 1 3 -1 1 -1 0
1532331468219832 11 3 7 8 -6 5 12 11
1532331468257731 4 0 4 11 7 -10 0 -1
1532331468279672 0 -6 3 -3 -2 2 -4 -9
1532331468317570 -2 3 6 15 4 2 4 1
1532331468340509 -1 -23 -1 -2 -5 1 -3 0
1532331468400349 -10 2 -1 12 3 -4 -5 -1
1532331468439245 2 5 -1 2 7 -3 -2 -2
1532331468460198 4 13 -5 2 -2 -7 0 0
1532331468520030 2 6 -1 -2 0 -11 -2 1
1532331468542968 1 0 1 7 -30 2 1 -1
1532331468640706 -2 2 -4 1 42 -3 -2 -4
1532331468662648 -1 -4 -2 -1 6 -1 1 1
1532331468683592 7 17 4 6 -65 -12 -1 0
1532331468722487 -6 -13 -4 -9 -23 -4 -2 -2
1532331468759389 -4 -6 -4 -3 -32 -8 -3 -3
1532331468796290 10 12 8 2 -63 0 2 2
1532331468805266 6 41 5 28 25 -1 -1 0
1532331468841170 -5 -4 1 -4 20 1 -4 -4
1532331468873101 5 12 -3 -11 -38 -7 -3 -3
1532331468915969 -2 0 -2 2 -2 -1 3 0
1532331468939906 -2 3 1 -12 -44 -11 -3 -4
1532331468992765 -5 -10 -1 0 3 0 -2 -2
1532331469022685 -6 -26 -2 2 -5 -1 0 0
1532331469059586 -5 -11 1 13 49 -1 -2 -1
1532331469096487 -5 -5 -3 -16 9 5 -1 -3
1532331469129399 0 13 -1 -13 -33 -3 1 -1
1532331469156327 2 13 -7 4 40 -3 -2 -1
1532331469202204 0 -7 4 9 -42 -8 -5 1
1532331469225143 -7 -8 -6 -14 -35 -3 -1 -1
1532331469270023 -5 -4 -12 -2 39 2 -4 -3
1532331469299943 4 2 5 16 15 6 2 0
1532331469335847 -9 -8 4 -21 -85 -6 0 -4
1532331469352801 0 -1 -1 -9 -16 -1 1 2
1532331469398679 -5 17 -2 -17 -48 -14 0 1
1532331469426604 -3 18 -1 -3 -3 3 -2 -5
1532331469508385 -1 0 -1 4 8 0 -2 -4
1532331469534316 0 -7 -6 -9 -26 2 0 -4
1532331469599142 -14 -12 5 5 -5 -1 2 -3
1532331469622081 -8 -3 -4 -11 -21 -3 -1 -4
1532331469652998 -1 -7 -4 4 32 3 -3 -4
1532331469684913 -12 -20 -1 7 14 4 -1 -3
1532331469704859 4 14 -5 -9 -5 2 0 0
1532331469764700 5 15 7 6 10 0 1 3
1532331469787638 4 -15 6 -7 -73 -8 -2 -1
1532331469825536 -2 1 1 0 -8 3 -2 1
1532331469869420 2 -9 1 -4 4 1 -2 2
1532331469885378 -9 -7 -10 -7 23 0 0 -1
1532331469944219 0 25 0 1 -20 -2 2 -2
1532331469967158 12 2 -1 -5 -26 1 0 2
1532331469991093 -3 8 5 12 19 1 0 -1
1532331470034977 -18 -6 2 11 59 5 0 1
1532331470063903 3 5 -3 -2 10 -3 -1 0
1532331470078859 -1 5 -4 -6 -17 -3 -4 -6
1532331470101797 0 2 4 5 9 -1 2 -3
1532331470131718 -3 -3 -4 0 11 -2 0 1
1532331470184577 -3 -4 -1 -2 -3 7 1 2
1532331470198540 -4 0 0 2 9 19 4 -2
1532331470223476 2 -3 -3 -1 -8 -2 -2 13
1532331470244416 -4 -2 -3 -4 -2 1 -2 -10
1532331470267355 0 -1 1 2 1 4 -1 -4
1532331470282316 -2 -3 -2 -4 -4 -21 -1 -4
1532331470306263 0 1 1 1 0 4 0 4
1532331470327195 -1 -1 -3 4 -1 -16 -5 -3
1532331470343152 -1 -3 -3 -3 1 -6 0 -2
1532331470364096 1 3 5 -3 -9 3 -1 -1
1532331470395014 -3 -5 -7 -3 -16 9 0 -1
1532331470401995 -1 -4 -6 -3 0 -13 -4 -2
1532331470432912 -3 1 0 1 16 -7 -3 -2
1532331470446875 0 -1 0 -1 -15 -1 -3 -1
1532331470461835 1 1 1 3 10 9 1 -1
1532331470484774 -3 1 3 -2 -7 -5 -1 -2
1532331470506715 -3 -3 -4 0 2 -10 0 0
1532331470521675 0 -2 0 2 -5 9 1 -1
1532331470544613 2 0 1 0 -10 4 0 0
1532331470575531 -1 0 0 8 7 4 1 2
1532331470604453 0 1 7 -2 -1 -9 -2 0
1532331470626395 0 0 -1 -3 7 -2 -3 -1
1532331470672272 -1 0 -2 -2 -5 -2 1 -1
1532331470687232 -1 -2 -6 0 6 6 -2 -1
1532331470725130 -2 -1 -1 2 4 8 0 -2
1532331470755051 1 0 -2 -3 -21 8 0 1
1532331470762032 -1 -2 -2 -5 -2 -9 -2 -2
1532331470783973 -2 -3 2 9 5 -1 0 -1
1532331470806912 -1 -1 -5 -9 -8 -3 -2 -1
1532331470821872 -2 -2 -8 -1 11 5 3 0
1532331470859770 0 3 4 -2 -1 -3 -1 -1
1532331470881712 -1 -3 1 5 13 7 -2 -1
1532331470912629 0 -1 0 1 2 2 -2 0
1532331470934571 0 -1 -4 -5 -5 -4 -1 0
1532331470987440 -1 -3 -3 0 -4 -4 0 0
1532331471001392 -1 0 -1 -5 -7 -2 1 -2
1532331471055247 -2 -2 -2 -3 -6 0 -1 -1
1532331471070207 -2 -1 -3 -2 2 1 -1 0
1532331471107125 -2 -3 -3 -4 -6 -3 -2 -3
1532331471121071 -3 -1 -2 5 14 2 -1 -1
1532331471159967 -3 -1 1 1 7 -6 -3 -3
1532331471166949 2 1 -1 -6 -30 8 1 -1
1532331471189887 -1 1 1 10 20 -4 0 -1
1532331471227786 0 -2 0 -1 -8 -1 1 0
1532331471241749 -1 -1 1 11 4 1 0 0
1532331471264687 -2 -2 -2 -6 -14 2 -1 0
1532331471317546 -3 -3 -4 -7 1 3 0 -1
1532331471332506 -1 1 -2 1 1 -1 -1 1
1532331471361428 -1 -3 0 0 4 1 0 0
1532331471451188 1 0 0 -6 -9 -4 -1 -1
1532331471490084 0 -1 -3 1 -1 -2 0 -1
1532331471527982 -1 0 -2 -3 -1 -1 -1 1
1532331471572863 -1 0 -1 -4 7 0 0 -2
1532331471601785 -2 0 -3 -4 -1 1 -1 -1
1532331471647663 2 -1 0 0 -2 -3 -1 -1
1532331471686559 -2 -1 2 -1 -1 -5 -1 0
1532331471707502 2 -3 2 -2 2 -1 -1 1
1532331471730442 -1 -1 0 5 6 -1 0 0
1532331471769338 5 11 10 12 -3 0 2 0
1532331471805241 2 3 -3 -1 0 -4 -3 -1
1532331471822196 1 7 -2 -7 -4 -3 -3 -2
1532331471850121 -2 -3 -6 -5 -10 0 -2 0
1532331471873060 1 1 2 0 14 -1 -2 -3
1532331471909961 -4 -4 -5 -8 -23 -1 -2 -4
1532331471923924 -1 -2 0 0 7 -5 -1 1
1532331471947868 8 3 1 -1 -13 -6 -1 19
1532331471969800 -1 0 2 0 -13 -2 2 4
1532331471992739 -5 -3 0 -1 -3 0 1 -1
1532331472007700 -2 -1 -3 -4 -30 -5 -1 -5
1532331472029641 -1 -4 -1 -6 6 -4 -1 -6
1532331472067540 -12 -5 -4 -5 9 21 -1 -21
1532331472090478 0 4 -2 4 43 4 1 0
1532331472103460 6 -3 -1 14 8 7 0 15
1532331472127380 -6 -2 3 -11 -38 -13 -3 -8
1532331472163283 0 0 -3 -8 -14 -3 -1 2
1532331472210158 -1 -4 -2 0 -4 0 0 1
1532331472248057 -4 4 -5 -2 1 -16 -2 -11
1532331472270995 -1 -1 3 4 9 -6 -2 -1
1532331472323864 2 1 -5 -20 -89 -11 -6 5
1532331472339811 -1 4 4 -6 -13 0 -3 -7
1532331472360755 1 -7 -1 13 14 -14 1 8
1532331472389677 -2 2 -1 -4 4 14 0 -3
1532331472412616 0 0 -1 2 17 -3 3 18
1532331472441539 -5 -6 -5 -3 -9 -17 -8 -1
1532331472457497 -1 -1 1 3 1 -4 0 -6
1532331472482430 -3 -1 -2 -21 -88 2 -3 -4
1532331472493400 1 -1 -3 8 53 -15 -9 3
1532331472523320 -3 13 -1 -3 -6 3 3 -21
1532331472538285 1 -4 4 -7 -42 17 9 3
1532331472554254 0 -3 -6 12 85 13 2 0
1532331472576179 -5 -7 -2 -3 33 0 -3 -7
1532331472594131 1 1 -2 -6 -53 8 8 1
1532331472615075 2 -6 -2 -11 -47 -1 -3 12
1532331472636019 -3 1 7 2 15 7 -6 -7
1532331472653973 0 -3 -4 -11 -40 4 -1 -6
1532331472682894 0 0 3 11 25 4 -1 4
1532331472719794 -4 1 3 5 -18 4 -5 -21
1532331472734755 3 -2 -4 -37 -42 -30 -6 6
1532331472755699 2 0 1 21 48 4 7 9
1532331472774648 3 5 6 18 12 7 5 -2
1532331472795609 -10 -8 -10 -16 -31 9 -10 -16
1532331472831496 -1 0 0 9 37 15 -3 3
1532331472855432 1 0 -2 6 26 13 0 7
1532331472893330 -3 0 0 3 3 -7 -7 -2
1532331472923251 -5 -2 -2 -2 27 -4 -5 -20
1532331472952173 -14 -4 -6 -12 -23 -9 -1 -29
1532331472975111 5 2 2 2 11 -16 -9 10
1532331472998062 1 1 5 16 15 1 -2 0
1532331473013010 3 0 1 12 28 9 1 6
1532331473050909 -1 -2 -3 -7 -71 4 4 -2
1532331473073848 -1 -2 -1 4 18 2 -6 1
1532331473089805 0 -2 -4 -6 -25 -8 -14 -6
1532331473102777 0 -1 0 5 23 -6 4 -9
1532331473123714 0 0 1 3 34 -1 0 5
1532331473146653 -1 1 2 3 -3 2 -14 2
1532331473169591 0 -4 -2 -4 -14 5 -6 -2
1532331473200508 0 0 -3 -13 -45 -17 2 1
1532331473221453 -2 0 -3 -5 11 6 8 6
1532331473239405 -4 -1 0 0 22 -2 -16 -7
1532331473261346 2 -1 1 3 12 -2 4 4
1532331473276306 -4 -1 -7 -5 -15 0 7 -4
1532331473296253 -1 0 2 2 -8 -12 1 1
1532331473314206 2 -1 1 -1 9 -5 -1 9
1532331473365069 -1 -4 -2 -7 -6 10 17 1
1532331473394989 -2 -1 -2 -2 1 2 2 9
1532331473417927 3 2 -2 -3 -2 -17 -20 -5
1532331473432887 -5 -13 0 3 18 7 8 -2
1532331473462807 0 0 1 4 -19 15 8 6
1532331473483751 -1 -9 -1 2 -38 -2 -4 -5
1532331473501718 -2 -6 4 6 46 -17 0 -5
1532331473552567 -4 -8 0 5 27 -4 -2 -8
1532331473621383 -2 3 1 6 6 -5 -9 -4
1532331473643324 1 17 -1 0 6 2 3 -3
1532331473649308 -1 -8 -2 -5 -22 13 1 11
1532331473672246 -1 0 0 0 1 -4 4 2
1532331473711143 -2 -3 0 2 -18 -7 -5 -6
1532331473764001 0 2 -2 -10 -8 -2 -1 2
1532331473779959 1 -2 0 0 3 -8 -3 -2
1532331473845783 0 1 4 -9 -12 -6 -1 -4
1532331473859746 -4 -2 3 2 -17 -65 -7 -2
1532331473882684 -3 -3 -2 -1 -6 -5 3 1
1532331473920583 2 1 0 -1 -4 -1 4 0
1532331473934546 1 -1 -5 -1 4 40 4 3
1532331473948507 2 -1 -2 0 -8 -5 -9 -3
1532331473965463 -5 -3 -4 -2 7 -5 1 1
1532331474002364 0 0 -3 -9 -4 -9 0 2
1532331474017323 -1 -2 -1 1 -4 -3 1 0
1532331474038268 0 1 -1 0 -21 -1 -2 0
1532331474056220 -3 -1 -2 2 5 12 1 -2
1532331474078161 0 -3 -1 1 1 -3 -1 -2
1532331474106086 -3 -1 2 2 -6 -15 -4 -1
1532331474117057 1 1 -3 -4 3 8 2 2
1532331474139000 -2 -2 -1 -15 -18 -6 0 -4
1532331474158945 -2 -1 2 3 9 0 0 1
1532331474176897 -2 -3 -2 -2 0 0 -1 -2
1532331474216790 1 1 1 2 2 1 -1 -1
1532331474243720 -1 0 -1 -6 17 5 0 -1
1532331474256684 -2 -4 -6 -3 -6 5 1 1
1532331474295581 -2 0 1 2 -5 -1 2 1
1532331474346481 2 -1 0 3 10 4 0 3
1532331474364396 -3 -2 -1 -3 3 1 -2 -7
1532331474422241 -1 -2 -1 -1 3 -2 -1 -2
1532331474437201 0 1 1 2 8 1 -3 -1
1532331474466123 -3 -1 0 1 -28 -4 -3 -6
1532331474505020 -2 0 1 2 1 3 -1 -1
1532331474534940 2 -1 -1 -1 5 2 -1 3
1532331474557878 -1 -1 -1 -6 -5 -2 -2 1
1532331474580817 -1 0 -2 -1 3 -4 1 0
1532331474594793 0 -2 -3 -3 7 3 -1 1
1532331474616721 -2 -1 1 0 14 2 0 1

1532331474647637 2 0 0 -3 -51 -10 -1 -2
1532331474677557 -3 -1 0 3 12 -3 -2 -11
1532331474691520 8 -1 -1 0 -7 -3 0 12
1532331474745376 -6 -2 -3 -1 21 3 -3 -12
1532331474784272 0 -1 -1 -2 -19 -6 -1 0
1532331474806213 0 -2 0 2 18 2 0 1
1532331474820176 7 -1 -2 -2 -8 -1 0 14
1532331474857087 -2 -1 2 2 11 -1 -1 -6
1532331474887995 1 -1 1 1 1 -2 2 3
1532331474925894 -2 0 -2 1 19 3 -2 -3
1532331474939856 -3 0 -1 -1 -4 2 -1 -10
1532331474977755 -13 -2 -1 -2 -12 -2 -3 -17
1532331475007674 -6 0 -4 -1 7 -1 -2 -14
1532331475044576 2 0 0 2 -6 -1 0 5
1532331475098431 -2 -3 -2 -2 -14 -4 -1 11
1532331475142315 1 0 0 2 6 -1 1 -9
1532331475165253 -2 -2 -1 -1 -4 -5 0 1
1532331475202154 -3 -1 -3 -2 0 1 -1 -6
1532331475217114 -3 1 0 0 -2 -1 2 0
1532331475248032 -3 -2 -1 -1 3 0 -3 -1
1532331475284933 -5 -1 -3 -1 -6 -2 1 -9
1532331475323829 0 0 -2 -2 -1 -3 0 3
1532331475340198 0 0 0 0 -2 -3 -1 0
1532331475360144 0 1 -2 -2 -1 1 -1 0
1532331475389067 -4 -1 0 0 -1 -2 1 -10
1532331475442923 1 -2 -2 -2 -1 -1 0 0
1532331475457882 -1 -1 -1 0 0 -1 -1 -2
1532331475480822 -1 -4 -2 -2 0 1 -3 -4
1532331475500768 3 -3 -1 0 1 -1 2 13
1532331475562603 -2 0 0 0 1 3 -3 -6
1532331475600501 0 -1 -2 1 -2 -3 0 4
1532331475638399 -2 0 -1 -1 0 -1 -1 -7
1532331475660341 -3 -1 0 -1 -4 -3 1 -5
1532331475682283 -1 -1 -2 -1 -1 -2 0 -4
1532331475720181 -2 -2 0 -1 -3 -1 0 2
1532331475773040 0 -1 -1 -3 -3 -1 -1 1
1532331475793984 -3 0 -3 -2 1 0 0 -2
1532331475878758 -1 -2 1 -2 -3 -2 2 -2
1532331475890725 -1 -1 0 -1 -1 1 -3 -1
1532331475913663 -3 -1 0 -1 1 -4 -2 -1
1532331475982480 -2 -2 -2 -1 1 -2 -2 -2
1532331476035338 -1 -2 -4 -1 -2 1 -1 -1
1532331476063264 0 0 0 0 -7 -6 -1 -2
1532331476102160 0 -3 1 1 7 0 -2 1
1532331476117119 -1 -1 -2 0 14 2 3 3
1532331476140058 0 0 2 3 10 -3 1 2
1532331476208873 0 0 1 3 1 1 -1 1
1532331476237797 -2 -2 -4 -1 -15 6 -2 -3
1532331476259738 -35 -3 1 -1 27 -6 2 -5
1532331476296646 3 3 2 2 -4 3 2 0
1532331476327557 1 -1 -6 -5 -15 -1 -6 -1
1532331476343514 3 -4 -1 -5 -27 4 3 2
1532331476365455 -1 2 1 4 -1 0 12 0
1532331476381419 0 -1 0 0 -5 -6 -5 0
1532331476410338 5 -2 -2 -2 0 1 2 3
1532331476432277 -3 1 -1 -7 -18 -1 -18 -10
1532331476449231 -1 0 -2 -11 -28 -8 3 3
1532331476476159 -5 -1 -4 -15 -40 4 21 8
1532331476500094 -15 -6 0 6 11 -2 -8 -15
1532331476537993 59 -3 0 -3 -9 -2 -5 -2
1532331476567914 -59 -7 -1 -3 4 -8 -11 0
1532331476581876 -45 12 5 10 23 7 -10 4
1532331476606810 -26 -5 -3 6 10 15 37 10
1532331476656677 24 -2 -4 -11 -22 -15 2 -1
1532331476682607 5 2 -7 -10 3 -16 -41 -21
1532331476702553 -3 -1 -4 8 21 4 7 -9
1532331476718511 -49 -1 3 7 1 -19 -4 -1
1532331476739455 13 1 9 21 3 1 2 9
1532331476753417 -10 1 1 1 6 -7 4 3
1532331476776356 -2 1 -3 -8 2 8 -5 -4
1532331476799295 0 1 -2 -16 -9 2 14 14
1532331476830211 -19 0 -7 -24 -32 -7 -24 -5
1532331476885066 12 -7 -8 -4 3 -16 -24 -17
1532331476898031 -1 -3 -4 2 11 4 26 9
1532331476920969 -57 -4 -3 4 -2 -8 -22 -31
1532331476941913 5 -5 1 -16 -22 23 19 4
1532331476980809 1 -2 -3 4 5 -15 24 14
1532331477003748 -8 4 1 -19 0 -9 -26 -7
1532331477023695 -21 -1 -3 -13 -3 1 -10 -12
1532331477069572 11 -5 -3 -9 -10 -7 2 5
1532331477092510 -13 -5 -4 7 13 -14 2 -7
1532331477108467 -9 -2 -7 -15 -22 -22 -38 -15
1532331477121434 -30 -5 -7 -5 -5 -28 -19 -9
1532331477144372 15 22 8 6 17 24 8 8
1532331477159332 36 2 4 21 -9 24 15 20
1532331477190249 -7 -7 -2 -5 5 -19 -5 4
1532331477212190 -3 2 -2 -1 -18 -3 9 0
1532331477227150 -8 -6 16 5 38 13 -20 -11
1532331477242110 22 -5 -14 -4 3 21 12 5
1532331477264052 -14 0 2 -3 -4 4 4 -3
1532331477279012 -8 -1 -7 -2 -11 2 9 1
1532331477309929 1 4 -8 -14 -1 -8 -2 -2
1532331477323891 -9 -12 -2 -1 -9 -1 2 -3
1532331477361790 -1 8 3 3 -3 3 4 -1
1532331477384729 3 -7 -4 -8 0 2 2 1
1532331477421630 7 8 2 2 -3 -3 0 0
1532331477444569 -3 -5 0 0 3 2 0 -2
1532331477459529 2 -4 2 -3 -10 -5 -1 0
1532331477481471 0 3 -4 -1 5 3 0 1
1532331477504409 2 -3 0 1 -6 -6 -1 2
1532331477542307 -2 11 -8 -17 -32 -26 -11 -8
1532331477564255 -3 -4 -1 2 50 18 7 9
1532331477586189 -1 -18 6 2 -3 2 4 1
1532331477602147 -2 5 -6 -7 51 -2 -2 -1
1532331477624088 0 -2 -3 4 0 0 -3 -3
1532331477640050 -3 -18 -6 -4 -20 -5 1 -2
1532331477661988 5 8 4 -1 -47 -1 0 -2
1532331477684926 0 9 2 8 18 1 -1 -2
1532331477714846 -1 4 -3 -17 -63 -6 -3 -1
1532331477721826 1 2 -3 7 35 5 1 -1
1532331477752744 -1 -6 1 0 1 -3 1 0
1532331477768701 -13 -23 -8 4 14 4 -2 -1
1532331477781667 0 2 -9 -16 5 -2 -1 -1
1532331477804606 0 4 7 -3 -20 -2 0 -2
1532331477820563 5 9 6 6 25 2 2 2
1532331477841507 7 4 1 -10 -31 -1 1 1
1532331477864446 4 -2 3 8 2 -9 -2 -3
1532331477878408 -5 -3 4 10 11 3 0 1
1532331477910323 -4 6 -2 -8 -16 -2 0 -1
1532331477924286 -6 -6 1 -4 -35 1 -2 -4
1532331477954206 1 4 -6 0 17 0 0 -1
1532331477970163 -2 -15 -3 2 26 -3 -2 -1
1532331477985123 0 -10 2 24 -3 -6 -1 -1
1532331478007064 6 9 -8 -24 -58 -2 -4 0
1532331478045960 0 11 0 -3 0 -3 -3 -2
1532331478051944 -7 -17 -2 -5 -10 -8 -3 -3
1532331478075880 -6 -12 -6 -5 -4 -2 -3 -5
1532331478081864 -5 -5 -9 -16 -49 -3 -2 0
1532331478119762 -1 -7 9 4 11 1 3 2
1532331478126744 2 8 -1 -1 2 0 -2 -1
1532331478167635 -12 -19 -10 -15 -57 -5 -3 -4
1532331478179603 2 6 -2 11 65 6 2 1
1532331478195560 -6 -21 -5 -18 -65 -6 0 1
1532331478217501 6 26 2 11 29 2 1 2
1532331478232460 2 -1 1 8 49 -3 4 6
1532331478247421 -8 -12 -16 -20 34 4 -5 -6
1532331478270373 5 18 -3 -13 -101 -8 -1 -1
1532331478284323 2 30 12 1 -11 2 0 -2
1532331478315245 0 -7 -2 1 4 2 1 0
1532331478344162 -5 -19 -5 1 58 -10 -5 1
1532331478367101 5 16 8 16 24 7 5 -4
1532331478390040 6 -28 4 -2 -6 6 2 7
1532331478428936 -5 -6 3 28 53 10 3 -1
1532331478441901 6 11 2 13 10 -1 -2 -2
1532331478481795 -7 -4 3 -7 5 -6 -3 -4
1532331478511713 8 10 -4 -15 -2 -5 -5 0
1532331478532657 4 19 0 6 9 -1 1 4
1532331478547619 6 11 0 1 -10 1 2 7
1532331478561580 -2 30 2 2 -2 -1 -1 1
1532331478584520 0 -11 2 -7 -34 0 0 0
1532331478607457 -3 -1 -2 -18 -77 -13 -2 -8
1532331478654333 -5 15 -1 -12 -46 -7 0 1
1532331478669293 6 -2 1 4 13 21 11 0
1532331478706205 1 -2 -2 6 30 -6 1 -4
1532331478735116 1 7 1 7 42 1 -4 2
1532331478750076 -1 -1 -5 -21 -8 -6 -4 -6
1532331478773015 -5 17 6 3 -63 -9 1 -2
1532331478787975 2 5 3 4 6 -5 -1 -3
1532331478808919 15 35 1 -2 -27 -3 -1 1
1532331478823880 40 0 -2 1 -4 4 -3 6
1532331478862774 -8 14 -4 -4 -22 -4 -2 -4
1532331478892695 -6 -3 4 4 7 1 2 1
1532331478907655 -7 -11 -3 0 4 0 -1 -6
1532331478921618 -6 0 -5 -3 1 -2 3 -1
1532331478944556 -3 -5 1 4 20 1 2 -2
1532331478982454 -4 -4 3 2 -18 -4 -3 -2
1532331479013372 -5 -2 -3 0 6 -1 -1 -3
1532331479050273 -2 -3 -1 -1 0 -11 0 -1
1532331479064242 1 -1 6 -3 -17 -1 -4 0
1532331479087174 0 -2 -4 0 -3 -3 5 0
1532331479110113 0 2 -3 -4 -7 -1 -1 -2
1532331479139037 1 -5 -4 -1 -2 -2 -3 0
1532331479177932 -3 -3 0 0 3 7 0 0
1532331479183916 1 0 0 1 4 12 1 -1
1532331479207852 0 -2 -1 -2 7 -3 -3 -1
1532331479229793 0 -3 0 -2 -1 -3 -1 0
1532331479243756 -3 -1 -3 -1 2 -3 1 -2
1532331479259712 0 -1 -1 -2 -1 -5 -2 -1
1532331479297627 -2 0 0 -3 -6 -2 -1 -2
1532331479303596 -1 0 -1 -1 -5 -3 -1 0
1532331479329527 1 1 -1 -3 0 -2 -1 1
1532331479357454 2 0 3 -1 1 -2 0 0
1532331479380390 2 1 4 -2 -2 0 -1 1
1532331479396348 -2 -3 -6 -4 2 -2 -2 -1
1532331479411308 0 -1 -5 -3 -4 -2 -3 -3
1532331479434246 -1 -1 -4 0 0 -2 -1 0
1532331479449206 -1 -2 0 3 1 0 -1 -1
1532331479472144 0 1 3 1 -1 2 0 1
1532331479500071 -1 -2 0 1 -2 -1 -2 -2
1532331479524019 -2 0 0 1 -1 0 -2 1
1532331479535974 -1 -2 1 -2 0 -2 0 -1
1532331479567889 -1 1 0 -1 -4 -2 -2 -4
1532331479605787 0 -2 0 1 0 1 0 0
1532331479651665 -1 -4 -4 -3 -2 0 1 -1
1532331479672608 -3 -1 -3 -2 2 -2 -2 -1
1532331479687569 -2 -1 1 -4 -1 -1 -1 1
1532331479710507 0 -1 -3 -4 -3 -2 -1 -1
1532331479747412 -1 0 0 3 -1 -2 0 -1
1532331479777328 -1 -1 2 3 0 0 -2 -1
1532331479783313 2 1 1 -8 -4 -2 0 2
1532331479808245 0 -2 -1 -1 3 1 -2 0
1532331479830203 -2 0 -2 -5 -3 1 1 -1
1532331479860107 -2 -1 0 -1 1 1 -2 -1
1532331479900998 0 -1 -1 0 3 -2 0 -1
1532331479920945 0 -1 0 -4 -1 0 -2 -1
1532331479940890 -1 -1 0 -3 0 -1 1 -1
1532331479971808 -2 -4 -2 -2 1 -2 0 -1
1532331480017685 -1 -1 1 8 6 -1 1 -2
1532331480054587 -2 0 -3 1 1 -1 -2 -3
1532331480100464 0 -3 1 -1 1 -2 -1 -1
1532331480160308 0 0 -2 -7 -1 0 1 0
1532331480173269 -1 -1 -1 -2 2 -3 0 0
1532331480199200 0 -1 -1 1 5 -2 1 0
1532331480234120 -3 0 -2 -3 -12 0 -1 0
1532331480252059 0 -2 0 1 3 0 0 -2
1532331480274007 0 -2 -1 0 -5 -1 -1 -2
1532331480300927 -1 0 -2 1 0 2 -1 0
1532331480332842 0 -1 -1 -2 -5 -1 0 -1
1532331480355781 -1 -2 -1 -1 5 1 2 0
1532331480385701 1 -1 -1 5 4 -3 -2 -1
1532331480399664 -1 0 -1 -1 -7 -2 1 -1
1532331480415621 -2 -3 0 2 22 -2 -1 0
1532331480439557 0 -1 1 -1 13 3 -1 0
1532331480475460 -1 -3 -1 -4 -10 -3 -2 0
1532331480491434 -2 -1 -1 -3 -23 -4 0 -3
1532331480514357 0 -2 0 4 14 2 -3 -1
1532331480541285 -1 0 -2 1 5 2 0 0
1532331480559237 -1 -2 -1 -7 -39 -7 -1 -3
1532331480574210 0 1 1 0 -10 1 0 0
1532331480597135 -2 0 0 -2 -24 -6 0 -2
1532331480612096 -2 0 -1 -1 -7 -2 1 -1
1532331480634047 0 13 -3 -3 2 0 -3 -2
1532331480654987 -4 -17 -6 -4 -20 -6 -2 -2
1532331480671935 1 -7 -4 0 18 8 2 2
1532331480706842 4 20 1 -6 -4 -1 -2 3
1532331480729816 -29 -11 -14 -16 -6 -9 -6 -60
1532331480758703 2 -3 2 10 43 7 4 9
1532331480782639 5 -3 -3 4 -10 -6 3 25
1532331480812559 -2 -7 -2 1 15 0 -3 0
1532331480835498 4 -2 2 10 43 4 0 8
1532331480863423 0 2 -1 -15 -55 -10 -1 1
1532331480902319 -2 -4 0 -2 -18 -4 -2 -9
1532331480916282 1 4 1 -6 -2 -37 -7 -1
1532331480955178 1 3 0 -3 16 -2 -1 5
1532331480993076 0 1 -1 -6 -4 3 -1 11
1532331481015018 -3 -1 0 0 20 3 -3 -8
1532331481028980 -2 -5 -6 -17 -41 -6 -3 -5
1532331481051918 0 0 0 2 -5 -7 -2 0
1532331481074858 1 -2 1 6 43 4 1 -3
1532331481095801 -4 -3 13 6 -19 -17 -9 -10
1532331481142676 1 2 11 15 50 17 0 -4
1532331481172596 -1 -6 -9 -15 -17 -24 -8 -6
1532331481194537 -9 -1 -2 4 -5 -12 -3 -10
1532331481208500 1 -1 -8 -24 -10 -1 -7 9
1532331481255375 1 -1 -1 4 16 5 8 8
1532331481268340 2 0 3 8 -15 -16 3 -1
1532331481285295 -3 1 0 7 14 8 -3 0
1532331481298259 -1 -3 2 7 12 -7 -2 2
1532331481321198 4 1 1 -17 -74 -5 0 15
1532331481339151 0 -1 -1 10 -14 -7 1 12
1532331481375054 4 1 3 5 -80 -1 -1 -3
1532331481389017 -2 -5 -3 0 28 8 1 -9
1532331481397994 2 -2 -1 -16 9 -7 -2 3
1532331481433896 2 5 5 -2 -65 -32 -9 -13
1532331481472793 -1 -3 5 15 42 16 8 6
1532331481494735 0 -4 -6 -5 17 -14 -5 -1
1532331481508697 -1 -1 -4 5 9 6 -6 4
1532331481554574 3 3 -2 -4 26 4 7 -10
1532331481562556 -4 -2 -3 -9 -2 -6 4 4
1532331481600452 -5 -2 -8 -5 34 0 -3 -20
1532331481653310 0 -2 -2 0 -18 1 0 0
1532331481674254 -2 -2 -3 -5 5 10 -5 -4
1532331481704174 -1 1 -3 -7 -54 -8 -8 -14
1532331481749054 1 -6 -6 3 -7 0 5 19
1532331481771993 1 1 -2 3 29 9 14 4
1532331481795928 -5 0 -1 -5 -1 1 -4 -9
1532331481841806 1 1 5 6 61 0 2 8
1532331481854771 -2 -1 -4 -4 -55 0 0 1
1532331481891673 -5 0 -2 0 39 -1 0 -14
1532331481914616 2 0 4 4 -18 -2 2 1
1532331481968467 -1 2 2 -2 -69 -11 -5 -4
1532331481982430 -10 -1 1 5 10 0 -1 -15
1532331482012349 -1 -1 2 -9 -31 -7 -6 -1
1532331482071192 11 -5 -4 4 30 4 -13 13
1532331482118067 -7 -17 -9 -7 34 -2 -1 4
1532331482140009 -4 -14 4 9 16 4 5 1
1532331482192867 -19 4 0 2 -7 -1 1 -42
1532331482199848 4 -2 -4 -2 13 4 4 16
1532331482244728 3 8 1 1 -1 -3 -7 1
1532331482267667 -3 6 1 1 20 2 -7 -11
1532331482327507 6 -3 -4 -3 -26 0 9 15
1532331482350445 1 -1 -1 -1 18 0 -7 -4
1532331482404314 -1 -1 -4 -7 -35 -1 4 -2
1532331482425245 3 -3 -4 -3 3 -2 -4 7
1532331482500045 -1 2 0 0 8 0 -1 -1
1532331482582824 -24 -7 -5 1 -1 -10 2 -6
1532331482604765 3 1 14 24 13 -16 -8 0
1532331482642664 -1 -1 0 14 13 1 -1 0
1532331482694525 0 1 -3 -5 0 0 1 1
1532331482740403 1 2 0 7 -6 -9 -2 0
1532331482814213 -2 -2 -2 -7 -10 2 -1 0
1532331482830165 0 0 -1 3 3 -3 -1 -1
1532331482847122 -2 -2 -2 -2 0 2 0 -1
1532331482870056 -2 1 -1 -2 -13 -7 -3 -2
1532331482884018 -2 -2 0 13 -1 0 -2 -1
1532331482913939 -1 1 -1 -4 4 1 0 0
1532331482933885 -1 0 0 -5 13 3 0 0
1532331482948845 -2 -3 -4 -14 -1 4 -1 -1
1532331482979761 0 -2 0 -4 -12 4 0 0
1532331483002700 0 1 0 4 27 1 0 0
1532331483024642 0 0 -2 -1 -4 -3 -3 -2
1532331483077501 -2 0 1 -3 -4 2 0 1
1532331483100439 1 1 0 2 -5 -3 -1 2
1532331483113404 -5 -3 -5 -12 -51 -9 -2 -4
1532331483145319 -1 -1 -3 2 14 13 0 -1
1532331483160279 0 0 -1 1 -1 -1 -1 -3
1532331483182221 0 0 -1 -3 -18 -6 -2 -4
1532331483227100 3 -4 -2 -4 -5 -4 -1 5
1532331483250039 1 1 0 -1 -7 1 3 3

1532331483279959 -3 0 0 0 12 1 -5 -9
1532331483293925 1 0 -1 3 28 0 5 6
1532331483317858 -3 -2 -1 -2 -42 -10 0 -3
1532331483339799 4 0 0 2 11 -6 -3 6
1532331483353762 1 -1 -1 -2 -4 9 -1 -4
1532331483399639 -1 1 -1 0 15 3 2 2
1532331483413601 -2 -2 1 0 8 1 -3 -7
1532331483459479 1 0 -1 1 -3 -6 0 0
1532331483490396 0 0 0 0 11 -7 1 -1
1532331483527298 -1 0 -1 0 0 0 -3 -5
1532331483550236 -1 -2 -1 -2 -4 2 0 -2
1532331483581153 -1 -1 1 1 -1 -6 -1 -4
1532331483594118 -3 -2 -2 -1 4 -3 0 1
1532331483617057 0 -1 0 -1 -4 6 -1 2
1532331483641001 -3 -3 -3 -4 -6 -6 -1 1
1532331483662934 -1 1 -3 -2 1 -2 -2 1
1532331483678916 -1 1 2 0 6 5 -2 -3
1532331483699850 0 -2 -2 -3 -5 -4 -8 -6
1532331483721777 -1 0 -1 1 5 -2 2 2
1532331483744715 0 -2 0 -2 -4 -3 0 -2
1532331483767654 -1 -1 -1 1 -2 -1 1 -2
1532331483781617 -2 0 -1 -3 -8 -10 -2 1
1532331483805552 1 -1 -1 -1 0 0 1 -4
1532331483819516 -1 -1 0 -1 0 0 -1 -2
1532331483841457 -1 0 -2 -2 -1 -1 -1 -2
1532331483856432 0 -3 -3 -1 -3 -1 2 0
1532331483879355 -1 -1 -1 0 -5 -3 0 0
1532331483902294 -1 -1 -2 -3 0 1 -1 -4
1532331483925233 0 -1 -1 -1 -1 0 -1 2
1532331483940193 1 0 -1 0 -1 -1 -4 -2
1532331483979089 -2 0 -2 -2 -3 -3 -1 5
1532331483992054 -2 0 -3 -2 -2 0 1 1
1532331484008012 2 -1 -2 -2 1 -2 1 -3
1532331484036934 0 -2 0 0 -1 -2 -2 -2
1532331484058875 -2 -2 -1 -2 2 5 0 -2
1532331484081814 0 -2 -1 0 -1 1 0 2
1532331484098769 -1 -1 -1 1 0 -3 0 -2
1532331484134672 0 0 0 -1 -2 -2 -3 -3
1532331484141653 0 2 -2 -1 -2 -2 -3 -2
1532331484164593 0 -3 0 -1 -1 0 2 6
1532331484179552 -2 -1 0 0 0 -2 -2 -2
1532331484202491 -1 0 -2 1 0 -2 -2 -6
1532331484216454 0 0 -2 -2 -1 -2 -1 -3
1532331484239392 0 -1 1 -1 -3 -2 -1 -2
1532331484262331 -1 -1 -2 -3 -2 1 -1 -2
1532331484284273 1 -1 -1 0 0 0 0 0
1532331484299233 -1 1 0 -2 0 1 -1 -2
1532331484344112 -2 0 -1 -1 -1 -2 -2 -2
1532331484382011 1 1 -2 1 -1 0 -1 0
1532331484404949 0 -1 -3 -1 2 6 -1 -1
1532331484426891 -1 -1 -1 4 24 12 -1 0
1532331484441850 -1 -1 1 -3 4 -3 1 1
1532331484466785 -1 1 2 -6 -39 -14 -2 -1
1532331484501691 -1 -1 -1 21 38 8 0 -3
1532331484516651 -2 0 1 11 -1 13 -2 -4
1532331484539590 -2 -3 -1 -6 -2 3 4 -3
1532331484561531 -5 -5 -5 -3 -13 -1 4 2
1532331484585467 -1 -6 -7 -7 -15 -3 -12 1
1532331484599429 1 3 2 -3 6 -3 1 1
1532331484621370 -3 5 1 0 -3 -1 -1 -4
1532331484652288 3 -1 4 8 17 2 7 11
1532331484682208 -21 -11 -1 0 13 6 -7 -9
1532331484705147 -4 5 1 -1 -11 3 -1 4
1532331484752022 -69 -3 3 -1 -14 8 -18 -35
1532331484772965 7 -8 -15 -20 -11 -20 -16 -8
1532331484809866 35 6 -4 -3 3 -18 -13 -11
1532331484824826 -16 -1 1 -14 -4 -1 -13 -17
1532331484861728 -7 -7 -3 -4 2 1 -2 -6
1532331484892659 15 2 -2 8 9 9 -4 12
1532331484899626 -18 -3 -1 -5 -12 -1 3 -14
1532331484930543 22 2 -3 -10 -21 -27 9 5
1532331484945503 18 5 -7 -4 -7 6 14 9
1532331484959466 -24 -4 -1 8 15 7 -5 4
1532331484981408 -25 -12 -6 -15 -9 -13 3 -5
1532331485004346 15 0 3 4 -4 13 -9 0
1532331485042245 -5 -4 1 -8 -14 -5 -8 -15
1532331485065183 25 4 4 12 10 7 17 4
1532331485102085 11 0 -2 22 -12 -4 8 10
1532331485132004 -5 2 -5 -29 2 -3 0 5
1532331485141978 25 -17 -13 -9 -5 -21 -4 -2
1532331485169903 -16 -5 -2 -3 4 -10 -11 -12
1532331485183866 7 9 2 -7 3 2 0 10
1532331485221765 -3 4 1 5 -2 8 10 1
1532331485244703 -13 4 -1 8 -12 2 -9 -9
1532331485258666 -23 -9 1 9 0 -10 0 -6
1532331485289584 5 0 -7 -12 -7 -3 16 6
1532331485328479 11 11 1 0 -1 2 11 3
1532331485341444 -5 -3 -2 -7 3 -1 -4 0
1532331485372361 1 -2 2 11 6 -10 -8 -5
1532331485402281 -12 -10 -4 2 3 2 -9 -7
1532331485425220 6 1 1 6 3 2 2 1
1532331485447162 -1 -4 0 -4 2 3 -2 -2
1532331485486057 -3 -9 -5 -6 -4 -1 0 0
1532331485499023 -2 -4 -6 -5 0 3 1 -1
1532331485521962 -1 -3 2 0 0 -2 1 3
1532331485544900 3 1 3 11 0 0 -1 -3
1532331485567839 0 5 -1 6 4 1 -1 -1
1532331485589780 -5 -3 -5 -10 -3 -2 -1 -2
1532331485604740 10 21 -2 -5 -1 -1 -7 -2
1532331485650617 -2 -5 -3 0 -4 0 -1 -2
1532331485695497 -5 -10 -1 -2 -5 0 1 0
1532331485709460 -2 -5 1 3 10 -2 0 -2
1532331485725417 -4 -4 -2 -3 2 -4 -1 -1
1532331485747370 2 6 2 -2 0 -1 1 0
1532331485801215 -2 -4 -3 0 1 0 -1 0
1532331485807198 -2 0 1 0 6 -4 -3 -1
1532331485831135 -2 -2 -5 -8 -16 -5 -2 -2
1532331485868036 -3 -1 -1 -2 3 0 -1 -1
1532331485881999 -1 -1 -1 3 15 3 1 -2
1532331485912916 -1 -7 -1 -1 -19 -9 0 0
1532331485927876 -1 -3 1 3 21 3 -1 -2
1532331485949817 2 2 -2 0 22 2 -2 -4
1532331485964777 -2 -6 -3 -5 -17 -2 -1 0
1532331485987716 -2 1 -3 -3 -21 -2 1 -1
1532331486027609 0 -2 -1 1 -6 -2 -2 -2
1532331486038579 -1 0 -2 -2 2 -1 -1 -1
1532331486056542 1 0 4 3 12 3 -2 0
1532331486107396 -2 -3 -2 0 4 3 0 0
1532331486121358 -3 0 -2 -7 -15 -7 -2 -2
1532331486137316 -1 -3 -2 1 4 0 0 0
1532331486175214 3 1 3 5 -4 1 -1 1
1532331486189177 -3 -6 -9 -16 -15 -4 -7 -4
1532331486205134 -2 1 -4 -1 -12 -5 0 0
1532331486227075 0 0 -1 -9 -65 1 0 -1
1532331486241038 -4 -5 -1 7 14 -2 1 -2
1532331486255997 1 0 1 6 7 -1 -2 -2
1532331486294893 -6 -21 -6 -9 -7 3 0 -2
1532331486317832 1 4 5 14 22 4 1 2
1532331486324814 10 28 2 12 14 0 -1 1
1532331486371689 4 7 -2 -5 -3 -8 -5 -5
1532331486384669 -1 -6 -3 3 -49 -5 -1 -1
1532331486423550 -4 4 6 12 10 -3 -3 1
1532331486452484 2 9 3 -4 31 2 -1 -2
1532331486481395 -9 -30 -3 10 40 -4 -2 -2
1532331486504334 -5 -5 -3 3 33 3 -1 -4
1532331486527272 -7 -19 -8 -9 -16 0 -2 -2
1532331486558190 1 -4 0 7 12 1 -1 1
1532331486579133 4 7 6 9 14 -5 -2 -2
1532331486618030 -2 9 -2 -15 -83 -10 -1 -2
1532331486624014 3 6 0 -4 -7 6 1 -1
1532331486662910 -15 -23 -1 7 -23 0 1 -2
1532331486683853 3 -11 3 0 -24 -5 -2 -3
1532331486714771 -3 -4 2 15 4 1 1 1
1532331486752669 -7 27 5 2 15 4 -4 -7
1532331486768627 2 -68 -12 -11 -9 1 1 16
1532331486797550 -5 -24 -7 -8 -37 -6 3 0
1532331486829478 23 47 12 15 8 0 0 4
1532331486833453 -3 42 2 -25 -40 -9 -4 -7
1532331486859384 5 23 -3 8 56 11 -4 -12
1532331486874344 -25 -21 -6 15 121 9 -3 -40
1532331486889310 18 47 4 -6 -36 0 -4 6
1532331486911245 -20 -9 -3 5 -2 -2 6 -20
1532331486962109 -13 -32 -4 -7 22 1 -4 0
1532331486976072 -9 -8 -1 -5 -67 3 -5 -5
1532331487007987 7 -10 7 4 -22 1 6 10
1532331487043891 16 34 4 6 13 4 9 7
1532331487059848 1 -27 1 -11 -74 -13 -4 1
1532331487105725 -21 -23 -9 -12 -30 -13 1 3
1532331487127666 -7 -17 -6 0 33 5 0 6
1532331487141628 2 -1 -2 14 68 4 -5 -29
1532331487180524 -3 -5 0 4 8 -3 -3 4
1532331487210445 -3 -5 1 11 17 4 1 -4
1532331487249341 -4 -6 1 -9 -29 -8 -4 -6
1532331487272279 3 8 -1 -5 -24 -2 3 1
1532331487293224 3 8 -2 1 7 -3 1 -7
1532331487321149 4 14 10 12 34 3 1 7
1532331487368024 0 2 -3 -3 4 1 2 4
1532331487389965 -4 1 0 0 -19 2 2 1
1532331487412904 -20 -3 -5 0 17 28 -4 -4
1532331487436840 16 -1 -3 0 -5 -24 -4 5
1532331487472743 8 4 -2 0 6 -8 -2 -1
1532331487511640 0 -1 0 -2 -6 -13 -3 0
1532331487525602 1 -2 0 0 -3 -15 -4 -2
1532331487548541 2 1 1 1 -1 -5 0 2
1532331487586440 -1 -2 -4 -1 -4 1 -3 -2
1532331487602397 -2 -2 0 2 2 7 1 1
1532331487607383 0 -1 -1 0 8 5 0 0
1532331487653260 0 -1 -1 -5 1 -1 -1 0
1532331487681194 -1 0 0 4 3 3 1 1
1532331487727063 -2 -3 -3 -2 -19 -6 -3 -3
1532331487757980 -1 0 -2 -1 0 2 -2 0
1532331487809842 0 2 0 -2 -31 -6 -1 0
1532331487847754 -2 -1 0 1 2 -3 0 -1
1532331487899601 0 -2 0 0 9 4 1 1
1532331487915559 -3 -3 -5 1 -2 -4 1 0
1532331487966423 0 -1 -1 -1 -14 -3 2 1
1532331487997340 0 -1 -1 0 10 0 -2 -1
1532331488035238 2 0 5 1 11 3 3 2
1532331488050199 -2 -2 0 1 4 -8 1 -1
1532331488086103 -1 -1 -2 0 -8 -13 -2 -1
1532331488103057 -1 -1 0 -2 14 10 0 -1
1532331488139958 -2 -2 -4 -9 -10 -1 0 -2
1532331488169878 -1 -1 -1 2 -4 9 1 -1
1532331488237697 0 0 -1 -5 -14 16 3 1
1532331488275596 -1 -2 -4 -2 -13 14 3 0
1532331488312497 0 0 -2 0 1 -2 2 -1
1532331488342417 -1 -1 0 -6 -9 -1 -1 1
1532331488386299 -3 -4 0 -2 6 -3 -2 -3
1532331488432177 0 -1 -1 0 -6 -9 -5 -3
1532331488455115 -2 0 0 8 17 3 2 1
1532331488514956 -1 -2 -3 -7 7 16 -2 -1
1532331488574795 -2 -1 1 5 -4 -3 -4 -2
1532331488589755 -2 -2 -3 -5 -14 -6 2 1
1532331488656576 -1 -1 -1 2 -20 -2 -2 -1
1532331488716416 -3 -2 -2 3 14 7 0 -2
1532331488746336 0 -2 0 -4 -30 -2 1 0
1532331488792214 -1 -1 -2 -8 -11 -15 -1 -1
1532331488829115 -1 -2 -2 0 2 3 0 0
1532331488888967 -2 -2 1 7 8 8 -1 -1
1532331488957771 -1 1 1 -3 4 -1 -1 -2
1532331489038555 -1 -2 0 -1 -15 -7 -1 -3
1532331489056507 2 2 2 -2 -10 1 1 -1
1532331489115350 1 0 -1 -9 -2 1 1 -1
1532331489129312 -5 -8 -9 0 -8 2 -1 -3
1532331489160230 0 -3 -6 0 -3 0 -1 0
1532331489175189 -6 -2 3 -2 2 -1 -3 -2
1532331489212091 -6 -14 1 1 5 0 -1 3
1532331489243008 -3 5 0 -3 -12 -3 -7 -41
1532331489248992 -1 -10 -2 -2 -3 0 3 10
1532331489272928 3 2 4 -3 -6 0 2 11
1532331489294869 2 0 -6 1 15 0 0 -4
1532331489317808 -3 -7 -1 5 13 0 1 -6
1532331489338752 2 -1 2 2 -5 -5 0 10
1532331489356719 2 -2 -3 -3 -11 -3 -2 1
1532331489383632 1 4 -1 0 3 -1 -3 2
1532331489398592 3 -14 -2 -1 -4 0 -4 4
1532331489417541 -3 5 -2 -3 -25 -2 -1 20
1532331489439482 -2 -4 -2 -2 7 -2 2 -7
1532331489466410 -3 3 2 0 -22 -4 5 6
1532331489476390 -4 -1 2 2 12 2 -4 -5
1532331489499322 -4 -1 -5 -10 -29 -4 -5 -15
1532331489527247 1 -12 -2 -3 -10 -6 -3 -3
1532331489541210 -7 -14 -3 1 7 1 -3 -18
1532331489559161 2 13 3 8 35 6 0 6
1532331489595067 0 2 -2 -1 -7 0 0 -3
1532331489617007 0 -3 1 -4 -1 0 2 7
1532331489624986 -1 2 -1 1 8 8 1 1
1532331489701780 -3 -5 -3 -5 -24 -2 -2 -6
1532331489731701 -1 0 -6 -1 -17 -3 -1 -3
1532331489738683 -1 -6 -4 1 8 2 1 -4
1532331489760624 0 6 -3 -2 -12 5 -2 -2
1532331489784559 -1 -6 -2 6 -12 -16 -2 -6
1532331489806519 3 0 0 1 39 13 1 -7
1532331489821461 0 1 4 -1 -8 -10 -6 0
1532331489836421 -2 -4 -10 -1 4 10 1 0
1532331489866340 3 12 -3 -16 -5 7 0 10
1532331489880303 -1 -4 4 1 -24 -2 2 -2
1532331489903255 -1 4 -1 -1 6 -1 -1 -10
1532331489942138 -5 -14 1 6 8 2 4 5
1532331489946127 -1 11 -9 -28 -23 -13 -5 0
1532331489978042 0 4 2 14 45 3 0 1
1532331489991007 0 -16 6 11 -1 0 -4 7
1532331490007965 -5 -16 1 1 -12 -4 0 2
1532331490037881 -4 0 -3 -8 -50 -7 -2 -4
1532331490050847 8 45 6 5 -16 -1 -1 2
1532331490082761 0 7 2 4 -10 5 3 12
1532331490097722 -3 6 -5 -12 -38 -2 -7 -10
1532331490134623 13 4 -1 7 40 1 1 31
1532331490157561 8 34 1 -12 -27 -5 -5 -21
1532331490180499 -7 -17 -2 -5 10 3 -1 -10
1532331490202441 -4 22 0 7 33 -1 -1 -7
1532331490217401 5 -3 1 -4 -25 -8 -5 -4
1532331490240342 -1 -19 -9 -5 9 1 -1 -3
1532331490261284 6 15 -3 -25 -40 -7 -3 -5
1532331490286217 4 -3 -3 -9 -18 2 6 13
1532331490322121 -5 -12 -4 -5 -6 -1 3 -4
1532331490337083 -7 -13 -4 -11 -38 -7 -3 -10
1532331490360020 3 2 2 10 28 2 0 7
1532331490373982 2 3 -1 2 10 -3 -5 -1
1532331490397918 1 4 3 3 15 4 -9 -8
1532331490442798 0 -1 -2 2 -1 0 1 0
1532331490457758 0 15 -2 -3 -7 -4 -2 -5
1532331490479700 7 19 7 -11 -9 3 3 5
1532331490494659 -7 -12 1 6 6 -2 6 5
1532331490517598 -5 -7 -1 7 21 4 2 -5
1532331490547518 -1 -15 -7 -6 -22 -2 -6 -1
1532331490561481 6 25 5 11 21 1 5 -1
1532331490587412 0 -14 -2 -1 -39 2 3 7
1532331490599380 -3 0 -6 -9 -34 -8 0 8
1532331490622319 -2 -27 -4 14 42 12 -6 -3
1532331490653235 -1 -4 -1 1 37 3 -1 -4
1532331490659219 0 -7 -1 11 15 7 8 6
1532331490689144 -11 -44 4 5 3 -2 1 0
1532331490705097 6 17 7 -2 -23 -1 11 8
1532331490719059 -1 -22 -9 -16 -1 1 -8 -2
1532331490759950 0 11 3 5 6 -4 -8 -9
1532331490772915 -9 -28 -6 2 6 -5 0 -10
1532331490778899 -2 11 0 0 -3 2 -1 5
1532331490809816 -5 -20 -2 -6 -12 -3 4 -3
1532331490839751 -1 11 -1 -10 -9 3 4 7
1532331490862675 -1 -2 0 5 12 1 -2 -8
1532331490876638 -1 3 2 0 8 4 -5 -2
1532331490907560 2 -6 -8 -5 -17 -6 4 5
1532331490952435 0 -1 -5 -13 -25 -2 -1 6
1532331490967395 6 -1 -1 -2 -7 -9 -6 -13
1532331490982355 -7 -4 -4 0 -3 -3 -5 -4
1532331490997330 -6 4 3 4 -27 -2 -3 0
1532331491033219 1 -1 -3 1 26 6 -4 -4
1532331491064136 0 -1 -2 -10 -31 -8 -2 2
1532331491087088 2 14 -1 1 3 1 -1 2
1532331491133949 -4 -7 -5 -5 5 -2 -1 -2
1532331491170851 1 -2 1 7 -6 4 2 1
1532331491193791 -1 -2 -2 -25 -19 -15 3 2
1532331491229694 -21 -9 -7 3 8 -4 -2 -4
1532331491274573 4 0 0 1 -1 -4 -2 -1
1532331491290530 3 -1 0 8 3 1 0 0
1532331491327432 1 0 -2 4 -1 -3 -2 1
1532331491350373 2 2 1 1 4 0 -2 0
1532331491365331 -1 0 -1 -3 4 -7 -3 -1
1532331491379293 1 0 2 4 5 2 -1 -1
1532331491432152 1 -3 -4 0 -4 1 -1 -1
1532331491448110 0 0 -5 -15 -7 -4 0 -1
1532331491463068 -2 0 3 15 0 2 2 0
1532331491523907 1 -1 3 0 -5 -2 -2 1
1532331491536872 -2 0 2 4 -1 1 -1 -1
1532331491567789 -2 0 -1 -4 -7 -6 1 -2
1532331491604690 -1 -1 3 3 1 -2 -3 -2
1532331491627629 -1 -2 -3 -4 -9 -7 -2 -1
1532331491702429 0 -3 -2 -4 3 -1 -2 -1
1532331491716392 -2 2 0 1 -1 -4 -3 -1
1532331491747325 -1 -2 -1 1 -3 -5 0 -1
1532331491777229 0 0 -1 -4 -1 -2 -3 -2
1532331491799170 0 0 -3 -6 -3 -2 -2 -1
1532331491830087 -2 -1 1 1 0 0 -2 0
1532331491859010 1 -1 -2 0 -6 -5 -1 0
1532331491882946 -2 -1 0 -1 -3 -3 2 -2
1532331491895911 -1 -1 1 0 -1 1 0 1
1532331491942786 -1 -1 -2 -1 -2 0 -1 0
1532331491963730 0 -1 2 8 -1 -2 -2 -1
1532331492002626 -2 0 -1 -2 -7 -1 -2 -1
1532331492039527 2 -2 0 0 -1 -1 -1 -1
1532331492094380 -2 1 -2 -3 -2 -2 -1 -2
1532331492101362 0 -1 0 4 -2 1 0 1
1532331492123302 1 0 -2 0 2 -3 0 -2
1532331492136268 0 0 0 0 -1 0 -2 0
1532331492184140 -1 -1 0 -1 0 -2 -1 -1
1532331492196108 0 0 -3 -2 -4 -3 -1 -1

1532331492219047 -1 -1 -1 -5 -4 -2 1 0
1532331492249964 -1 -1 -1 -3 2 -1 -1 0
1532331492263927 -2 -1 0 1 1 0 -3 -1
1532331492302823 -2 -1 1 -2 -5 -1 -3 -1
1532331492323767 1 0 -1 0 -1 -3 -2 0
1532331492348700 -1 -1 -1 -1 1 -1 1 -1
1532331492369644 -2 -1 -2 -3 -2 -1 -3 -1
1532331492399564 -2 0 -1 1 1 -2 -1 -1
1532331492422503 0 -2 -3 -1 0 0 -2 -2
1532331492451425 0 0 -2 -3 -4 0 1 2
1532331492506278 -2 -2 2 8 1 0 2 0
1532331492520241 1 -1 0 -3 -3 -2 -1 -2
1532331492565121 -3 -1 -2 -3 -1 -2 1 0
1532331492579083 0 -3 -2 -3 -3 0 -2 -1
1532331492610001 0 -1 -1 -2 -1 0 2 1
1532331492640918 0 -2 -1 0 -1 -2 0 0
1532331492662860 0 -1 -2 -1 0 1 -1 -2
1532331492684801 -2 -2 1 0 0 0 -4 -1
1532331492699760 1 -1 -1 -1 -4 -1 -1 -1
1532331492729681 0 1 0 -1 1 -1 0 -3
1532331492745638 -2 0 -1 -1 1 -1 0 -1
1532331492766598 -1 -1 -1 1 -2 -2 -2 -1
1532331492782539 0 -1 -1 -2 -5 -1 1 0
1532331492805478 -1 0 0 -4 -2 -1 1 0
1532331492856342 -3 -1 -2 -1 -2 -4 -1 -1
1532331492887321 -1 0 0 -2 -3 -2 -3 0
1532331492902280 0 -2 -3 1 -1 -2 1 0
1532331492926216 0 -2 -1 -1 -1 -1 -1 0
1532331492963117 0 0 -1 -4 1 -2 1 0
1532331492992040 0 1 1 0 1 -3 0 -2
1532331493022957 -2 -1 -1 0 -3 -1 -2 -2
1532331493044899 -2 0 -1 -1 0 -1 -3 1
1532331493058862 -1 -2 -1 -1 -3 -1 -1 -1
1532331493097758 -1 -1 -1 -2 0 0 0 -2
1532331493118701 0 0 1 0 0 -4 -2 -2
1532331493164579 -2 -1 -2 -1 0 1 1 -1
1532331493188515 1 1 -1 -2 -1 -2 -1 -2
1532331493202478 -2 0 0 -1 -1 0 -1 1
1532331493225416 -2 -1 -1 -1 7 -2 -1 -2
1532331493255336 0 -1 1 2 6 4 0 0
1532331493270296 0 1 2 0 3 1 2 1
1532331493307204 -2 -2 -1 -1 -7 -2 -1 0
1532331493322164 -3 -3 -4 -4 -8 -6 -8 -3
1532331493353081 0 4 -4 -1 4 6 7 1
1532331493375022 4 -1 3 0 -1 1 -10 -8
1532331493389982 -1 0 2 2 1 -1 -6 1
1532331493428878 -3 1 2 3 -2 -2 5 1
1532331493464782 -39 -3 -6 -13 -66 -13 -9 8
1532331493494702 8 -5 -3 5 44 7 -3 -4
1532331493517641 -1 2 4 0 2 -4 -1 -10
1532331493547576 -6 -2 3 3 14 12 5 -6
1532331493585459 -9 -4 -6 0 11 -12 -13 -8
1532331493615379 0 -6 -6 -17 -34 2 -3 0
1532331493621364 -37 1 2 3 10 -9 -10 -11
1532331493667255 32 3 -1 0 -4 7 6 7
1532331493690180 -3 0 -2 -5 -4 9 9 -4
1532331493743038 -27 -6 0 4 -2 1 -1 0
1532331493750020 -3 -7 -2 8 0 -6 6 -2
1532331493774952 -1 1 8 20 14 0 3 5
1532331493824819 24 -2 -2 1 -5 -2 7 6
1532331493847758 -8 -5 0 7 -3 -7 -11 -8
1532331493869699 -13 2 0 5 14 11 -7 -8
1532331493923555 -8 1 -5 -3 -2 -9 12 1
1532331493967437 5 1 0 -5 -9 4 2 0
1532331493981401 5 -5 -4 4 10 -16 14 3
1532331494004339 -13 0 -10 -20 -2 -4 -1 1
1532331494027278 -5 1 -4 13 9 -3 -2 -8
1532331494072157 31 0 7 6 3 4 2 11
1532331494088114 2 -5 -4 -7 5 -19 6 2
1532331494110071 -3 -3 2 3 8 -2 -6 -12
1532331494131000 5 -1 -10 -7 -7 18 5 -3
1532331494169896 12 -2 -9 -45 -25 17 -5 -4
1532331494190840 5 -6 -7 -8 -4 6 26 31
1532331494244696 -6 -6 -17 7 -8 -21 1 -4
1532331494267634 -14 10 3 2 -1 -28 -4 -1
1532331494304560 -2 -5 0 2 -4 -11 -6 4
1532331494350413 4 2 3 10 -1 0 -8 0
1532331494378338 -4 0 -6 -10 0 0 3 4
1532331494432194 -9 -1 -2 -1 -2 0 -1 -2
1532331494447154 10 -4 -3 -16 -2 -7 -7 -6
1532331494484056 -1 0 -2 -6 -7 -5 -4 1
1532331494514973 -4 -10 2 24 15 -4 -7 -6
1532331494567832 2 7 4 7 1 0 2 3
1532331494649613 2 -2 2 3 -3 -2 -9 -5
1532331494672554 -13 -2 -6 -12 -10 -6 -6 -6
1532331494710449 2 -1 3 -4 -3 -2 3 2
1532331494732392 1 0 1 -4 5 2 -7 -3
1532331494800210 2 1 3 6 -5 -1 3 0
1532331494807191 0 2 -8 -4 19 -2 -1 0
1532331494830129 -3 -8 -5 -2 -3 0 2 -2
1532331494868035 0 6 1 -3 -18 -1 -1 1
1532331494912909 2 -13 0 4 -12 1 2 0
1532331494934849 -5 -6 -2 -4 -5 0 -2 -2
1532331494972749 -1 -1 0 1 -12 0 2 -1
1532331495023612 -3 0 1 1 14 -1 0 0
1532331495040568 -2 -2 -2 1 -2 3 -3 -2
1532331495076471 -2 0 -2 -5 -22 -3 -2 -1
1532331495106391 1 -2 3 0 8 -13 -3 1
1532331495130327 1 1 0 0 -1 5 -2 -1
1532331495160247 0 -1 1 1 5 5 2 0
1532331495197148 0 -2 -2 -8 -27 -8 -2 0
1532331495227068 -3 -3 2 2 -3 0 -3 2
1532331495271951 -2 -1 2 24 77 12 -4 -3
1532331495279926 -4 -14 -12 -4 -33 -9 -4 -4
1532331495317825 1 7 1 5 34 -1 -8 -5
1532331495332785 1 20 -4 -29 -61 -9 -5 -3
1532331495400610 10 30 4 -10 -92 -20 -1 0
1532331495406588 24 42 -3 13 42 19 3 4
1532331495452465 5 21 14 37 75 6 2 1
1532331495490364 -4 -33 -5 -6 35 -2 -3 -1
1532331495520284 -11 -39 2 13 53 5 0 -2
1532331495557185 -8 -19 4 9 21 2 1 2
1532331495572145 -4 -6 3 3 2 2 1 1
1532331495611040 -6 -16 7 5 1 -4 1 1
1532331495632982 -14 -28 -3 1 -17 0 0 0
1532331495645947 5 8 0 -4 -40 -5 -2 0
1532331495669883 -4 -1 -4 3 17 -4 -4 -4
1532331495699804 -1 13 3 2 15 3 2 -1
1532331495729723 -4 -11 -1 4 43 6 4 4
1532331495752662 -7 -8 1 3 24 2 -1 -11
1532331495775601 0 17 3 6 -18 -5 -1 -2
1532331495803526 -2 -2 -6 -8 70 -6 -5 3
1532331495821479 9 -3 0 -10 -59 -7 0 1
1532331495835441 5 19 2 -3 -28 -4 -1 -1
1532331495856384 9 13 -2 -3 25 5 -6 -5
1532331495874336 -11 -29 1 4 -28 6 4 -7
1532331495895281 27 54 1 -33 -82 -8 -1 0
1532331495932182 12 25 -5 -15 -54 -9 -3 -3
1532331495946145 4 -15 -7 -27 -38 -4 -2 2
1532331495961104 1 4 -3 10 -18 -13 3 -8
1532331495976065 -7 -1 -6 -6 18 -3 -1 6
1532331495994017 -1 -2 0 6 21 3 0 -4
