1532257486134194 -1 -1 -1 0 -2 -1 -1 0
1532257486187053 0 0 -3 -1 -2 -2 0 -3
1532257486209991 -1 0 -1 -2 -2 -1 0 1
1532257486254871 0 0 0 9 18 -2 1 0
1532257486269836 -2 -1 -1 -3 -8 -2 -2 0
1532257486306733 -2 -1 0 1 -2 -2 -1 -1
1532257486336653 -1 1 -2 -2 0 0 0 -2
1532257486351612 -2 -2 1 -3 -7 -1 -1 -1
1532257486381533 -1 -1 -1 1 1 -1 -1 0
1532257486411452 0 -1 -3 -2 -2 -1 -1 -1
1532257486449351 -1 -1 1 1 -1 0 -1 -1
1532257486517170 -1 0 0 -1 -1 0 -1 -1
1532257486547090 -2 -4 -2 -2 -1 -1 -1 -1
1532257486629868 -1 0 -1 1 -2 0 1 -2
1532257486666770 0 -1 0 -1 1 -1 -1 0
1532257486690706 -1 -1 -1 -1 -1 -1 -2 0
1532257486719629 0 1 -1 0 0 -1 -1 -2
1532257486741570 -2 -1 -1 -3 -2 0 -1 -2
1532257486771490 -1 -1 0 -1 0 0 -2 -1
1532257486794428 0 -1 -2 -2 -2 -1 1 1
1532257486824348 0 -2 -1 0 -1 -1 -2 0
1532257486862246 0 -1 -1 -2 -1 -1 -1 -2
1532257486892167 0 0 -2 -2 0 0 0 -2
1532257486907127 0 -1 -2 0 -2 -1 -1 -2
1532257486929067 -1 0 -1 -2 0 -2 -1 -2
1532257486958989 -1 -2 -2 2 -2 1 0 -2
1532257486988908 -1 -1 -1 0 0 -1 -1 -1
1532257487034802 -2 -1 -2 -2 0 -1 -2 0
1532257487056726 -1 -1 0 -2 -2 -2 -1 -1
1532257487086647 -1 1 0 0 -1 0 0 1
1532257487109586 0 -2 -2 0 0 0 -1 -2
1532257487139505 1 0 -1 -1 0 -2 -1 -1
1532257487177404 -3 -2 -1 -1 0 -1 -1 -1
1532257487192375 -2 1 -1 -1 -2 0 -1 -1
1532257487214305 0 -3 0 -2 -2 0 -1 -2
1532257487274145 -1 -2 -3 -1 -2 0 -2 -1
1532257487289106 -2 0 0 -1 -3 -1 2 -1
1532257487312044 0 -2 1 0 0 -3 -2 0
1532257487386844 0 1 -1 -1 -1 -2 2 -1
1532257487536454 0 -2 -1 -2 0 -3 -4 -1
1532257487559393 -2 2 -2 -1 -3 -1 -3 0
1532257487574353 -1 -1 -2 -1 2 0 2 -1
1532257487597290 -1 -1 1 -1 -2 1 0 -1
1532257487619233 0 0 -1 -1 0 1 -2 0
1532257487657131 -2 -1 -1 0 0 -2 -2 -2
1532257487694032 0 0 -2 1 -2 -1 -1 -2
1532257487791771 -1 -2 -1 -2 -2 -1 -1 1
1532257487904470 -2 1 -1 1 -1 0 -2 -3
1532257487949350 0 0 0 1 1 1 -3 -1
1532257487979270 0 -2 0 0 0 -1 -1 -2
1532257488024150 0 -1 0 -1 1 -1 1 0
1532257488054069 -2 -2 -1 -1 -1 1 -1 -2
1532257488083990 0 -1 -1 -1 -2 -1 -1 -2
1532257488106928 0 -3 -2 -2 -1 -1 1 -1
1532257488144827 -1 -3 -1 -1 0 -3 -1 -1
1532257488174747 0 -1 0 -2 1 -1 -1 -3
1532257488204667 -1 -1 0 -1 0 -1 -1 0
1532257488241568 -1 -2 0 0 -1 -2 -3 -1
1532257488369231 -1 0 -2 -1 -3 -1 0 -2
1532257488444027 -2 0 -1 -1 -1 -2 -2 1
1532257488497928 -1 0 -1 -3 -1 -2 0 0
1532257488534830 1 -2 -1 0 0 -1 1 -1
1532257488586690 -1 -1 0 -1 -3 0 -3 -3
1532257488661491 -2 -1 0 0 -1 -1 0 1
1532257488714349 -1 -1 -2 0 -1 0 -1 0
1532257488842028 -3 -1 -3 -6 -9 -10 -4 -2
1532257488924806 0 0 1 1 -2 5 1 -2
1532257488984647 1 -1 -1 -13 -9 8 2 0
1532257488999606 0 0 1 6 15 -7 7 2
1532257489044487 -1 0 -1 -7 23 1 -1 -2
1532257489089366 -1 2 5 14 -3 -17 -1 0
1532257489142225 0 1 -2 2 -6 -9 0 -1
1532257489157185 -2 4 2 7 -60 -1 0 0
1532257489202065 1 -1 4 6 4 -4 0 1
1532257489224006 -1 -8 -10 -6 -23 1 -5 -2
1532257489329723 1 6 -1 -15 -23 5 -1 0
1532257489389564 -2 -16 -2 8 10 -6 0 -1
1532257489441425 -1 -6 -4 -8 -5 4 -3 -3
1532257489554124 1 15 8 7 4 -2 1 0
1532257489644881 2 21 -7 3 2 15 -1 0
1532257489658844 -2 0 -5 -2 -3 -1 0 -1
1532257489696742 -1 -4 20 -3 5 -1 6 -1
1532257489719680 0 7 3 -5 -23 -10 -10 1
1532257489734641 -1 -7 -9 -2 8 10 4 0
1532257489764560 -3 -14 2 -4 1 20 -14 -9
1532257489801462 1 -5 -10 0 0 3 11 3
1532257489816422 0 -7 1 -13 -13 -9 0 2
1532257489869281 -3 2 -1 6 41 -17 -5 1
1532257489937100 -2 0 1 -8 -4 7 -3 0
1532257489996940 -1 -11 -18 -5 0 7 3 -1
1532257490026859 -3 0 5 4 -3 -38 0 -3
1532257490041820 -1 -6 -4 0 -2 15 -7 -4
1532257490056780 1 4 -1 -5 2 0 -2 -1
1532257490101659 -2 4 0 1 -1 30 -16 -5
1532257490146549 0 1 1 -5 -16 -6 10 2
1532257490214368 -1 -4 -3 -4 6 4 -9 3
1532257490267226 0 -4 -11 -2 11 -2 -6 -4
1532257490327067 1 -5 -4 1 11 5 0 -1
1532257490356986 -2 0 2 -1 -5 -1 -2 0
1532257490386907 -2 -1 -3 -4 -8 -3 0 0
1532257490439765 -1 0 -3 -5 0 1 -1 -3
1532257490521546 0 0 1 4 -1 -1 1 3
1532257490544485 -1 -2 3 3 -1 -1 -2 -7
1532257490574405 -1 -2 0 2 -3 -1 -2 -3
1532257490589365 -2 -2 -4 -5 -2 -2 -1 -2
1532257490642224 1 3 7 18 7 0 0 3
1532257490724005 -2 -2 0 -3 -1 -2 -1 -3
1532257490753925 1 0 -1 -6 2 -1 -1 0
1532257490791824 1 -2 -6 -2 -1 3 2 -2
1532257490829722 2 -1 -2 -2 0 -9 -2 -1
1532257490889562 -3 -1 0 9 0 -3 2 -2
1532257490919482 -1 -1 -2 -5 -6 2 1 -2
1532257490964362 0 -2 -8 -1 12 41 -5 1
1532257490979322 5 6 3 4 2 -6 5 3
1532257490994298 -2 -4 -3 0 1 46 3 -3
1532257491024201 -4 -4 16 7 22 36 -3 -5
1532257491039162 0 5 2 -7 -6 13 -6 -4
1532257491092033 0 -7 -2 12 16 -60 -4 -1
1532257491136900 2 3 3 -2 -6 35 20 4
1532257491158842 -1 1 -10 5 5 54 45 0
1532257491181781 -1 -1 -4 -2 -38 -2 -24 -4
1532257491227658 -3 1 -6 -3 7 -14 -10 -3
1532257491241621 -1 -4 -4 -6 -16 0 2 1
1532257491271541 -2 -5 2 -4 -7 -14 -24 -2
1532257491363296 -2 -2 -1 -1 7 -3 -2 -2
1532257491385237 -1 -2 0 0 4 16 1 -1
1532257491407178 0 -2 -2 -3 -41 -26 2 -1
1532257491429119 0 -3 0 0 22 16 8 1
1532257491444080 2 -3 -3 -4 -4 9 1 -1
1532257491481978 -3 -2 -3 -3 1 2 -2 -1
1532257491534852 -2 0 -1 -1 3 3 0 1
1532257491579717 -1 -1 0 -3 -10 1 1 2
1532257491603652 -1 -2 -1 -4 -7 -19 0 -1
1532257491631578 -1 -2 -2 -1 -4 -11 -6 -2
1532257491654516 -1 0 0 3 27 2 4 -2
1532257491669477 0 -1 0 -1 -4 15 -1 0
1532257491684437 -1 0 0 3 -4 2 -2 -1
1532257491707375 -2 -3 -1 -3 -12 -7 -2 0
1532257491722335 -1 0 -1 -4 8 -3 6 0
1532257491744281 -1 -2 1 -1 -1 2 -1 0
1532257491767215 -1 -2 -2 -1 -6 -10 -6 0
1532257491812096 -3 -2 -2 -2 -5 -11 -2 0
1532257491834037 1 0 -1 -2 -4 -11 -2 -2
1532257491863957 -3 -2 -2 -2 -3 7 1 -1
1532257491878916 -3 0 0 -2 10 2 -4 -1
1532257491909834 0 -1 -1 1 5 -9 3 3
1532257491939754 -1 -3 0 -1 22 19 3 1
1532257491969674 -1 0 -2 0 0 12 1 0
1532257492021535 -1 0 -1 0 10 1 6 0
1532257492074393 -1 -2 -2 -1 -2 11 3 1
1532257492097332 -1 -3 0 1 -4 -2 0 1
1532257492119274 -1 0 -1 -2 0 -4 0 1
1532257492134233 -1 0 -1 0 -1 3 2 -1
1532257492164154 0 -2 -1 -1 -2 1 -5 -1
1532257492187093 -1 -2 -1 -2 -10 1 -2 -1
1532257492217012 0 0 0 -2 -3 -6 0 -1
1532257492238954 0 -1 -1 0 1 -9 -2 0
1532257492268874 -1 -1 1 0 2 17 7 -2
1532257492314750 -1 -2 -1 -1 3 4 0 1
1532257492344670 -1 0 0 -1 -3 -4 0 -2
1532257492404511 -1 -2 -2 0 -1 2 0 -2
1532257492464350 -1 0 -2 -1 -1 -7 1 1
1532257492494271 -1 0 0 -2 -1 -7 -3 -1
1532257492592009 0 -1 -1 -1 -1 -1 1 0
1532257492689748 -1 -2 -3 -2 -3 0 1 -1
1532257492719668 1 -2 -1 0 0 -1 0 -2
1532257492749589 -1 -3 -1 -2 1 1 1 0
1532257492764548 0 -2 0 0 -2 -4 -1 0
1532257492779508 -2 0 -1 -2 -3 14 2 0
1532257492801450 1 1 -1 -1 -1 3 3 0
1532257492824389 -2 -2 0 0 -1 -4 0 -1
1532257492847335 -2 0 -1 0 0 -3 1 -2
1532257492869269 -1 -2 1 -2 -1 -5 -2 -1
1532257492907166 1 -1 -1 -1 0 -3 4 -1
1532257492922127 -3 -3 -1 -3 -2 -11 -4 -2
1532257492937087 1 1 -3 0 -1 4 1 0
1532257492982964 -2 0 0 0 1 -5 -7 -3
1532257493011887 -1 -1 -1 -3 -3 -2 -2 -1

1532257493041807 1 -3 -1 0 1 7 3 1
1532257493056766 0 0 -1 -5 4 12 6 0
1532257493079705 -1 -3 -1 -2 0 -3 -3 0
1532257493109625 -3 -1 -2 -1 -2 -3 -14 -1
1532257493146527 1 -1 0 1 0 3 -2 0
1532257493161487 -1 0 0 -1 -1 5 -1 -2
1532257493207364 -2 -1 0 -2 -4 -10 -1 0
1532257493229306 -3 -1 -1 1 -2 -10 -3 -1
1532257493244266 1 -2 0 -1 -2 1 -1 0
1532257493267204 0 -1 -1 -3 -1 -5 1 -2
1532257493297124 -3 -3 -3 1 -1 0 -3 0
1532257493319065 -1 0 -3 -2 0 -2 -1 -2
1532257493348992 -1 -1 -1 -1 1 -4 0 0
1532257493378912 -2 -1 -3 -1 -2 -2 -3 -3
1532257493409829 -2 -3 -1 1 -1 9 0 -1
1532257493431771 -1 -1 -1 -1 0 6 0 -1
1532257493476651 0 -2 0 2 -1 0 -3 0
1532257493506571 -2 -2 -2 -5 -1 0 4 -1
1532257493552242 0 0 -1 0 -1 1 -4 0
1532257493567202 -2 -2 -1 -3 1 2 -1 -1
1532257493597123 -1 0 -1 -3 -3 -2 -2 -2
1532257493634024 -1 -1 -2 0 -4 5 -4 0
1532257493648983 -1 0 -1 0 -2 0 -2 0
1532257493678904 -2 -1 -2 -3 0 1 2 -1
1532257493693863 0 -4 0 -2 -5 -5 -3 -1
1532257493709821 1 -1 -2 0 -2 1 1 -1
1532257493739740 0 -2 -2 -1 0 -9 -7 0
1532257493761682 -1 -1 0 0 -1 1 7 1
1532257493791602 -1 -1 -1 -1 -1 0 -6 -2
1532257493814541 -1 -2 -2 -1 -1 -1 -2 0
1532257493844471 1 -1 -3 -1 1 2 0 0
1532257493859421 -3 1 0 -2 -3 1 3 -1
1532257493874381 2 -2 1 -1 1 -1 -12 -4
1532257493904305 -2 1 -1 -1 -1 -1 1 -1
1532257493934221 -1 -2 1 1 2 1 0 -2
1532257493949197 0 -1 0 -2 -3 -13 -4 -1
1532257493964140 -2 0 -2 -1 1 2 2 -2
1532257493987079 -1 -1 -1 -1 -2 6 4 -1
1532257494009021 0 -2 -1 -2 -1 0 -4 -2
1532257494038941 0 -1 -1 0 1 -5 -5 -2
1532257494070855 0 -2 0 0 0 11 15 -1
1532257494099779 -3 0 0 -1 -4 -3 -1 -1
1532257494121719 0 -1 -2 -1 -1 -3 1 0
1532257494144658 0 -1 0 -1 -2 -3 0 1
1532257494196519 1 0 -1 -1 -1 5 0 -2
1532257494219476 -1 -2 0 0 -3 -1 -3 -2
1532257494249378 -1 -1 -2 -1 1 -2 -1 -1
1532257494272317 -2 -3 0 1 -1 -2 -5 -2
1532257494317196 -1 -1 -2 -3 -2 -3 1 -1
1532257494347117 0 -1 -3 -1 -1 0 6 0
1532257494362077 0 -2 -2 -3 -3 5 0 -3
1532257494384018 -1 0 0 0 -1 -5 -1 -1
1532257494413938 -1 -1 -2 -1 0 1 1 0
1532257494428898 1 -1 -1 -2 -1 0 3 -2
1532257494459815 1 -1 -1 -2 -2 -1 1 1
1532257494519655 -1 0 -1 1 0 -1 -5 0
1532257494601437 1 -2 0 -3 -1 -3 2 0
1532257494639335 -3 0 -1 0 1 -11 0 -2
1532257494654309 2 -2 0 -4 0 0 2 -1
1532257494677234 4 -2 -3 1 -1 1 2 -2
1532257494699175 -4 -1 0 -1 -2 0 2 -2
1532257494714135 1 -1 -3 -1 0 1 1 1
1532257494752034 -2 -1 -1 -1 0 1 0 0
1532257494788935 -1 -1 -3 0 -1 -2 2 -1
1532257494924572 -2 -3 -2 -2 -2 -2 -5 -1
1532257494946514 -1 0 0 -1 0 -1 -3 0
1532257494991404 -1 -1 0 -2 -2 -1 -1 -1
1532257495022311 -2 -2 -1 -1 0 -2 1 -2
1532257495052231 -1 -1 0 -2 0 1 -3 -1
1532257495074172 -4 0 -1 -2 -2 -2 -2 -2
1532257495127031 0 0 -2 -1 0 -2 0 -1
1532257495217789 -2 -1 -2 -2 -1 -6 0 -1
1532257495261671 -1 -2 -2 0 0 -2 2 -1
1532257495284617 0 -1 -4 1 -1 -4 -4 2
1532257495306550 0 -1 -1 -1 -2 -3 2 0
1532257495352428 -1 -1 -1 -1 -2 -3 -8 -3
1532257495404290 -1 0 -1 -2 -1 -2 0 -3
1532257495427228 -3 -1 -1 -1 -1 1 -1 1
1532257495464130 0 0 -2 -2 -3 -3 -1 0
1532257495494050 0 -2 -2 0 1 0 0 1
1532257495523970 -1 0 -1 -2 1 -1 -7 1
1532257495546908 -1 0 -1 -1 -1 0 1 -1
1532257495591788 0 -1 -2 -1 -1 -2 3 -1
1532257495606748 -1 -2 -1 0 0 1 -1 0
1532257495636668 -2 -2 0 -1 -2 -1 -1 -3
1532257495659607 0 -1 -1 -1 -1 -2 -1 2
1532257495704487 -2 -2 -1 -2 0 -1 0 -1
1532257495726428 -1 0 -1 -2 -1 -13 -4 -1
1532257495757346 -1 -2 0 0 0 0 -3 -1
1532257495779287 0 0 1 6 22 29 5 1
1532257495817185 -1 -5 -4 -11 12 -16 1 -1
1532257495839127 -1 1 -1 3 18 46 -1 -1
1532257495884007 -4 -1 -5 -5 -20 -8 -3 -3
1532257495921905 -2 -1 2 -3 -9 -1 -11 -3
1532257496026625 -1 0 1 -3 0 -14 -4 -2
1532257496139324 -4 1 -6 -8 -30 -78 -9 -5
1532257496207143 1 5 -1 -9 1 -5 -1 -1
1532257496311862 -2 2 2 -2 10 6 2 3
1532257496416583 6 -2 -4 0 -5 -4 0 2
1532257496529281 -10 -1 1 0 1 -4 2 -1
1532257496589121 -9 8 3 -1 -3 -4 -2 1
1532257496641979 -3 12 6 -6 0 -28 -2 -4
1532257496656939 1 2 -1 0 5 22 -6 -1
1532257496731740 4 -2 1 7 14 -15 13 3
1532257496806540 -13 -6 1 2 -27 -31 -9 -1
1532257496882337 22 0 -3 0 0 -4 -4 -2
1532257496934199 -3 4 5 3 12 15 2 0
1532257496964119 -4 -12 -11 0 -3 1 -2 -4
1532257496979079 0 0 2 8 -15 -24 -3 0
1532257497046897 -1 0 0 1 -1 0 -1 -3
1532257497076816 0 -3 -3 -2 0 -2 -2 1
1532257497121712 -1 -3 -4 -5 -3 0 -2 -2
1532257497144636 0 1 -2 -1 0 2 0 0
1532257497159596 -1 -2 -3 -2 -5 -5 0 -1
1532257497196497 -1 1 1 -6 1 -4 -1 1
1532257497226417 -1 0 -1 -4 1 3 -7 0
1532257497272301 -1 -1 -3 -4 4 -1 -2 -1
1532257497324167 0 -3 -6 0 -5 1 0 0
1532257497377014 -4 -1 2 -1 -2 5 -5 -4
1532257497413916 0 1 2 8 7 6 -10 -1
1532257497459793 3 2 -3 -8 -18 15 12 1
1532257497511654 -1 1 0 8 3 -8 -11 -2
1532257497601421 -2 -3 -6 -4 4 43 -22 -7
1532257497677211 0 0 -1 -3 -12 -19 3 0
1532257497729073 0 -1 0 -3 -1 13 10 0
1532257497753026 -2 -4 0 0 -7 -7 0 -1
1532257497788913 1 -3 -1 0 11 4 3 1
1532257497826811 -1 1 1 1 -5 -4 -2 -2
1532257497849750 0 0 0 0 2 17 4 1
1532257497864710 0 0 -1 -1 -5 -11 -2 -1
1532257497901612 2 -1 -1 2 -3 0 -1 1
1532257497955468 0 0 2 1 1 -2 -2 -2
1532257497969430 0 0 0 -1 -3 3 -3 -1
1532257497991371 -2 -1 -1 -1 0 -4 -8 -2
1532257498044230 1 -1 -1 -1 -3 -1 7 2
1532257498082128 -3 -2 -2 -1 -7 -28 -5 -3
1532257498097089 -1 -2 -1 -3 -2 -21 -5 0
1532257498171889 -1 -2 -1 1 7 10 -1 1
1532257498194837 -1 1 0 0 1 0 3 -2
1532257498239707 -1 -4 -1 -3 -7 1 1 -1
1532257498254668 -2 -1 -2 1 -1 0 0 -2
1532257498284587 -1 0 -2 -2 -45 -31 -4 -1
1532257498306528 0 -3 0 -2 3 -7 -4 -2
1532257498321488 0 -2 -1 1 11 4 0 -1
1532257498397287 -3 1 0 -1 17 15 3 -1
1532257498434187 -2 -2 -3 1 10 9 -2 -2
1532257498508987 1 0 -1 -1 -8 -26 -8 -2
1532257498538907 0 -1 1 2 5 3 -9 -1
1532257498584788 1 0 -3 0 3 3 3 -1
1532257498606726 0 -2 0 -1 -7 4 -3 0
1532257498636646 -3 -1 0 -1 -1 -10 3 -1
1532257498651614 -1 -1 -1 0 2 5 3 0
1532257498681525 -1 -1 0 0 0 4 4 -2
1532257498734385 0 -3 -2 -1 -1 -2 -14 -3
1532257498764304 -1 -1 -2 -2 -3 2 -2 0
1532257498802204 0 0 -2 -1 -3 -5 7 -1
1532257498862043 -4 -3 -2 -1 -3 -7 -12 -1
1532257498877003 0 0 -1 -2 -3 0 2 -1
1532257498913905 -2 -3 -2 0 -3 -1 -1 -1
1532257498936843 -1 -1 -4 -1 -3 6 -1 -2
1532257498974742 0 -1 0 -1 -1 3 0 0
1532257498989702 -1 0 -2 1 -3 -4 1 1
1532257499019622 -1 -1 1 -2 -2 -8 0 -1
1532257499043558 -2 0 -1 -1 -1 -6 0 -1
1532257499080459 0 -1 -2 0 -3 0 -5 -2
1532257499116363 -1 3 -2 -3 2 7 -1 -1
1532257499140299 -1 -2 1 -1 -5 -7 1 -4
1532257499177200 0 -1 0 -1 -5 0 -2 -1
1532257499222081 0 -1 -1 1 0 5 -2 -1
1532257499319829 -2 1 -2 -1 -4 -6 1 -3
1532257499379659 -3 0 1 -2 0 2 1 -3
1532257499416560 0 -3 1 0 -2 -13 3 -1

1532257499484379 -1 -1 -2 -1 0 -7 -12 -2
1532257499506366 1 -1 -1 1 -1 1 2 0
1532257499537297 -1 -1 -3 -1 -1 10 0 -2
1532257499582163 0 0 0 0 -3 -12 2 1
1532257499619103 -2 -1 -1 0 -2 -5 -6 0
1532257499658005 -1 2 -1 -3 12 11 1 -1
1532257499723863 1 -2 0 -1 -5 2 6 -1
1532257499754781 -2 -3 0 1 -1 5 -4 -3
1532257499769741 1 0 -1 -1 2 -1 -3 -1
1532257499799661 -2 -2 -1 0 2 3 -1 -1
1532257499836566 1 0 0 0 0 -4 -3 1
1532257499874506 -3 0 -2 -1 -4 -2 -4 0
1532257499911407 -1 0 0 -1 0 -1 -2 -1
1532257499964266 -3 -2 -2 -1 1 3 3 -2
1532257499979226 0 -2 -1 -1 -2 -10 -2 -4
1532257500047044 0 1 0 -1 -3 -10 -4 0
1532257500083946 0 -2 0 0 0 0 -5 -1
1532257500151765 -1 2 -1 -1 -1 -4 0 0
1532257500181684 0 -2 0 0 -1 -1 -2 -2
1532257500196645 0 -2 0 -1 -1 1 1 -1
1532257500211605 -4 -1 -2 -1 -1 -1 1 -1
1532257500256484 -2 1 0 -1 -1 -4 4 -2
1532257500302362 -1 -2 -1 0 0 -1 -4 -2
1532257500339263 -2 -1 -1 0 -3 -3 1 -1
1532257500369183 -2 0 -1 1 2 2 0 -1
1532257500392122 -2 0 -1 -2 0 3 -4 -1
1532257500414063 -1 -2 0 0 -3 -7 0 -2
1532257500466931 -2 -1 -1 -1 -4 -6 -2 -3
1532257500556705 -1 -3 0 -2 -1 -2 -2 -1
1532257500594604 0 0 -1 -2 -1 -3 1 0
1532257500631505 -1 0 -2 -2 2 4 -1 -3
1532257500677382 0 -2 -1 1 0 0 -1 0
1532257500699324 -2 -1 -3 -1 -3 -4 -1 -1
1532257500729244 0 0 -1 -2 -3 -6 -2 1
1532257500767142 -1 -1 2 0 -2 -6 -1 -1
1532257500797063 0 0 -1 1 -3 -4 -2 0
1532257500819004 -1 0 -1 -1 1 -4 -3 -2
1532257500848924 0 1 -2 -2 0 -1 0 1
1532257500871862 -2 -3 0 -4 -1 1 -2 -1
1532257500894801 0 0 -2 0 1 6 1 -1
1532257500909761 -1 0 -2 0 -4 -10 -1 -1
1532257500931702 -1 -2 -3 -1 -1 -5 -1 -1
1532257500954641 -2 -2 -1 0 2 8 0 -2
1532257500970599 0 -2 -4 0 -1 0 -1 -1
1532257501014481 0 0 -1 -2 -1 2 0 -1
1532257501044401 -1 -1 0 0 -2 3 -1 0
1532257501059361 -1 -1 0 -3 -1 -5 -2 -2
1532257501082299 -1 -2 -1 -1 -2 -3 -6 -3
1532257501119202 -1 -1 -2 1 0 -2 0 0
1532257501142140 -3 -2 -2 -1 -2 1 0 -2
1532257501172059 -2 0 -3 -1 -1 -1 0 0
1532257501208988 -1 -2 1 1 -3 -6 -1 -1
1532257501238909 0 0 -1 -1 -2 -1 -2 0
1532257501321687 0 -1 -2 -3 0 -1 -2 -1
1532257501359586 -2 2 -1 -1 1 1 -2 0
1532257501434386 0 -2 -1 0 -1 -7 1 -1
1532257501517165 0 1 -3 -2 -1 -1 -1 -1
1532257501539106 6 -2 -3 -2 0 -2 -1 -1
1532257501591965 0 -1 -1 0 -3 -2 -1 -1
1532257501674743 -1 -1 0 -2 1 3 1 1
1532257501711644 -3 0 -2 -2 -1 -1 0 -2
1532257501786444 1 0 0 0 -1 -1 -1 1
1532257501817362 0 -2 -1 0 3 4 -1 -1
1532257501839303 0 0 -1 -1 0 -4 0 0
1532257501952002 1 1 1 -2 0 -3 0 -1
1532257501988903 -2 -2 -2 -1 0 6 -1 0
1532257502079677 -3 -2 0 -1 0 1 -3 -2
1532257502131521 8 2 -1 -2 -2 -8 -8 3
1532257502191362 1 -2 -3 -1 1 8 4 -5
1532257502237239 7 -2 -1 -1 1 3 0 -2
1532257502289100 -4 0 -1 -1 -2 -7 -1 -1
1532257502319021 2 -1 -1 -1 2 7 3 0
1532257502363903 1 0 -1 0 0 1 1 -2
1532257502394818 2 -2 -2 0 -1 1 3 3
1532257502409778 2 -2 -1 -2 -1 -5 4 -1
1532257502424748 3 -1 -2 -1 -6 -15 -10 0
1532257502447676 5 -1 0 -2 -1 2 5 -2
1532257502484577 -14 -1 -3 0 9 12 -2 -1
1532257502544418 4 1 -1 1 0 0 8 1
1532257502672077 0 -2 -1 1 2 3 5 -1
1532257502731916 -1 0 4 28 29 48 4 0
1532257502746876 0 -1 3 4 -22 -19 5 -3
1532257502799735 -1 0 -6 -7 12 3 -3 0
1532257502859574 -2 -1 -5 -13 4 13 14 1
1532257502988240 -3 -2 -1 -2 -58 -47 -1 -2
1532257503039095 3 3 6 15 -55 -55 0 1
1532257503136834 -3 -4 -7 -32 11 -23 -10 -3
1532257503204652 -4 -9 -19 -83 -109 20 6 -1
1532257503488892 1 3 0 0 7 8 -6 -6
1532257503549729 -2 1 -5 -1 -5 -7 0 -3
1532257503594610 0 -9 -7 12 27 37 2 -4
1532257503646470 -2 -8 -1 -4 4 19 3 0
1532257503684369 -1 -3 -4 -16 -5 -25 2 2
1532257503699329 1 -4 -8 -6 25 -17 -5 -4
1532257503722267 4 -6 -9 6 -1 -3 -5 -2
1532257503752197 -1 7 7 -3 -15 -31 -1 -4
1532257503804049 0 0 0 1 11 -5 4 1
1532257503894807 1 -2 -4 -5 -10 -11 0 -2
1532257503961628 -4 0 0 2 -2 -2 -1 0
1532257504021468 1 -2 1 -5 9 8 -3 -2
1532257504075324 0 -5 -2 3 8 10 12 1
1532257504112225 -1 0 1 4 -9 9 10 1
1532257504149126 -2 -1 -3 3 10 -2 -11 -3
1532257504172065 2 -8 1 -5 2 15 10 5
1532257504216945 -3 -3 5 -3 -3 -46 44 1
1532257504291745 -4 -3 -1 -3 30 1 -18 -3
1532257504314683 0 -1 -3 1 3 -12 6 2
1532257504404444 -1 -2 -2 0 -4 -4 1 0
1532257504464284 -2 -1 -1 1 -20 -23 -9 -2
1532257504487222 -1 -4 -2 -3 2 -10 14 1
1532257504509164 -2 -2 -2 -1 8 -3 -3 1
1532257504569003 2 1 0 -1 -4 -22 -5 -2
1532257504629841 -1 -2 -2 -1 1 -11 0 0
1532257504644801 -1 -2 -2 -1 10 15 8 -1
1532257504689681 -2 -1 -2 -2 1 6 -9 -2
1532257504734561 -1 -2 -2 -5 5 -5 -3 -3
1532257504756502 0 0 0 -1 -7 -4 -4 -2
1532257504809361 -1 2 -2 0 -10 -7 -2 0
1532257504847260 -1 -1 0 0 -1 -15 -4 -2
1532257504869207 -3 -4 -3 0 7 15 -9 -2
1532257504914081 -2 0 0 1 5 -6 -2 0
1532257504944001 2 -1 1 1 8 -12 4 0
1532257504981900 -2 -1 -2 0 18 9 0 -2
1532257505034758 -3 1 -2 0 23 8 3 0
1532257505064678 0 -1 -3 -3 5 -4 0 -2
1532257505116540 -1 -2 -1 0 7 -18 2 2
1532257505146459 -2 -4 -4 -1 -11 -8 8 0
1532257505237217 -1 1 0 2 -6 6 -5 -2
1532257505259158 1 1 -2 -1 7 -14 -5 -3
1532257505312017 -1 -2 -3 0 21 -4 -8 0
1532257505333958 -2 -1 0 -2 -9 0 2 -1
1532257505371857 -4 -1 0 -1 1 -6 2 -1
1532257505386817 -3 -2 -1 0 -13 7 -5 -1
1532257505454636 -2 -1 -1 0 9 6 -1 0
1532257505469596 0 1 0 0 13 -11 2 -1
1532257505500516 -1 -1 -1 -1 -2 -3 -3 -1
1532257505559356 -3 -3 0 -1 -2 10 -1 -1
1532257505597254 -1 -1 -2 0 10 -13 -2 -2
1532257505672054 -3 -1 0 -2 -21 -1 5 -1
1532257505731894 -2 -2 -2 -3 -9 -4 1 -1
1532257505776775 0 -2 0 -1 -4 -7 0 1
1532257505814672 -2 -1 -1 -2 13 15 -14 -2
1532257505866533 1 -2 -2 -2 -2 -5 -1 0
1532257505911414 -3 -3 -2 -5 -9 -4 -5 -2
1532257506002180 -1 -1 -1 2 -5 -1 -1 -2
1532257506024113 -2 -4 -1 0 13 7 1 -1
1532257506039073 -1 -1 -1 0 8 -4 -3 -1
1532257506091948 0 0 0 -3 0 -4 -3 -1
1532257506121851 -1 0 0 0 -5 1 0 -1
1532257506144790 -1 -2 -2 0 2 10 0 -2
1532257506196651 -3 0 -4 1 1 6 9 1
1532257506226571 -1 -2 -2 -1 0 6 5 1
1532257506294390 -3 -2 0 0 -2 3 0 -1

1532257506369201 -1 -1 0 -1 4 10 -3 -2
1532257506407088 -2 -1 -4 -1 -1 2 1 -2
1532257506443990 -1 1 -2 -1 1 8 -1 -2
1532257506466928 -1 -4 -2 -1 -9 -10 -1 -1
1532257506504827 1 -1 -1 1 5 17 3 0
1532257506542725 -1 -1 -2 -1 -3 -3 0 0
1532257506624507 -1 0 -2 -3 -1 2 0 -1
1532257506684347 0 -3 -2 -2 -3 2 -1 -2
1532257506737206 -1 0 -2 0 -3 -1 -1 -1
1532257506782085 -2 -1 -2 -2 -9 -3 -5 0
1532257506804027 0 -3 1 1 7 -2 -2 0
1532257506857895 -1 -1 -1 -2 -1 3 1 -1
1532257506886806 -3 -1 -1 1 1 -3 4 0
1532257506916726 0 0 -2 -3 -5 -3 1 -2
1532257506961911 -2 -2 -2 1 -4 -1 3 -1
1532257506999808 -1 1 1 -1 -1 -6 0 -2
1532257507036711 -1 -2 -1 -1 -3 1 -5 0
1532257507098545 -1 0 -2 -1 2 0 4 -1
1532257507126470 -2 0 -1 -3 -5 2 -4 0
1532257507149409 0 -3 -2 -2 -8 -2 -3 0
1532257507187308 1 -3 1 1 -3 -2 -2 1
1532257507209249 -1 0 -1 -2 -6 0 6 -2
1532257507247147 1 0 -2 -3 -9 -7 -2 1
1532257507262108 -2 -2 -1 -1 3 0 -2 0
1532257507313969 -3 -1 -2 0 -2 2 -1 -1
1532257507351880 -1 -2 -2 0 -1 0 -1 -2
1532257507366827 -2 1 -2 -1 -1 14 -2 -1
1532257507479526 -1 -1 1 3 22 4 0 3
1532257507524407 -4 -2 0 -1 0 -5 -5 0
1532257507562305 -1 -1 -3 0 1 0 -1 0
1532257507577265 -1 -2 -2 -2 -2 0 -1 -2
1532257507629126 -2 0 -1 -1 2 -3 -3 -3
1532257507668037 -2 -1 -2 -1 13 1 -1 1
1532257507756786 0 1 1 0 11 7 4 -2
1532257507786705 -1 -2 -3 -1 2 -1 -3 -1
1532257507809657 0 0 -3 -1 -4 -3 0 -1
1532257507869498 0 -1 -2 -2 -6 -4 0 -1
1532257507952276 -2 -2 -1 -2 -3 2 -2 -2
1532257508004138 0 -1 -1 -3 0 -2 -2 1
1532257508049018 -1 -1 2 -2 -4 -5 0 0
1532257508086916 -3 -2 -2 0 2 -1 2 -1
1532257508169695 -1 -2 -2 -2 -2 -3 1 1
1532257508199614 -2 -1 -2 0 -2 -2 -1 -1
1532257508236516 -2 -2 -1 -1 -2 -3 9 0
1532257508274415 2 -1 0 -3 -1 -1 0 0
1532257508334255 -2 1 -1 -1 1 3 -2 -2
1532257508372153 -1 -2 0 2 -1 -3 -4 0
1532257508424015 1 -1 1 -2 -28 -14 -4 0
1532257508536713 -1 1 0 -1 5 2 -2 -3
1532257508611513 -2 -2 -1 -1 3 0 1 0
1532257508641433 -3 1 -2 -1 4 0 1 0
1532257508717231 -1 -1 0 1 -1 0 -1 -1
1532257508784052 -1 -1 0 -2 1 -1 -4 -1
1532257508806990 1 1 0 -1 -1 -3 -1 -1
1532257508889770 0 0 0 -1 -5 -5 0 -3
1532257509016430 -2 -3 -1 -1 -2 -2 -5 -3
1532257509084249 -1 -3 -3 -1 3 0 -3 -2
1532257509159049 -4 -1 -1 -1 -6 -2 -4 -1
1532257509203929 -1 0 -1 -1 4 -2 -3 0
1532257509226868 -1 0 -2 -2 -1 -3 -3 0
1532257509256795 -3 -1 1 0 -5 -1 -3 -2
1532257509331588 -1 -1 0 0 6 -3 1 0
1532257509384447 -1 0 -1 -1 3 -2 -1 0
1532257509422354 0 -3 -2 -5 -25 -7 5 -1
1532257509452280 -2 1 -1 0 5 0 0 -1
1532257509534046 -1 0 0 -1 3 0 3 1
1532257509571945 -2 0 -2 0 1 2 -1 -1
1532257509631784 -1 0 -2 -2 -3 0 1 0
1532257509646745 0 -1 -1 0 5 3 -4 -1
1532257509684644 0 -3 -1 -2 -5 -4 0 -1
1532257509774404 -3 -1 -2 -3 5 5 6 1
1532257509804324 -2 0 -1 0 3 -4 -5 -2
1532257509842223 1 -2 -1 -1 -2 -8 0 -1
1532257509864164 0 1 1 -1 -4 2 -1 1
1532257509909044 -2 -2 1 5 4 -12 -2 -1
1532257509938964 0 -3 -5 -9 -21 2 11 0
1532257509999801 0 1 7 20 18 10 -2 -2
1532257510059641 1 2 4 18 7 13 1 2
1532257510351859 -2 -2 0 7 -25 19 1 0
1532257510531380 0 -4 2 4 -35 -96 -2 0
1532257510696937 -7 -7 -11 2 0 -5 -2 1
1532257510756777 -4 -2 -6 -4 -7 -15 1 -1
1532257510884435 2 -1 -5 -8 -32 -20 -21 4
1532257510959235 -2 -2 -5 6 -5 -4 0 -4
1532257510982174 0 -6 4 -7 -7 -13 -2 1
1532257511027054 -2 -1 2 -2 -3 -4 -2 -3
1532257511048995 0 -6 -3 0 -1 -3 -1 -1
1532257511071934 0 -3 -6 -4 -3 0 2 -2
1532257511139752 -2 0 -1 -2 -2 -4 -2 -2
1532257511161693 -1 -2 -2 -1 -2 -3 -1 -1
1532257511214553 -1 1 -1 -3 -3 1 -2 1
1532257511312291 0 0 -4 2 2 -1 1 0
1532257511349192 -1 0 4 0 -11 -20 2 0
1532257511379113 3 4 -8 5 27 53 -8 -1
1532257511423993 -4 -5 -2 -5 -12 -31 5 -2
1532257511462889 -2 3 1 2 5 10 -1 1
1532257511514750 -1 -1 0 -2 7 24 -4 0
1532257511559630 -2 -4 -2 -5 3 1 6 0
1532257511604510 -4 -4 -3 2 -3 -6 -4 -2
1532257511626451 -1 0 -1 -1 -1 -15 -2 -1
1532257511642409 -2 -1 -2 -5 -12 -27 -1 0
1532257511679310 -3 0 -1 1 5 24 1 -2
1532257511702248 -1 1 -1 2 9 6 -4 -1
1532257511724189 0 0 1 -1 -37 -21 -3 0
1532257511739150 2 0 -1 -1 -6 -34 1 -1
1532257511777048 -1 -3 -2 1 -17 -2 -15 -1
1532257511792008 -2 -2 -2 0 13 2 2 -2
1532257511821928 -1 -2 -2 -3 11 18 4 -2
1532257511851848 -1 0 -1 -1 11 16 0 0
1532257511866808 -2 0 -1 1 -4 -9 -2 -1
1532257511889747 -1 -3 -4 0 6 1 1 -2
1532257511911689 0 -1 1 2 -5 -12 -1 -1
1532257511941608 -1 -1 1 2 8 13 3 1
1532257511971530 -2 0 0 -1 -9 -12 2 1
1532257512001448 -3 -2 -1 0 5 -3 6 1
1532257512024387 -2 0 0 -4 -19 -20 -4 0
1532257512062285 1 0 -2 -2 -23 8 0 -2
1532257512107172 -1 -3 -4 -4 -8 -1 -2 1
1532257512129107 0 -1 1 0 5 13 0 0
1532257512167005 1 0 -1 0 16 8 -4 -2
1532257512196926 -2 -2 0 1 7 7 -2 -2
1532257512211885 -3 -2 -2 0 21 5 -1 -3
1532257512226846 -2 -1 0 -1 -1 4 0 -1
1532257512256766 0 -2 -3 -2 -23 -10 -3 -2
1532257512294664 0 -2 -1 0 8 4 -2 -1
1532257512346526 -1 -1 0 1 -6 -12 -2 -2
1532257512384424 0 0 0 -1 -1 1 0 0
1532257512429304 -1 -2 -3 0 6 -2 -4 -2
1532257512467202 -3 -1 1 -3 -12 0 2 -3
1532257512548984 1 0 -3 -3 -7 0 -5 -4
1532257512578919 13 -2 -1 -1 4 -5 -4 -2
1532257512646723 -1 -2 0 0 -4 38 6 -2
1532257512699582 -4 -3 -3 -3 5 -8 -4 -2
1532257512736483 -1 -1 0 -1 4 -6 -1 -1
1532257512774381 0 -2 -2 0 -2 -3 2 -1
1532257512789341 -2 0 -2 0 22 -6 -1 0
1532257512834222 -1 -2 -2 2 9 6 -4 -1
1532257512864142 -3 -1 -3 1 -1 -4 0 0
1532257512976839 -1 2 0 -1 2 3 -2 -2
1532257513051640 0 -1 -3 -1 2 -1 0 -1
1532257513089538 -1 2 -1 -2 -5 -12 -1 2
1532257513217197 -2 -2 1 -1 -41 -4 0 0
1532257513321917 0 -3 -1 -1 4 6 -2 0
1532257513359816 0 0 -3 -3 -1 -2 -4 0
1532257513419656 -3 -3 -2 -1 0 1 1 -1

1532257513501437 0 -1 -2 0 5 11 0 -1
1532257513592319 -2 -1 -3 -4 11 5 13 -5
1532257513614260 0 0 -2 -8 -20 -14 4 1
1532257513637198 -1 1 -2 0 0 38 8 1
1532257513667118 -2 -2 -2 1 4 46 -7 -1
1532257513711998 -3 -1 -2 1 -2 3 -13 0
1532257513733940 0 -3 0 0 1 -55 -2 -1
1532257513756878 -1 -1 -2 -2 -4 -10 -7 -4
1532257513771853 5 0 -2 -1 1 6 1 0
1532257513802020 7 2 -1 -3 -3 -11 -2 2
1532257513831939 -1 0 0 -1 0 0 -5 -7
1532257513899757 -19 -2 -1 -1 -1 -2 -5 -12
1532257513914717 -13 1 -1 3 6 6 -2 1
1532257513936659 -5 -5 -2 -3 -3 3 1 -6
1532257513996499 2 5 -3 -4 -2 -6 -6 -3
1532257514026419 10 -3 -4 -2 -1 0 3 4
1532257514064317 5 -8 -1 -2 -8 -13 -6 5
1532257514087256 5 -1 -9 -1 0 3 6 4
1532257514177016 -2 1 9 1 0 -4 -3 -3
1532257514289723 6 -3 -24 -6 -4 -6 -6 -1
1532257514364370 2 -5 4 0 2 7 6 4
1532257514528929 23 16 -2 -9 -13 -31 -49 0
1532257514619724 59 44 14 7 7 -5 54 32
1532257514671582 -54 31 3 -3 -1 -10 -55 -54
1532257514716463 65 57 11 6 -3 -73 76 64
1532257514769666 16 21 2 -4 -6 0 9 9
1532257514806567 -11 -13 0 1 -5 -34 6 11
1532257514844466 17 72 20 8 7 4 -5 21
1532257514874386 -9 -8 0 0 -30 -42 0 -10
1532257514912284 29 29 6 3 -1 10 3 24
1532257514972124 4 -8 -7 -1 10 -9 -27 1
1532257514994065 -9 -2 3 -9 -20 -25 -16 -4
1532257515031964 2 -12 -4 3 64 -25 0 16
1532257515053905 -6 0 -4 -14 -17 44 121 13
1532257515069863 -2 -5 -12 -14 -21 -21 -6 1
1532257515106764 3 2 3 -3 -30 -24 6 1
1532257515129702 3 1 2 3 -25 -15 -31 0
1532257515174583 -2 -4 -1 -2 -12 12 6 1
1532257515234423 8 0 1 -5 -16 4 3 6
1532257515287281 -1 -1 1 4 1 19 19 9
1532257515339143 -4 -3 -4 -2 -3 -6 -8 -3
1532257515376876 1 2 4 -1 -1 -6 1 0
1532257515414774 0 1 -2 -2 -38 -1 -4 0
1532257515444711 1 1 3 7 1 0 0 0
1532257515474614 -2 -2 -2 -2 -10 -4 0 -3
1532257515504535 -1 -8 -9 -3 1 0 -1 2
1532257515519495 -1 -3 2 0 -2 -6 -3 0
1532257515534454 0 1 -2 0 1 2 -2 -1
1532257515564375 -3 -1 -1 -2 -3 -5 -3 -1
1532257515587313 0 -4 -1 -1 0 -3 0 0
1532257515602283 -1 -4 -2 -4 -3 1 0 0
1532257515692061 -3 -1 0 -1 -2 -2 -2 -1
1532257515781821 -1 0 -1 3 0 29 -1 -2
1532257515826701 0 0 2 4 -1 17 -2 2
1532257515856621 2 1 1 8 3 10 -8 2
1532257515886541 -2 -3 -3 -1 -2 36 1 0
1532257515909479 0 0 1 -3 4 -4 -3 -4
1532257515939400 -3 -9 -3 -6 -26 70 -5 -3
1532257515969320 -2 3 0 -4 -1 -29 -3 1
1532257515992259 0 -2 -1 1 4 -18 3 2
1532257516007218 -3 -1 1 -2 1 13 -2 -3
1532257516029160 1 5 -1 -3 2 -6 4 -1
1532257516053096 -3 -3 1 2 -4 17 -5 -2
1532257516082019 1 -2 -4 -6 -5 -8 0 1
1532257516111939 2 5 1 -2 -14 -13 2 1
1532257516156818 4 8 0 1 -1 -17 2 0
1532257516179757 -4 -8 4 -3 1 -17 -4 -5
1532257516201710 -2 -4 -7 -3 2 21 -2 -3
1532257516231618 -1 3 1 1 2 9 3 -1
1532257516254557 0 -3 -5 -1 0 -24 -4 0
1532257516276498 -2 0 -2 4 -1 -4 -2 0
1532257516299436 1 5 -6 -5 -5 3 0 0
1532257516359283 -2 3 -1 -2 -2 -13 -5 -1
1532257516382216 -1 -2 1 1 0 6 0 0
1532257516419117 0 -2 -3 0 1 -4 3 -2
1532257516471976 -2 -2 5 3 3 0 -8 -1
1532257516493916 0 2 1 -3 -2 -16 -2 -1
1532257516524834 0 0 0 1 0 2 -1 0
1532257516562733 0 0 -3 -2 -6 -6 -2 -3
1532257516584674 -1 -4 -3 -1 2 12 0 1
1532257516629554 -4 -2 0 -2 1 -2 -4 -3
1532257516644515 -1 -1 -3 -3 5 7 1 -3
1532257516689394 2 -1 -1 -3 -2 0 -1 0
1532257516727293 -1 -1 -1 1 0 18 0 0
1532257516757213 0 -1 -2 0 1 -3 -2 1
1532257516772173 -2 -4 0 0 -1 -2 -1 -2
1532257516802094 0 1 -3 -2 0 -4 -2 1
1532257516838994 -1 -4 -2 0 -2 -2 -1 -2
1532257516876892 -2 0 0 -1 -1 -2 0 0
1532257516921772 -1 0 -3 -1 -2 -1 -1 -1
1532257516936733 -3 1 -2 0 -1 0 0 -2
1532257516974632 0 -3 -1 0 1 -1 0 -1
1532257516996579 -2 -2 -2 -1 -2 -1 0 1
1532257517049432 0 -1 1 -1 0 -1 1 -1
1532257517079352 -1 -1 -2 -2 -3 -1 1 -1
1532257517132210 0 -1 3 0 1 1 0 -2
1532257517162130 0 -1 -1 -2 0 -3 -3 0
1532257517228952 -2 -2 -3 -1 -1 -3 -6 -2
1532257517251898 -3 0 -3 -1 0 -2 -3 0
1532257517281810 0 0 1 0 -1 -5 3 -1
1532257517319708 0 -3 0 0 0 -1 4 0
1532257517349629 0 0 0 0 -3 0 -2 0
1532257517379549 -3 -1 -2 1 0 -2 -1 -1
1532257517409469 1 -3 -1 0 -1 1 1 0
1532257517469308 -3 -2 1 -2 0 -4 -1 2
1532257517499229 0 -1 -4 1 -1 -1 -6 -2
1532257517582007 -3 -4 -2 0 -2 1 -2 -2
1532257517603949 1 -1 1 0 -2 -1 -3 1
1532257517656807 -1 -1 0 -1 1 -1 -1 -4
1532257517694706 1 0 -2 -2 0 -1 -1 -1
1532257517716647 -1 -1 -2 0 0 -1 1 -1
1532257517761527 -2 -1 -3 -1 1 -1 0 0
1532257517784466 -4 0 -1 -2 -1 -1 -5 0
1532257517844306 -2 -1 -3 -2 -2 -1 -2 0
1532257517874226 -1 0 -1 -2 -1 0 -1 -1
1532257517897165 1 -1 0 1 -1 -2 -5 -1
1532257517942045 1 0 -1 -1 -2 -2 -3 -2
1532257517963986 -1 -1 -2 -2 -1 0 -4 1
1532257518024824 0 -1 0 -3 0 -2 -7 -2
1532257518099624 0 -2 -1 -3 -1 2 4 -2
1532257518144503 1 -1 -1 -2 -1 -3 4 0
1532257518174423 -5 2 -3 -2 0 -1 8 1
1532257518212335 -1 -2 -2 -3 -2 0 -1 -1
1532257518249224 -1 -1 -1 -2 -2 -1 -1 0
1532257518264183 -1 0 0 2 0 -2 1 -1
1532257518294103 -1 1 -1 0 -2 0 11 0
1532257518338983 -11 -2 0 1 1 0 1 -4
1532257518376882 1 0 -1 -1 0 -4 -5 0
1532257518421761 0 -1 -1 0 -1 -1 0 -1
1532257518444700 -2 0 -1 -2 -1 -1 0 -3
1532257518466641 5 0 -3 -2 1 1 1 0
1532257518504541 6 -1 -1 0 -1 0 -7 1
1532257518519501 -6 0 -1 1 0 -2 0 -2
1532257518541442 3 -1 -3 -1 -3 -2 -4 1
1532257518564380 4 -3 0 -1 0 -1 -1 -1
1532257518579340 -11 -1 0 -1 -3 -3 -7 -4
1532257518594300 3 -1 0 -1 -1 -1 -6 -2
1532257518609260 0 0 -1 -2 0 -3 -1 -1
1532257518639180 4 0 0 -1 -2 0 9 1
1532257518669101 -2 0 -1 -1 0 -2 -2 -1
1532257518692039 1 0 -1 -2 0 0 1 3
1532257518713980 0 1 -2 -2 -2 2 7 1
1532257518743900 13 -2 -2 0 -3 -5 -14 -6
1532257518766839 -7 -1 -2 -3 2 5 1 -2
1532257518789778 -1 1 0 -2 0 2 -5 -2
1532257518811719 -1 -2 1 -1 0 1 -8 -1
1532257518849618 -1 2 -1 0 -2 -3 8 -2
1532257518864578 5 -5 -2 -3 -1 -3 2 0
1532257518879537 -1 -1 -2 1 -4 -5 -15 -3
1532257518916439 -2 2 -1 0 2 10 -1 -2
1532257518947356 -1 -3 -1 0 -4 -5 3 0
1532257518969298 -4 -1 -3 -7 2 4 -2 -1
1532257518984257 0 -3 3 12 -9 15 3 -2
1532257519022157 1 -3 2 5 14 15 12 1
1532257519037116 -1 -2 -3 -5 -4 -13 -10 -3
1532257519059058 0 2 15 11 -14 -3 1 -1
1532257519088978 -4 -3 -8 -12 -15 -35 11 -3
1532257519111916 -1 -2 -5 -14 -3 -1 -5 -2
1532257519141838 0 -1 0 7 11 -4 -2 -2
1532257519179735 -2 -1 1 1 -25 16 -3 0
1532257519329335 -2 1 3 16 -7 0 6 1
1532257519412113 0 -2 -3 -14 -7 2 -1 -2
1532257519501874 -1 -3 -2 -10 -3 -9 -3 -3
1532257519636513 0 -8 -7 -2 -4 -23 -2 0
1532257519749212 0 16 18 1 -2 -4 2 -1
1532257519817031 1 -18 -10 2 15 -9 -2 0
1532257519899809 4 -2 9 2 8 20 2 1
1532257519951671 5 -9 -16 8 6 -3 2 1
1532257519966631 -1 -3 -2 -10 -32 4 2 2
1532257520004529 -1 -19 -29 -3 -11 3 4 1
1532257520019490 -3 2 -1 -5 -13 -2 0 -3
1532257520056391 0 0 8 -6 -12 -10 -5 -1
1532257520094289 -4 -1 -3 -1 14 -2 -8 -5
1532257520124209 -1 4 5 -6 -22 6 -8 -4
1532257520139169 0 -10 -5 10 13 -2 2 1
1532257520169090 -1 -13 -15 -3 -2 -5 -6 -1
1532257520184049 -2 -9 -16 -3 -4 -5 -2 0
1532257520206988 0 3 11 -3 -5 -3 -3 -1
1532257520221949 -1 0 -4 -5 -3 -6 -4 -2
1532257520243889 2 -5 3 -3 -10 -8 -2 0
1532257520258849 -2 5 3 -1 -6 -2 -2 -3
1532257520274806 0 -4 0 0 0 -1 -2 1
1532257520319687 -3 5 2 1 0 -6 2 1
1532257520371547 -1 2 1 1 2 26 -2 -2
1532257520439366 2 -3 -1 -5 -26 -19 -2 0
1532257520455324 -1 -2 -1 4 14 2 0 -2
1532257520492225 3 7 15 45 25 -12 -19 2
1532257520514167 -1 -4 -6 -24 10 3 9 -2
1532257520552066 -2 -4 -4 -5 14 -2 1 -1
1532257520581985 -2 -1 -5 -4 -8 24 2 0
1532257520611905 -2 2 2 8 28 0 -1 0
1532257520641825 -1 -2 -3 -12 -12 -16 -2 0
1532257520673743 -3 -4 -8 -2 -8 3 -1 -1
1532257520694698 0 -3 0 -7 -9 -2 2 0
1532257520731585 -2 -3 -13 -17 -29 -1 1 -2
1532257520785457 -1 2 5 19 32 -45 2 2
1532257520829323 -4 -2 0 -6 -14 -58 -6 -4
1532257520859244 2 0 3 -5 -17 12 0 1
1532257520889164 0 -5 3 2 35 19 2 1
1532257520942023 -2 0 -1 -2 -5 -5 2 -1
1532257520963964 0 -1 -3 -1 -27 -1 0 -1
1532257521009855 -1 -2 -2 -1 24 26 1 0
1532257521031782 1 -1 -3 -3 -2 -10 0 -1
1532257521063697 -3 -2 0 -7 -11 -17 -2 -2
1532257521091622 -2 -1 1 -3 -2 -4 -1 -1
1532257521121542 -1 -2 -6 -7 -5 -2 0 -3
1532257521151462 -2 -2 -2 -3 -4 -2 -1 -2
1532257521166422 -3 0 -1 3 -2 6 -3 -1
1532257521181382 0 1 -1 0 4 -3 2 -5
1532257521204321 -3 -1 -1 0 4 -13 -2 -2
1532257521227259 0 -1 -1 -1 -2 4 0 0
1532257521242220 -2 -2 -1 2 -4 -21 -3 -1
1532257521280118 -1 0 -1 -1 18 25 -1 1
1532257521302076 0 -3 -2 -3 -3 -1 4 0
1532257521331980 -1 -2 -2 0 3 -1 -3 -1
1532257521353921 1 -1 -1 1 13 2 -2 -4
1532257521391820 1 -1 -1 4 22 17 1 -1
1532257521429718 0 -2 -2 -4 -1 -11 -1 0
1532257521444678 -1 -2 -1 -5 -10 -6 2 -1
1532257521466620 -5 -2 0 -1 24 -6 -5 -5
1532257521504518 -2 -2 -1 -4 -16 -2 -2 -2
1532257521526460 1 -1 -2 -2 0 9 -1 0
1532257521556380 0 -1 -1 1 10 -12 -2 0
1532257521594279 -2 -2 1 -2 4 1 -2 -2
1532257521617217 -1 -1 -1 -1 -8 -4 -1 0
1532257521654118 -2 -1 -1 -2 2 -4 -2 -2
1532257521677057 -2 -1 -1 0 4 2 0 -1
1532257521713958 -2 -2 -1 0 2 4 -1 -2
1532257521751857 -1 -1 0 -1 4 -2 -1 -1
1532257521796737 0 0 -1 1 -5 -7 0 1
1532257521841617 0 -1 0 -2 -7 -6 0 -1
1532257521886497 -1 0 -2 -1 -2 -4 -2 -2
1532257521924395 -1 3 1 -2 -19 -2 -5 0
1532257521939355 0 0 -2 0 2 1 -1 -1
1532257521954315 0 -1 -1 0 6 -1 1 0
1532257521992214 1 0 -1 -4 10 -6 0 0
1532257522007174 -1 -1 -2 -1 17 -1 0 -2
1532257522044075 -1 -1 0 1 -9 -1 0 -2
1532257522073995 -1 -1 -3 -7 16 -2 1 1
1532257522103915 0 -1 1 1 1 -1 0 0
1532257522126854 0 -1 1 0 -11 -4 -1 -1
1532257522171734 -4 -3 -2 -6 -6 2 -1 -2
1532257522186694 1 -2 -1 5 -4 5 -3 -2
1532257522239552 0 -1 0 -1 3 15 0 -1
1532257522284432 -1 -2 -2 -2 3 1 -3 -2
1532257522322331 1 -2 0 1 4 12 0 -2
1532257522337291 -1 -2 -2 1 -1 10 -2 0
1532257522389153 0 -2 0 1 -1 -1 0 2
1532257522428053 -1 -2 -2 -4 1 -1 -2 0
1532257522463952 -1 -1 0 1 -4 1 1 0
1532257522494871 -1 -2 0 8 16 -7 -2 -1
1532257522509829 0 -2 0 -3 -7 -8 -2 -1
1532257522524790 -1 -1 0 -1 -3 -5 -2 0

1532257522554710 -1 -1 -2 1 -1 -7 -1 -2
1532257522569670 0 1 -2 -4 -10 -7 -1 0
1532257522591611 -2 0 -1 2 2 -5 1 0
1532257522615547 0 -2 -1 -1 1 -2 -2 -2
1532257522644470 -1 0 -2 -1 -8 -22 -2 1
1532257522666412 -2 -3 0 -3 3 11 2 0
1532257522681371 -2 -2 -1 1 0 -1 0 0
1532257522727249 -2 1 -3 2 5 3 1 0
1532257522749190 -1 1 -1 0 -4 -4 -3 -1
1532257522779110 1 3 3 6 -2 30 27 0
1532257522802049 2 -2 0 -3 -23 2 0 5
1532257522847351 -6 -3 -6 -13 -17 -25 30 -3
1532257522892231 6 1 1 -11 -7 -10 -11 19
1532257522929132 -3 -2 -2 -1 13 8 -3 -7
1532257522981991 0 0 -2 1 -3 27 -24 0
1532257523018892 12 1 1 2 0 -13 -4 -3
1532257523056791 -11 2 2 4 8 5 1 -6
1532257523079729 -1 -2 -1 2 8 4 -5 -2
1532257523116631 -2 -4 -2 -3 -12 -21 -2 -2
1532257523146577 0 -2 0 0 11 15 2 0
1532257523161536 1 2 9 3 0 -15 -1 1
1532257523176497 -1 2 -6 -3 -8 -2 -7 -3
1532257523206417 4 -3 2 -1 7 34 -2 1
1532257523222375 -1 -4 0 2 -4 -19 1 1
1532257523252005 -1 0 3 -1 2 25 0 2
1532257523281908 2 4 -1 -5 3 26 7 0
1532257523304853 -1 -3 8 -6 -18 8 -7 -2
1532257523334768 1 -1 0 -6 5 -54 -8 -4
1532257523371669 -2 0 -1 0 6 27 2 4
1532257523409568 1 -4 16 4 -2 -50 8 -11
1532257523446469 -4 -2 -16 2 -4 -11 -1 11
1532257523484368 -2 -9 -12 0 2 -1 4 14
1532257523544208 4 -3 14 8 -5 22 -4 3
1532257523574128 7 35 -4 -18 -11 8 -7 -6
1532257523597066 14 17 6 5 12 36 6 1
1532257523612026 -49 -16 -23 1 4 -6 -5 -16
1532257523626986 24 -18 17 -3 10 3 21 -21
1532257523671866 14 -19 4 11 -16 -72 4 12
1532257523725723 -5 1 10 4 -2 -14 17 8
1532257523739685 10 1 -4 1 3 23 23 0
1532257523776586 3 2 7 -2 3 -5 -7 20
1532257523791546 15 -10 -2 -4 1 17 -4 14
1532257523829445 1 5 0 3 5 10 3 -1
1532257523851390 -10 -8 -27 -7 -14 1 -9 1
1532257523882304 -2 -5 1 2 5 -12 -20 0
1532257523927184 -4 0 -7 -4 -18 -12 -8 6
1532257523949686 -17 14 32 -8 -9 -11 -3 -2
1532257524039446 6 31 0 -13 -9 -18 -5 0
1532257524061446 2 7 0 0 -2 -5 -3 1
1532257524076406 -5 0 1 -10 -6 1 -1 -4
1532257524099344 2 1 1 -1 -3 -10 4 2
1532257524129024 16 2 -5 -2 6 95 8 5
1532257524151963 0 -4 2 -13 -34 -87 -8 1
1532257524204821 -2 0 -2 -9 -12 2 -2 -3
1532257524235741 -1 2 1 -5 -11 -40 -2 0
1532257524256682 0 -6 -7 -14 -17 -1 0 7
1532257524309541 2 2 -1 -2 -12 -8 1 7
1532257524339461 -7 4 -8 -11 -7 -38 -18 -33
1532257524369381 0 5 10 9 1 -3 2 11
1532257524428965 2 -1 1 20 58 14 13 2
1532257524458885 -5 -10 -3 -14 -9 9 0 -1
1532257524504763 3 4 0 0 -13 -1 -2 0
1532257524549643 -2 -9 3 2 -17 -1 -4 -2
1532257524616464 4 4 -5 -9 -2 4 -7 -2
1532257524729162 3 -8 -4 -3 1 -6 -1 -1
1532257524744123 -1 0 -1 -4 0 -7 0 -1
1532257524818923 -4 0 2 0 1 2 -2 -2
1532257524871781 -1 -1 -3 -6 1 -3 -1 0
1532257524946581 0 -1 -3 0 -3 -2 -3 -1
1532257524976501 1 4 5 7 6 3 3 2
1532257524999439 1 1 2 -3 0 0 -1 0
1532257525059280 1 0 0 -2 0 -3 -3 -1
1532257525097178 -2 0 -2 -3 -7 -15 -2 0
1532257525149040 -1 -2 0 -1 -1 -4 -1 -2
1532257525208880 -1 1 0 -1 -2 -5 1 -1
1532257525261738 -2 -2 -4 -2 -8 -19 -3 -1
1532257525576896 1 0 1 0 1 14 0 -1
1532257525629754 3 3 4 6 3 -17 0 1
1532257525726496 0 -1 -2 -4 -38 -17 0 -2
1532257525786769 0 -2 -3 -1 -7 -18 -1 -1
1532257525831649 1 -1 0 -3 -5 -4 2 -4
1532257525854588 -2 1 -4 -2 5 23 2 2
1532257525891489 -1 -1 -2 -1 1 3 -2 -2
1532257525944348 -3 0 -1 -2 -1 -7 -7 -3
1532257525959308 1 11 -1 2 2 -6 -3 1
1532257526019160 0 -3 2 0 -3 -6 0 -3
1532257526057046 -3 -2 -1 -3 1 6 -1 -4
1532257526108915 -1 -4 -1 1 -1 -1 -1 7
1532257526124865 -2 0 -1 2 2 10 1 -2
1532257526184722 1 1 0 -1 0 5 1 0
1532257526289425 -5 -3 -7 -6 20 -2 -3 -4
1532257526341834 0 -3 -1 -1 -12 -5 0 2
1532257526401673 -4 -6 -4 -9 -46 -9 -7 -5
1532257526446554 0 0 2 0 1 -1 -1 -2
1532257526552306 -1 -5 -1 -4 8 5 0 -2
1532257526612128 -2 0 -2 -3 4 -2 4 -1
1532257526836528 -3 -1 -1 0 0 -1 7 -2
1532257526904346 -3 -2 -4 -4 -5 0 7 -1
1532257527017045 1 0 1 5 2 -2 19 1
1532257527129744 -1 -1 0 0 2 17 35 1
1532257527234463 -1 -4 -4 -3 4 -12 33 -1
1532257527273360 2 2 0 2 9 21 -28 -1
1532257527324223 -5 -1 0 -2 -1 24 1 -6
1532257527392042 2 -2 -3 -2 0 14 10 3
1532257527443904 -2 0 -1 -4 -1 -8 -16 -8
1532257527459860 -8 0 5 4 -5 -14 11 -21
1532257527504741 -5 -3 -4 -7 -12 -38 -70 -10
1532257527610458 3 2 2 1 6 67 35 4
1532257527991439 0 -2 -1 0 0 -7 -1 -4
1532257528014378 -1 -4 -13 -2 -2 -3 -2 -1
1532257528044298 -2 -4 -9 0 0 4 3 -1
1532257528097170 -2 -2 -2 -2 -1 0 -1 -1
1532257528112117 0 -2 -4 4 14 15 -4 -2
1532257528149018 2 0 -3 -2 1 1 4 1
1532257528171972 0 1 0 2 0 0 -2 -1
1532257528224273 0 -2 -5 -5 -5 -4 1 -2
1532257528239233 -1 2 2 1 -3 3 6 -1
1532257528344917 -1 -2 -2 -3 4 12 2 -3
1532257528366857 1 0 0 0 -10 -65 4 1
1532257528381818 -3 -1 -1 -2 -9 -16 -9 -1
1532257528404816 0 -3 0 2 -3 -16 2 9
1532257528441730 2 -2 -4 -5 -10 -8 -73 -7
1532257528464656 1 0 -1 5 15 -16 -17 1
1532257528516518 3 2 3 -1 -2 -6 43 2
1532257528554416 -4 2 1 1 3 -23 19 5
1532257528584336 5 -7 -2 1 5 5 -28 -2
1532257528622235 5 -2 -3 -3 -2 -3 0 -2
1532257528637195 2 -3 -1 0 1 23 -2 0
1532257528667115 -4 -15 -13 -4 0 -7 -7 -6
1532257528697034 0 2 1 -1 -2 -3 -7 0
1532257528711995 3 2 0 2 0 29 11 -1
1532257528748896 0 0 1 -1 -3 -14 -10 -1
1532257528772832 -2 -3 -2 -3 2 11 9 -1
1532257528794773 1 0 0 -4 -5 -8 4 1
1532257528824693 -5 1 -1 -3 -6 -35 -4 -2
1532257528839653 0 -1 -1 0 15 23 0 -2
1532257528906479 -2 2 -3 -2 -8 7 -9 -4
1532257528929413 -3 0 -1 -3 13 88 1 -2
1532257528952352 0 1 -1 2 -1 -22 2 2
1532257528974293 -8 -5 -6 -4 11 14 -7 -10
1532257529012192 0 1 4 4 6 29 2 1
1532257529049093 0 1 -2 0 4 -1 1 -1
1532257529072032 -3 -8 -4 -12 -2 47 1 -2
1532257529101953 -1 4 2 1 -6 -26 2 1
1532257529146832 3 2 9 -1 -1 9 -2 0
1532257529169771 -1 0 -3 -2 -2 5 -2 0
1532257529191718 -3 -5 -5 -2 -1 0 2 0
1532257529221632 1 1 0 -1 0 -1 -1 0
1532257529236592 -2 0 1 1 -1 0 1 -1
1532257529266512 -1 -4 -3 -4 -2 -2 -2 -2
1532257529289450 2 -2 0 0 -3 -3 -2 -3
1532257529311392 -1 -1 0 -1 -1 -1 -1 1
1532257529334330 -2 2 -2 -5 -1 -3 -3 -2
1532257529364250 -1 1 0 -3 -1 -1 -2 1
1532257529387189 0 -3 -3 -1 -3 -3 -2 -2
1532257529417109 -1 -2 -3 -3 -2 -1 4 -1
1532257529447029 -3 0 -1 -1 0 -2 -2 -1
1532257529476949 -3 -2 -2 0 -1 0 -4 -2
1532257529498890 1 0 1 0 0 0 1 -1
1532257529514848 -3 -4 -3 -2 -3 -1 -1 -1
1532257529589648 -1 -1 -1 0 0 -1 0 0
1532257529611589 0 0 1 -2 -1 -1 -1 0
1532257529671428 0 0 0 1 0 -1 -1 -1
1532257529694368 -3 -1 0 -1 -2 -3 -2 0
1532257529732266 0 -1 0 0 -2 -2 0 -1
1532257529747226 0 0 -2 -1 0 0 -1 0
1532257529762186 0 -2 0 -1 -2 0 -4 0
1532257529792106 -2 0 -3 -3 0 -2 -1 1
1532257529807066 -1 -1 -3 0 -1 -1 -1 -1
1532257529829008 2 -1 -1 0 -1 2 2 -2
1532257529851947 -2 -1 -2 -1 0 -2 1 0
1532257529867904 -2 0 0 -3 0 -1 -2 -1
1532257529889845 -2 0 -1 -2 -3 1 1 -1
1532257529911786 -1 -1 -2 -2 -3 -1 -2 -2
1532257529926745 0 1 0 -2 0 1 0 0
1532257529956666 0 -1 0 1 1 0 -2 -2
1532257529994565 -2 -3 -2 -1 0 -2 -4 -3
1532257530031466 -1 0 0 0 -1 -1 3 0
1532257530061386 0 -1 -2 -2 -1 1 7 0
1532257530084325 1 -1 -2 -1 -1 -2 -3 -1
1532257530099285 -2 -2 -1 0 0 -2 -7 -3
1532257530114245 1 -1 0 -1 -1 -3 -3 1
1532257530152144 -1 0 -1 0 -2 -1 -2 -1
1532257530167104 2 0 -1 0 0 -2 -8 -1
1532257530211983 -11 0 0 -1 -1 -1 -1 -1
1532257530234922 -21 2 -1 -2 0 -1 -2 -6
1532257530256863 4 1 1 -2 -2 0 -2 0
1532257530279802 2 -2 -1 1 -1 0 -1 0
1532257530301744 5 -1 -3 0 0 -1 0 2
1532257530339642 2 -1 -1 -2 0 1 -1 3
1532257530376543 -1 -1 1 -2 -2 -1 -1 -2
1532257530453356 -2 -1 -3 -2 -3 0 0 -3
1532257530497221 -15 -2 1 1 1 -1 -3 -4
1532257530564042 0 -1 -1 0 -1 0 2 2
1532257530662778 -4 -1 0 -2 -2 -2 -2 -1
1532257530676741 1 0 -1 0 0 0 -2 0
1532257530721620 1 -2 -1 -2 -3 1 -4 0
1532257530789439 -2 0 -1 0 1 4 8 1
1532257530827338 -3 -1 -1 -1 -2 2 -4 0
1532257530872218 -1 0 -3 -1 -1 -4 1 0
1532257530924079 0 1 1 0 2 1 -1 0
1532257530999876 0 -1 2 1 2 13 5 -1
1532257531051739 -2 1 2 7 20 25 1 -1
1532257531066698 0 -2 -4 -5 0 -18 -1 -3
1532257531104597 0 -1 -1 -4 6 -4 -4 0
1532257531179396 -1 0 0 4 -6 0 -1 -1
1532257531217295 -4 -4 -5 -13 -10 4 -14 -6
1532257531434715 2 7 3 0 -1 -3 3 1
1532257531667092 -7 4 -10 -10 -10 -13 -7 -2
1532257531711972 1 3 4 -3 1 -16 -14 1
1532257531756853 2 -3 -7 6 -19 -21 6 5
1532257531794751 -3 2 10 -9 -10 -21 7 1
1532257531816692 -2 1 2 -2 8 27 -1 -2
1532257531846612 -6 -14 24 -2 -3 -17 -17 -8
1532257531906452 -3 -5 -3 9 15 21 2 1
1532257531937369 2 8 5 6 -42 -21 -3 -3
1532257532093951 1 -1 -15 -6 11 -1 2 -1
1532257532229588 -1 -7 -3 -12 -6 -13 4 -1
1532257532349268 0 2 -2 0 -2 -3 0 -1
1532257532439028 3 0 -4 -7 1 1 -1 -1
1532257532461967 -1 -2 4 14 -3 -6 11 0
1532257532514825 -4 -8 -8 -17 -12 14 -6 -3
1532257532536767 2 9 9 11 -38 -3 13 1
1532257532574665 0 0 11 7 -6 -51 -14 -4
1532257532664425 1 -3 -3 -6 11 26 1 -1
1532257532710313 -4 -4 -3 -2 -10 25 -5 -4
1532257532769146 0 -3 -3 4 -19 -42 -5 0
1532257532858905 -3 -3 -10 -14 11 5 10 -2
1532257532905779 -1 -3 3 -2 -3 -39 -3 0
1532257532956645 -3 0 7 1 -27 -16 -5 -3
1532257532986564 -2 0 0 2 -7 -12 -3 -1
1532257533003521 -2 -1 3 -5 9 36 -3 -2
1532257533016487 -1 1 -3 -1 2 -10 -5 -1
1532257533046404 2 0 6 8 -6 5 0 1
1532257533099263 -1 -2 3 7 20 8 -1 -1
1532257533137161 -1 -2 -4 -2 1 8 -1 -1
1532257533152122 0 -1 0 3 -27 -4 -6 -2
1532257533182041 -1 1 1 0 -9 -25 1 -1
1532257533218943 -1 -2 -1 4 9 2 -4 -4
1532257533233903 0 1 0 3 -3 5 2 1
1532257533286761 -1 0 0 -1 11 22 -2 0
1532257533324660 1 0 -1 1 10 -2 -5 0
1532257533369540 -2 -3 -2 0 5 -4 -2 -3
1532257533414420 -1 -1 -3 -1 2 -2 -5 0
1532257533429380 -1 0 0 -2 -12 -2 -1 -2
1532257533452319 -1 -2 0 1 33 11 -1 -1
1532257533474259 -2 -1 0 -2 -14 -4 1 -1
1532257533489220 2 1 0 -1 -8 -38 -4 0
1532257533512158 0 0 -2 3 14 3 2 0
1532257533534100 -1 -3 -2 0 5 8 1 0
1532257533564020 -1 -2 -2 -2 3 9 0 -3
1532257533601919 -3 0 -2 0 4 15 0 -1
1532257533631838 -1 -2 -1 0 18 2 3 -1
1532257533654777 -1 -1 -2 -3 0 -6 0 -1
1532257533691679 -2 -3 1 0 3 8 -2 -1
1532257533706639 -1 0 -1 -3 0 -6 0 1
1532257533729577 -2 -3 -2 1 7 2 -3 -3
1532257533751519 0 -2 -1 -2 1 -10 -1 -3
1532257533774457 -1 -2 -1 -3 10 -7 -3 -2
1532257533796399 -3 -1 -3 -1 5 2 -1 -2
1532257533827316 -2 -1 -2 -3 1 -10 -2 -2
1532257533864217 -1 0 0 0 10 26 -2 0
1532257533894137 -1 -1 -2 -2 0 5 -1 0
1532257533909097 0 -1 -2 -1 -6 2 -3 -3
1532257533924057 0 -3 0 1 11 -3 -1 -2
1532257533939017 -1 1 -1 -1 -5 19 0 0
1532257533953976 -2 0 2 5 15 26 1 0
1532257533991878 -2 -3 -3 -5 -7 -12 0 0
1532257534014814 -1 -2 -2 -4 0 4 0 0
1532257534029774 -1 1 0 1 -3 13 -2 -2
1532257534044734 0 -2 -3 -4 -3 -21 -2 -1
1532257534066676 0 0 0 -1 -7 -1 1 -2
1532257534096595 -3 -2 -2 0 -7 -4 -2 -1
1532257534119534 -1 0 0 0 -2 -3 -2 -2
1532257534149454 0 -1 0 -1 -7 -2 0 -1
1532257534179374 -1 0 -1 -3 -1 -6 1 0
1532257534202313 -2 -2 -1 -4 -3 -4 0 -1
1532257534224254 -1 -2 -2 -4 2 -6 -4 -1
1532257534247193 -2 0 -3 0 -5 -5 -3 -1
1532257534262153 1 -3 1 3 15 6 2 2
1532257534277113 -2 -2 -1 0 -2 -3 -3 0
1532257534307033 -1 0 -2 -2 -3 -11 -1 -1
1532257534321993 -2 -2 -1 -1 11 -2 -1 -2
1532257534336953 -1 -2 1 -1 -8 2 -1 -1
1532257534358894 -2 -1 0 -2 -6 -6 -2 -2
1532257534373854 0 0 3 7 -2 -6 1 1
1532257534396793 0 0 0 2 -5 -14 0 0
1532257534426713 0 0 -1 -2 -11 -8 -1 -1
1532257534449651 -1 -1 1 -2 -4 0 -2 0
1532257534464612 1 1 -1 0 -3 0 -2 0
1532257534494531 -1 -2 0 1 9 -2 -1 -2
1532257534509491 0 0 -2 0 -9 -2 1 -1

1532257534569332 0 -1 0 0 8 -2 -1 -1
1532257534592270 0 -1 0 0 -2 -18 0 -1
1532257534637150 -2 0 -3 1 -1 -2 -1 0
1532257534667070 -2 -3 -1 -2 4 33 -2 -2
1532257534689011 -2 -1 -3 -2 8 -2 -1 0
1532257534711950 -2 -1 0 -3 6 -21 -3 -2
1532257534734889 1 0 -2 0 13 -1 -1 0
1532257534756830 -1 0 -1 0 6 10 -1 1
1532257534794729 -1 -1 -3 -2 -16 -11 -2 0
1532257534809688 -2 -3 0 -3 -26 -12 -1 -1
1532257534861550 -3 -3 -2 -3 -4 8 -1 -2
1532257534885487 0 -1 -1 -1 4 -4 -2 0
1532257534899448 -1 -1 -2 -1 -12 0 -1 -3
1532257534922387 1 0 0 0 -16 -5 0 -2
1532257534944328 -1 -3 0 -2 2 4 1 -1
1532257534959289 -2 0 -3 -4 -13 -7 -4 1
1532257534997187 -2 0 -1 4 27 9 2 -2
1532257535019130 -3 0 -1 0 -4 -6 -1 -1
1532257535049049 -1 -2 -2 -2 -6 -4 -2 -2
1532257535071987 -3 -1 -2 -6 -8 -13 -1 -4
1532257535109886 1 -1 0 -2 -1 3 0 0
1532257535131833 -3 -3 -3 -3 10 -16 -2 -2
1532257535154772 0 1 1 6 13 36 12 3
1532257535176712 -1 -2 -1 -2 -12 -4 -4 -3
1532257535191674 2 -1 2 4 16 85 20 4
1532257535214612 -5 -4 -5 -7 0 19 -13 -5
1532257535236553 -1 0 -1 0 12 7 25 0
1532257535251519 0 1 1 1 2 -11 -5 0
1532257535274458 0 -1 -1 -4 -8 -1 12 -1
1532257535296399 0 1 -1 1 -3 3 16 3
1532257535312372 -4 -3 -3 -6 2 44 -8 -6
1532257535342276 -2 -2 0 -2 -10 -44 -9 0
1532257535371393 -3 -1 -1 -1 -9 -37 0 -1
1532257535394332 1 -3 -3 -3 -1 0 -1 -2
1532257535447195 0 0 0 -2 -1 16 0 0
1532257535469132 -1 -1 -4 -2 2 29 -1 -3
1532257535499051 -2 0 -1 -1 1 -22 0 1
1532257535514012 -2 -2 -3 0 -7 -6 -1 -1
1532257535543932 -1 -2 -1 2 4 40 -2 1
1532257535566870 -2 -1 1 -2 5 17 0 -2
1532257535589809 -2 0 -1 3 2 -7 -2 0
1532257535619730 0 -2 -2 -2 -1 -3 -3 -2
1532257535634386 -1 -2 -3 -2 2 12 -2 -2
1532257535657337 1 -1 0 -2 -3 4 1 0
1532257535672285 -1 -3 -2 -1 1 -3 0 -1
1532257535694226 -3 -1 -2 -4 -4 14 1 -3
1532257535717164 0 1 -2 -2 -10 -16 0 0
1532257535732125 0 -1 -1 -2 0 -9 -1 -2
1532257535754065 0 0 1 -1 -2 -11 1 -1
1532257535777004 0 -1 1 0 -8 -34 -1 -2
1532257535798946 -2 -2 -1 0 5 10 3 -2
1532257535821884 -1 0 0 -1 -3 -13 -3 1
1532257535844823 -1 0 -2 -2 8 16 1 -1
1532257535859783 -1 -1 0 0 0 7 -1 -1
1532257535874742 -1 -2 -2 -2 -1 7 1 1
1532257535896685 -3 -2 -1 0 10 -11 0 -1
1532257535919640 -2 -1 1 0 0 -11 0 1
1532257535941564 -1 0 -2 -1 -5 -9 -2 -1
1532257535964503 0 -3 -1 0 1 -4 1 0
1532257535979463 1 -1 -1 0 -3 -6 -3 0
1532257536002405 -1 0 -2 -1 -1 -5 0 -1
1532257536039303 -3 0 -2 -3 -8 3 -3 -3
1532257536077202 -1 -1 -3 -3 2 21 0 -1
1532257536099142 0 -2 -2 -3 -1 0 -3 0
1532257536152001 -4 0 0 0 0 -1 0 -1
1532257536249740 -1 -1 0 -1 -1 -3 -1 0
1532257536286642 -1 0 0 3 3 0 1 0
1532257536339500 -1 -1 0 1 -14 -2 1 -2
1532257536376410 0 1 -2 -4 14 0 -1 -2
1532257536392359 -2 -3 -3 -3 -23 -4 -1 -4
1532257536414300 2 -1 -1 1 9 1 -1 0
1532257536437239 -1 1 0 -3 -6 -3 0 -2
1532257536467158 0 -3 -1 1 -1 -2 -1 2
1532257536497079 -1 -2 0 1 -2 -2 0 -3
1532257536533979 -3 -1 -1 -1 -2 -1 1 1
1532257536563900 -1 0 0 1 0 -1 -2 -2
1532257536594818 -2 -1 0 -3 0 -1 -2 -1
1532257536639697 0 -1 -2 -1 3 -1 -2 -1
1532257536669617 -2 0 0 -1 -6 2 0 -1
1532257536692556 0 -3 -2 -1 4 -2 -1 -1
1532257536706519 2 -1 -1 -3 -2 -2 -5 1
1532257536721479 -1 -1 1 0 0 2 6 -1
1532257536759377 -3 -1 0 0 -1 -1 0 -1
1532257536774337 -1 0 -3 -2 -1 -4 -3 -2
1532257536804258 1 -1 -1 0 0 -1 1 -2
1532257536842156 1 -1 -2 -5 0 0 10 0
1532257536864097 0 -3 -3 -5 -5 -1 -1 0
1532257536908977 0 0 -1 2 1 0 -4 -3
1532257536946876 -2 -1 0 -1 -3 -1 -9 -1
1532257537029655 0 -1 -2 0 -2 -3 -3 -1
1532257537051596 -2 -2 0 -5 -7 1 4 0
1532257537157314 -1 -2 -2 1 1 -1 -4 0
1532257537224134 2 -1 0 3 16 2 2 -1
1532257537283975 -1 -2 -2 -1 -4 -1 4 0
1532257537419611 -1 0 1 -4 -2 -9 1 -2
1532257537479451 -5 -4 -5 -9 -4 -33 -14 -6
1532257537562230 -3 -4 -7 -10 -17 -18 -1 -2
1532257537696870 -3 -5 -4 -9 -26 -30 -2 -3
1532257537764689 3 -5 -15 -2 -2 7 -2 3
1532257537794609 3 17 18 -6 -6 14 4 2
1532257537861430 -3 -30 25 6 5 -7 0 -2
1532257537929249 0 10 -1 4 7 21 4 -1
1532257538004049 -2 -19 -30 -3 -12 -4 1 1
1532257538048929 0 6 -5 3 2 5 4 2
1532257538086828 0 -4 -9 -3 5 12 6 2
1532257538176588 0 9 11 -9 -31 -23 0 0
1532257538252388 2 -22 -42 13 9 15 6 0
1532257538282305 -1 -4 -3 8 -2 -5 -5 -5
1532257538327185 -1 -10 -23 -5 -3 -5 -12 -5
1532257538357105 -2 -6 -2 -4 -11 3 -4 -4
1532257538381041 2 3 4 -1 1 -2 -1 -1
1532257538401986 -1 1 6 -1 -3 -3 -1 -1
1532257538438886 10 -5 -10 -4 -2 0 -6 -3
1532257538461825 8 -4 -7 -2 1 7 11 -2
1532257538492742 3 3 3 -4 -4 -6 14 6
1532257538529643 4 0 0 -2 -2 2 -10 -1
1532257538574524 -7 2 0 -4 -7 -26 -24 -8
1532257538642342 2 -1 0 -3 -22 -6 3 0
1532257538657302 -5 -6 -5 -5 7 20 -56 -7
1532257538709164 -2 -2 0 4 16 -17 18 -1
1532257538783964 -1 2 -3 5 28 6 8 0
1532257538844801 -3 -4 -7 -5 -7 -9 -6 -2
1532257538949520 -7 -1 0 1 -7 -9 -3 -1
1532257538964480 -16 -2 -1 1 14 14 0 -3
1532257539017339 19 2 1 1 4 15 14 0
1532257539077179 2 0 0 -2 -5 -3 6 -1
1532257539114081 -4 -1 -3 -3 -2 33 0 -3
1532257539151979 -3 -1 0 -3 -10 -12 -4 -2
1532257539181899 -1 -1 -1 2 -1 13 3 1
1532257539234757 0 0 -1 -3 -30 -2 5 0
1532257539279638 -1 0 0 -4 0 -11 -4 0
1532257539361419 -3 -1 -1 -4 -45 -6 -9 -1
1532257539399318 2 -1 -1 0 13 -5 1 0
1532257539429238 -3 0 -2 0 -6 -6 -3 -2
1532257539504038 -2 -1 -1 0 11 8 -1 -3
1532257539632711 -5 0 0 -1 4 7 2 0
1532257539669595 -13 -5 -2 1 47 21 12 -3
1532257539744395 -2 -1 -2 -3 -12 -2 4 2
1532257539827174 -8 -1 -1 1 -5 4 9 1
1532257539842134 -12 0 0 0 -9 -8 -11 -2
1532257539879035 -9 -1 -1 1 5 3 -10 -3
1532257539916934 1 -4 2 1 12 -4 6 0
1532257539946854 -4 -2 1 0 24 23 12 2
1532257539999713 -20 0 0 -3 -12 -28 -9 -3
1532257540081494 -6 -2 -3 -3 4 11 -1 -4
1532257540104432 21 1 -2 0 -8 2 -3 0
1532257540172251 -4 0 -1 -2 3 4 -3 2
1532257540209152 -3 0 0 1 -8 1 -1 -6
1532257540224112 -5 -2 -3 -1 -10 -11 -2 -4
1532257540262011 10 -1 0 1 3 14 -8 -1
1532257540283953 3 1 -1 1 24 5 -8 1
1532257540314869 0 -1 0 1 2 -2 -5 -2
1532257540336811 0 -1 -3 -4 -1 19 7 -3
1532257540359757 -1 -2 -1 -1 -25 -9 -5 -1
1532257540374710 -3 -2 -1 0 1 -5 -1 1
1532257540389669 0 -1 -2 0 8 2 -2 0
1532257540411611 1 0 -1 -1 10 -10 -7 -3
1532257540464470 1 -2 -1 -2 -6 -3 7 -1
1532257540486411 -1 0 0 -1 -15 -16 -7 -2
1532257540502378 1 -1 -1 -2 -35 -18 -4 0
1532257540532288 2 -3 0 0 14 3 -6 -2
1532257540547248 -6 0 -2 0 7 14 1 -1
1532257540562219 -3 -1 0 0 11 2 -2 1
1532257540607088 -1 -2 -2 -1 -1 0 -2 0
1532257540629030 -2 0 1 1 -3 2 0 -1
1532257540673910 -1 -1 -2 -3 -5 3 2 1
1532257540696848 -1 -1 -1 -3 -14 -2 -3 -1
1532257540719787 0 -2 -1 -1 -8 -2 -1 -1
1532257540749706 -2 -1 -1 -3 -6 -1 -1 1
1532257540771650 -1 -1 0 -1 4 3 -2 -1
1532257540786609 -1 0 -2 0 3 2 -1 -1
1532257540801568 0 -2 -2 -1 -5 1 -2 -1
1532257540824507 -3 -1 -1 0 1 -3 0 -3
1532257540839467 -2 0 -1 -1 13 -3 -1 -2
1532257540861408 0 -1 0 0 19 9 2 -2
1532257540899307 0 1 0 -1 -12 -6 1 -1
1532257540929226 0 -2 -1 1 19 3 0 0
1532257540944187 -2 0 -1 -1 12 -2 -5 -2
1532257540974107 -2 -3 -2 -3 -7 4 5 -1

1532257540997056 0 0 -1 -1 3 1 -2 0
1532257541041926 0 -1 1 -2 -1 -2 -4 -1
1532257541071846 0 0 -2 -3 -47 -11 -1 0
1532257541094784 -3 -2 -1 0 6 2 6 0
1532257541146645 -4 -1 -1 0 1 0 -1 -1
1532257541161605 0 0 -1 0 0 -1 1 1
1532257541176565 -1 -1 -2 -1 -6 -13 -2 -1
1532257541199504 -1 -2 -1 -2 0 4 0 -1
1532257541214475 -3 0 1 0 -2 -1 0 -1
1532257541237413 0 -2 0 -1 -4 0 -2 0
1532257541267333 -2 -1 -2 -2 2 27 -1 -1
1532257541297253 0 0 -1 -1 -3 -11 -2 -2
1532257541319195 -2 -2 0 -1 -4 -8 1 -2
1532257541334155 -1 1 -1 1 -1 -2 -1 1
1532257541357093 -2 -1 -2 0 1 2 -1 1
1532257541372053 -2 -1 -1 0 -2 0 2 0
1532257541387013 0 -2 -1 -2 -2 -4 0 0
1532257541423915 -2 -1 0 0 0 0 0 0
1532257541461813 0 -1 -2 -1 -1 -1 -2 0
1532257541484752 -2 -2 -2 -2 -3 1 0 -3
1532257541506693 -1 -1 -1 -1 -2 -2 -1 -1
1532257541536613 0 -2 -2 -4 -2 -1 -1 -1
1532257541551573 -1 -1 -3 -2 0 1 -1 0
1532257541581493 -1 0 -1 -1 -2 -2 -1 0
1532257541604431 -1 0 -1 -1 -2 -1 0 0
1532257541634352 -1 0 -1 -1 -2 -1 0 0
1532257541649312 -2 -2 0 0 -2 -3 -2 -1
1532257541687210 0 0 -3 -1 2 1 -1 0
1532257541717130 -1 -1 -1 -1 -1 -1 -1 -3
1532257541754056 -2 -1 -1 -2 -1 -2 1 0
1532257541784224 -2 0 -1 -1 -2 -3 -1 -1
1532257541822123 -1 0 -1 0 -1 0 -1 -2
1532257541837083 -1 -2 -1 0 -2 0 -1 -3
1532257541888944 0 -1 -1 -1 -3 0 -1 1
1532257541911883 -2 -2 0 -1 -1 -2 -1 0
1532257541949782 -2 -1 -1 0 -1 -2 -2 -1
1532257541979702 0 -1 -1 -1 1 -2 -1 -2
1532257542009622 -2 -3 -2 0 -2 -1 1 0
1532257542024582 -2 -1 -1 -1 -1 -1 -1 -1
1532257542054502 -3 0 0 -1 -2 1 -3 -1
1532257542091403 1 -2 -1 -1 -1 -3 1 0
1532257542129308 -2 0 0 0 0 -1 1 -1
1532257542167206 1 -1 -1 0 -2 -1 -2 -2
1532257542189148 0 -1 1 0 -1 0 0 0
1532257542219081 -2 -1 -2 -2 -2 -1 -1 -1
1532257542256966 -1 -2 -1 1 -1 -1 0 0
1532257542271927 -2 1 -2 -2 -1 -1 0 -2
1532257542301848 0 -1 -1 -1 2 -1 -1 -1
1532257542324785 0 -1 -1 0 0 0 -2 0
1532257542354717 0 -2 0 -1 1 -2 -2 1
1532257542391607 0 -1 -2 1 -2 1 0 -1
1532257542421527 -1 -1 -1 -1 -1 -1 -1 -1
1532257542444465 -1 -1 -1 0 -3 -2 0 0
1532257542497324 0 -2 -1 -1 -1 -2 -1 -2
1532257542534225 0 -1 -1 -1 -1 -2 1 -1
1532257542579105 0 0 -1 -2 -1 0 -1 -1
1532257542594065 -1 -2 0 -1 2 -1 -1 -1
1532257542646924 -1 0 -1 -2 -1 -2 0 -1
1532257542661883 0 -1 -2 -2 2 -1 -1 -2
1532257542699783 0 -2 -1 -2 -3 -2 -2 -1
1532257542721723 -1 -1 -1 0 -1 0 -2 -2
1532257542759623 0 0 -1 -1 -2 -1 0 -2
1532257542834422 -2 -2 -2 0 0 -1 -2 -1
1532257542864342 -1 0 -1 1 -3 -1 -1 1
1532257542909223 -1 -1 0 0 0 -2 -1 -3
1532257542932161 0 -1 0 -3 -1 -1 0 -1
1532257543021921 -1 -1 -1 -1 -1 0 -3 0
1532257543051842 -2 -1 -1 1 -1 0 -3 -2
1532257543074780 1 0 -2 -2 -1 0 0 1
1532257543089740 -1 0 -1 -1 -1 -1 0 -3
1532257543126641 1 1 0 -1 -1 0 -2 -2
1532257543149580 -4 -2 -1 -1 -4 0 9 -1
1532257543187478 -2 -2 -3 -1 -2 1 2 -3
1532257543201441 -6 -1 -1 0 -1 -3 -4 -2
1532257543216401 3 -1 -1 0 -2 0 -2 0
1532257543247318 -11 -1 1 -2 3 -2 -1 -2
1532257543277238 -1 -3 -1 -2 -1 0 0 -4
1532257543329099 -1 1 -2 -1 0 0 -1 -2
1532257543359020 17 -2 -2 -1 -2 -3 -4 -4
1532257543373980 1 -3 -2 -1 0 0 -3 3
1532257543388939 -6 -2 -1 -1 1 0 7 -7
1532257543419856 -7 0 0 -2 -4 3 0 -2
1532257543464737 1 -2 -2 -2 0 0 -1 -1
1532257543494657 0 -1 0 0 10 8 3 1
1532257543531558 3 -1 -2 -2 -7 -3 -10 2
1532257543576438 -5 0 -1 -1 -4 0 2 -1
1532257543591398 0 -1 -1 -3 -1 0 6 -2
1532257543644257 -5 -1 -3 -3 1 3 -3 -5
1532257543689137 -3 0 -2 -2 -3 0 -6 -2
1532257543727035 -1 -2 2 10 14 -1 1 -2
1532257543763937 -1 -1 0 1 -12 -30 -8 -1
1532257543794854 0 -2 -3 -3 -12 15 -6 -3
1532257543816795 -23 -16 -7 -13 -14 6 -1 -3
1532257543891600 15 8 5 13 10 10 3 3
1532257544042193 -3 -2 0 9 40 18 1 -3
1532257544094054 -1 10 -3 -23 -26 27 -5 -3
1532257544153894 6 -3 -2 -3 -17 -1 -2 4
1532257544206753 -3 -5 -1 -5 6 -7 -9 1
1532257544334411 -18 -3 -1 -2 -3 7 4 -4
1532257544372310 9 4 3 1 -6 -8 -4 2
1532257544432150 0 28 14 -8 -3 23 2 2
1532257544484011 -30 -23 23 -2 1 -5 -1 -10
1532257544513931 -2 -7 -30 9 21 -15 -2 -3
1532257544536870 12 -7 34 -1 -10 -49 -18 3
1532257544559808 13 -21 -41 -14 31 58 8 5
1532257544589728 -5 -14 -28 -5 -14 15 3 5
1532257544612667 -1 7 22 1 -14 -20 -11 -12
1532257544702427 -3 3 0 -5 -23 -1 -4 -4
1532257544724368 6 5 -11 10 4 -6 4 2
1532257544762267 -3 4 6 -2 0 -7 -1 -2
1532257544784208 -1 6 4 -1 5 -4 -2 0
1532257544799169 -3 5 -11 -4 -4 0 -3 -1
1532257544829088 -1 0 1 0 -1 -1 0 -1
1532257544866987 0 -7 -7 -2 1 -3 1 -2
1532257544888928 -1 -3 -3 0 -2 -2 -3 -1
1532257544934806 0 -1 0 2 -1 -3 -3 -2
1532257544949766 -1 0 0 -2 -2 -12 -3 0
1532257544964726 3 1 1 -3 -3 11 3 0
1532257544994646 4 2 0 2 1 -1 -4 0
1532257545016587 -5 -6 -4 -1 4 0 2 -1
1532257545054486 0 -1 3 -5 3 0 1 -1
1532257545069446 -3 -1 -2 1 14 5 0 0
1532257545084406 0 2 -1 -5 11 3 9 0
1532257545144246 -1 0 -4 -1 0 -32 -4 -1
1532257545159206 -1 -4 -4 0 -4 11 -4 -2
1532257545174165 -4 1 -7 -17 -19 -6 -5 -2
1532257545197104 0 0 1 -3 -2 2 0 -2
1532257545241984 -2 -1 -1 -12 13 21 15 -3
1532257545279883 -3 -2 -5 -9 -9 6 -5 -2
1532257545301836 -1 -1 -2 4 4 -13 -3 0
1532257545331744 4 0 2 10 15 -74 -4 0
1532257545354683 -1 -1 -3 -7 -10 17 -5 -1
1532257545399563 -1 0 -2 -1 3 45 2 0
1532257545429483 -1 -1 0 -1 -7 -12 -2 -2
1532257545483339 -3 -2 0 -3 -7 -3 -1 -1
1532257545512262 -1 0 0 -2 -3 -3 -2 -1
1532257545542182 -2 0 0 -2 9 -5 -3 -2
1532257545564123 0 0 -3 0 7 14 -1 -1
1532257545579082 0 0 -2 -1 4 7 0 -2
1532257545594043 -1 -2 -2 0 -6 -14 -5 0
1532257545609003 -2 -1 -1 -2 -14 -9 -1 -2
1532257545670837 0 1 2 3 16 1 -1 -3
1532257545691781 -2 0 0 -1 -4 -10 0 0
1532257545715722 -1 -1 -2 0 2 9 1 1
1532257545736662 0 -4 -2 -1 7 -2 -3 -1
1532257545759600 -2 1 -1 -1 -6 -6 -1 -1
1532257545796501 -2 -2 -4 -1 -5 -14 -1 -1
1532257545826421 -1 -3 -1 0 5 1 -2 0
1532257545849360 -1 -1 0 -2 2 11 -2 -3
1532257545872299 0 -2 0 0 1 -4 1 -1
1532257545894240 -1 0 0 2 -5 -6 -2 -1
1532257545932139 -1 1 0 -2 -4 -5 -2 -1
1532257545962059 0 1 -1 -1 2 1 -2 -2
1532257545991979 0 -1 -1 -1 -2 0 0 1
1532257546021899 -1 -3 -1 0 2 -2 1 -2
1532257546036859 -1 -1 0 -1 9 4 0 -2
1532257546059797 -3 -2 0 -2 2 6 1 1
1532257546134598 1 -2 -1 -1 -4 -4 -1 -1
1532257546149557 -1 -2 -2 -2 1 5 -1 -1
1532257546194437 -1 -1 0 1 10 4 -1 -1
1532257546209411 -1 -1 0 0 -4 -5 0 0
1532257546262256 0 1 0 0 -8 0 -1 -2
1532257546307136 0 -2 -2 -1 11 7 1 1
1532257546329077 -1 0 0 -2 -7 -5 -3 -1
1532257546381936 0 -2 -2 -2 -3 -3 -2 0
1532257546419835 2 1 1 -1 -6 0 0 2
1532257546486656 -1 -1 -2 -1 -6 6 0 -1
1532257546516576 0 -1 -2 0 5 -1 -2 0
1532257546554475 -1 -2 1 -1 1 -2 -2 -1
1532257546584397 -1 -2 -1 -3 -1 -2 0 0
1532257546607333 -1 -1 1 -1 -2 -11 -5 -2
1532257546629274 -2 -1 -1 0 -1 -1 1 2
1532257546659196 -2 0 -3 1 2 1 -1 -2
1532257546742971 -1 -2 -1 -1 -3 -3 -1 -1
1532257546763914 0 -2 -1 -1 0 -7 -2 0
1532257546786853 -1 -1 -1 -2 2 -1 -1 -3
1532257546869631 -2 -2 -3 -3 -3 -7 -2 -1
1532257546906533 0 -1 0 -1 0 2 0 -1
1532257546921493 -2 0 -1 -3 -2 2 0 -2
1532257546974352 0 -1 -1 -2 -3 2 -1 1
1532257547019234 -3 -3 -1 0 -1 -1 -1 0
1532257547049152 -1 -1 0 0 0 -1 -1 0
1532257547079071 0 0 -2 -2 -1 -4 0 -1
1532257547094032 1 -1 -1 0 -2 -2 0 -1
1532257547139909 -1 -1 -1 -1 -2 -1 -1 -1
1532257547161850 0 0 -2 0 -4 -3 0 0
1532257547229669 0 0 1 0 4 -1 0 -3
1532257547289509 -1 -1 2 0 0 -4 -1 0
1532257547402208 -3 1 -3 -1 0 -2 -1 -1
1532257547439109 -1 -2 0 1 0 -1 0 -1
1532257547469029 0 -1 -1 -2 -4 -3 -1 0
1532257547513909 -2 0 0 -2 -1 -6 -1 0
1532257547529866 -2 0 -2 0 -3 -1 -1 -1
1532257547551808 -2 -1 -1 -1 -4 -3 0 -1
1532257547589706 -3 -1 0 -2 1 0 -1 -2

1532257547626607 -1 -1 -1 0 0 -1 -1 -1
1532257547641568 1 -1 -1 -2 -1 -1 0 -1
1532257547664523 0 -1 -2 0 1 -1 -3 0
1532257547701428 1 -1 -3 1 -1 -1 0 -2
1532257547739323 0 0 -1 -3 0 -1 -1 0
1532257547754283 -1 0 -2 0 1 1 -1 -2
1532257547769243 -2 -1 -1 -2 -2 -10 -2 2
1532257547799163 0 0 -3 -4 -6 -1 -1 -3
1532257547814122 3 -2 -1 0 0 -2 -1 0
1532257547844043 -1 0 -1 1 -3 -22 1 0
1532257547866981 3 -7 -6 -5 -3 -27 -3 -8
1532257547888923 8 -2 0 1 6 14 3 2
1532257547941781 -25 2 1 -1 0 -52 -7 -3
1532257547956741 -10 1 -1 -1 1 -5 -4 -3
1532257547986704 20 0 0 0 2 3 7 4
1532257548001664 -7 -5 0 -3 3 -4 -4 -4
1532257548016624 -21 2 0 0 -2 10 -7 -13
1532257548032055 9 -8 -3 0 0 4 5 10
1532257548047015 -6 -1 -2 1 -2 -13 -14 -6
1532257548084849 9 1 0 -1 2 26 -9 5
1532257548106791 -1 -1 0 0 14 34 -31 -3
1532257548121751 44 -7 -2 -1 -4 6 12 11
1532257548144696 -3 -4 -1 -2 0 13 -13 -3
1532257548181597 12 0 -1 -3 -1 7 9 -3
1532257548204536 -9 -1 0 0 0 4 5 0
1532257548249447 18 -2 -1 1 1 -5 3 21
1532257548264407 -9 5 2 0 1 2 13 -9
1532257548294327 22 -13 -9 -6 -7 -10 -11 14
1532257548317266 -22 -3 1 -2 0 3 10 -2
1532257548377106 -2 -4 -1 -2 0 -12 -11 11
1532257548414006 -8 -6 -6 -2 -2 0 3 -4
1532257548436945 -59 17 -63 -10 -11 -7 -5 -15
1532257548496769 33 -5 10 3 0 11 21 8
1532257548549628 60 8 6 3 3 0 3 17
1532257548579548 5 24 9 4 -2 6 -5 2
1532257548609468 4 -5 -21 -44 42 15 34 20
1532257548654347 58 1 1 29 -78 -42 -5 75
1532257548677286 -33 -11 -5 23 73 -49 -97 -43
1532257548699228 29 0 -5 5 -62 2 51 92
1532257548722166 8 0 5 43 45 100 22 -15
1532257548745105 11 3 3 17 39 16 -8 3
1532257548759068 -24 5 -9 -44 44 87 -38 -97
1532257548774028 -36 2 5 -14 -128 -105 -33 -27
1532257548811926 15 -20 -3 -67 -30 -43 -4 51
1532257548834865 -6 -24 -5 -37 5 58 -24 -46
1532257548856806 0 23 1 21 18 22 -7 2
1532257548879745 27 7 5 35 95 95 29 90
1532257548924625 -6 -4 -19 -25 -19 12 -5 -36
1532257548954545 -2 0 5 12 17 -11 -1 -15
1532257548993441 -6 0 -3 1 -3 22 -7 -12
1532257549014385 -4 1 -1 -4 -6 4 3 0
1532257549037324 3 -3 0 -1 1 -6 -5 4
1532257549059264 4 -1 -1 19 -1 1 2 1
1532257549081393 0 1 -2 -15 -4 8 -4 -1
1532257549097350 5 0 -1 -9 2 5 -4 -3
1532257549119292 4 1 -3 -2 -5 -8 -12 -4
1532257549149211 2 -1 -1 -3 -2 -2 -1 -1
1532257549202082 -1 -1 -2 -1 -7 -13 -10 -3
1532257549238978 3 2 4 8 14 2 3 2
1532257549277007 -1 -2 -4 -5 -4 -10 -3 -2
1532257549314904 -1 0 -1 4 5 -5 -2 0
1532257549351807 -2 -4 -2 -6 -3 2 5 1
1532257549366766 0 0 -2 -17 -13 28 -1 2
1532257549389705 -1 -6 -6 1 -2 -22 -4 -3
1532257549419362 -2 -3 1 -3 9 -4 6 0
1532257549472221 1 -1 -1 -3 -10 5 -2 0
1532257549487188 -2 -2 -1 -7 16 -3 -7 -2
1532257549532067 -2 -2 -5 -7 -2 3 -3 0
1532257549584926 -1 2 2 6 4 1 -3 0
1532257549666708 -2 0 0 -1 -3 -4 2 -2
1532257549704607 -1 -2 -2 2 -8 -42 11 0
1532257549734527 0 5 6 6 -4 15 -1 0
1532257549756468 -1 1 1 -4 -4 10 -1 -1
1532257549779406 0 -3 1 4 11 17 -2 0
1532257549809327 -3 -2 -1 -5 -5 -34 6 -1
1532257549832265 0 2 -1 1 4 79 3 -1
1532257549854207 -1 3 6 4 16 10 7 2
1532257549884127 0 -1 3 5 -26 -14 3 0
1532257549914046 -1 1 -7 -7 2 18 13 3
1532257549929007 1 3 -1 -3 -25 -28 20 0
1532257549951946 3 -3 2 0 0 9 -5 -1
1532257549989849 -1 0 -1 0 12 -5 0 -2
1532257550019764 1 1 0 6 16 -25 1 1
1532257550049684 -1 -1 -1 2 -5 -34 -4 -1
1532257550101545 1 0 0 0 3 33 1 -1
1532257550214244 -1 -1 -1 -1 8 7 -1 -2
1532257550229204 -2 -1 -1 -4 -8 52 -6 -3
1532257550274348 -2 -2 -1 -2 -1 -7 -4 -1
1532257550297286 -2 -2 -4 0 -2 10 -2 -1
1532257550312247 0 1 -1 -1 -5 -9 -2 -2
1532257550349763 -1 -3 0 -2 -1 12 -4 -2
1532257550379683 -1 -1 0 -1 -2 2 -1 -1
1532257550409603 1 1 -1 -1 4 9 0 -1
1532257550439523 -2 0 0 -1 0 9 -1 0
1532257550461465 -1 -2 -1 -1 -3 5 0 0
1532257550492382 -2 -3 -1 -2 -9 -2 -3 0
1532257550529317 0 -2 -1 0 -1 -2 0 -2
1532257550552255 -1 0 -1 0 -1 -4 -1 0
1532257550574197 0 -2 -1 -1 -4 -1 0 -2
1532257550597135 0 -1 -1 1 -3 2 -1 0
1532257550612095 -2 -2 -2 0 -2 -6 -1 1
1532257550665951 -2 -2 -2 -1 4 2 -2 -1
1532257550678916 0 1 -1 -3 -5 -11 -1 -2
1532257550701855 -3 -2 -1 -2 0 1 -2 -1
1532257550724794 -1 0 0 0 -3 1 0 -3
1532257550739753 -1 -1 -2 0 2 5 -1 -1
1532257550761695 -2 0 -1 1 6 22 -1 0
1532257550776655 0 -2 -3 -3 -33 -21 -2 1
1532257550791615 0 0 -1 0 0 14 0 -1
1532257550814553 -1 -2 -3 -3 -6 -10 0 -2
1532257550837098 0 0 -2 -1 2 21 0 0
1532257550852058 -2 1 -1 -2 1 -5 0 1
1532257550873999 -1 -2 1 1 23 20 2 -2
1532257550903919 -2 -2 -3 -2 -1 -15 -2 -1
1532257550919877 -2 -2 -1 -1 -2 -8 -1 -1
1532257550956973 -1 -3 0 1 20 22 -1 -1
1532257550986893 -2 -1 -1 -3 -5 -2 -1 -1
1532257551009832 -1 0 -2 1 0 -1 0 1
1532257551031772 1 -1 -2 4 13 13 0 -1
1532257551061693 1 -1 1 0 3 2 -1 1
1532257551084631 -3 -1 -1 -1 4 -2 -1 0
1532257551099591 -2 -2 0 -1 1 -1 0 -2
1532257551121533 -1 -3 0 1 -2 -18 -4 -1
1532257551136493 -1 -1 -1 1 -4 3 0 -1
1532257551151460 -2 -2 -1 -2 6 -1 1 -1
1532257551189352 -2 -1 1 -1 -7 -8 1 -1
1532257551212291 -1 -1 -2 -2 4 7 0 -2
1532257551242211 -1 0 0 -3 0 -4 -2 -1
1532257551257170 2 -2 -2 -3 -4 1 0 0
1532257551279111 0 -2 -1 0 -3 2 -2 0
1532257551317010 -2 -2 0 -2 6 1 -1 -1
1532257551338952 -1 -1 0 -3 -2 -8 -2 -1
1532257551369869 -2 -1 0 0 3 -9 1 -1
1532257551384852 -3 3 -1 -2 7 -7 0 -1
1532257551406794 -2 0 -1 -3 2 3 1 -1
1532257551421754 0 0 -1 1 -6 -8 -2 -1
1532257551436714 -1 -1 -2 -2 -7 11 -2 2
1532257551474613 -1 0 -1 -1 2 -8 -5 -1
1532257551496554 0 0 -2 -2 3 20 3 -2
1532257551519493 -1 -3 0 0 0 5 -2 1
1532257551541434 0 1 -1 -2 -29 -20 -3 -2
1532257551587311 -2 0 -2 2 3 -3 -2 0
1532257551602272 0 -1 -3 -3 8 8 -2 -3
1532257551632191 -2 -1 -1 -1 20 9 -2 0
1532257551647151 -1 -4 -1 -1 -13 -9 -1 1
1532257551662112 -1 1 -2 5 10 -17 0 -2
1532257551684053 -1 3 0 2 -2 8 -1 -2
1532257551706991 -1 -1 -2 -4 -6 -1 -1 0
1532257551721952 0 -2 -1 -2 -3 -3 -1 -2
1532257551743897 0 -4 -2 1 -17 9 0 -2
1532257551774810 0 0 2 -2 0 3 -3 -2
1532257551796752 -3 -2 0 0 2 -7 -2 0
1532257551819690 0 0 -1 0 7 1 1 -1
1532257551849610 -1 -1 -3 1 2 -10 -2 0
1532257551879530 -2 -4 -2 -2 0 -6 1 0
1532257551901472 -1 -1 0 -1 3 2 0 -1
1532257551931391 -1 -1 0 0 -4 -8 -1 -2
1532257551954330 0 0 -1 0 3 6 0 0
1532257551992233 0 -2 -3 0 0 -4 -1 -1
1532257552014170 2 -2 -1 0 3 -1 0 0
1532257552044090 -1 0 1 2 20 1 4 3
1532257552067029 -1 -1 0 0 -2 -3 1 0
1532257552088970 -1 -2 -2 0 -4 0 0 -1
1532257552118891 0 -1 0 -3 -3 -2 -2 -1
1532257552134860 -2 -2 -2 -1 8 12 -1 -3
1532257552149808 -3 -2 -2 -1 -35 -22 -1 0
1532257552164767 0 -1 -2 0 8 7 1 1
1532257552186709 -1 -1 -3 -2 1 -3 0 -2
1532257552201669 -1 -3 -1 -1 5 10 0 2
1532257552224607 -1 0 0 0 12 6 -1 0
1532257552261508 -2 0 -2 -1 -1 -4 -2 1
1532257552276469 -3 -1 0 1 -4 -19 -3 -2
1532257552299407 -2 -2 -4 -2 -11 -6 1 -2
1532257552329327 -1 -1 -2 -3 -33 -16 -2 -2
1532257552359247 -2 -4 0 -1 -4 -3 0 0
1532257552382186 -1 -1 -1 -1 2 1 -1 -1
1532257552404127 -1 -1 0 -1 1 -5 -2 -1
1532257552427066 2 -2 -2 -2 -2 -6 0 0
1532257552463967 -3 -1 0 -2 -27 -12 -2 0
1532257552486906 0 -2 0 0 11 3 0 0
1532257552509844 3 -2 -2 1 0 -29 -1 0
1532257552531786 2 -1 -3 1 1 14 1 -1
1532257552569687 1 0 -2 -1 0 0 -2 -1
1532257552599605 -1 -2 -1 -1 -2 -9 -2 1
1532257552644485 1 0 -1 1 7 9 0 -1
1532257552704324 -1 -2 -2 -5 -27 14 0 -3
1532257552734245 -2 -1 1 0 7 -7 0 -1
1532257552779125 1 -1 0 -1 0 -5 -1 2
1532257552817023 -1 -2 1 -4 -29 -12 -2 0
1532257552861904 0 -1 -2 -2 -11 -43 -3 -2
1532257552884842 -2 -1 0 -2 -3 13 -1 0
1532257552944682 0 0 -1 0 -1 5 1 1
1532257552966622 -1 -2 -1 -3 9 12 2 -1
1532257552989562 0 0 -1 -2 -1 1 0 0
1532257553019489 -1 -2 -3 -1 5 -32 0 -1
1532257553057391 1 -1 -3 -1 8 2 -7 1
1532257553080319 -1 0 0 2 -4 9 2 -2
1532257553117221 0 1 2 2 8 22 -11 -2
1532257553132180 2 3 5 7 -9 -41 3 4
1532257553154121 -2 -3 -6 -6 6 -8 5 -2
1532257553177060 -1 -5 -1 -16 -2 29 1 1
1532257553199002 -2 -3 -3 -4 7 6 2 -2
1532257553236900 -1 -2 5 7 8 -2 -3 -1
1532257553266820 -1 0 3 22 0 1 1 -3
1532257553326660 -3 -3 -8 -13 1 5 -4 3
1532257553379519 -2 0 -3 -12 1 22 2 2
1532257553529119 1 0 5 17 -37 -82 4 4
1532257553581978 11 3 -3 1 2 16 2 3
1532257553686697 -3 4 -8 -16 -4 -5 -5 -9
1532257553731577 -12 6 -9 2 2 -9 -10 -13
1532257553770474 5 -9 -8 2 -31 -40 -3 -1
1532257553867215 -12 2 24 0 8 -1 2 -6
1532257553919086 -7 0 -5 7 -1 14 3 0
1532257553956984 2 2 7 2 6 -18 -1 5
1532257553971935 -2 -3 -4 15 5 -8 1 2
1532257554084633 12 0 32 -9 -7 15 31 8
1532257554129513 -6 -6 -22 4 -11 2 -8 -5
1532257554151468 1 -18 -45 0 -2 8 13 -2
1532257554174406 -4 -3 -7 5 -1 2 2 2
1532257554204327 -1 1 12 1 2 1 3 2
1532257554264166 -4 -1 2 -4 -3 -2 -3 -2
1532257554317025 -4 1 1 1 -2 2 6 -1
1532257554376880 0 -1 -1 -3 -1 -4 -4 -2
1532257554436708 -2 -2 0 -3 -2 -1 1 2
1532257554459644 -3 -3 -2 -3 -1 -12 4 -2
1532257554489564 2 0 0 -4 2 3 6 2
1532257554526465 -1 4 1 3 -1 -39 -1 -1
1532257554632183 -1 -1 -6 -2 1 -16 -1 -1
1532257554669083 -3 -1 2 4 1 6 -4 -1
1532257554692021 1 0 2 5 -10 -20 0 -1
1532257554713964 3 4 3 2 1 68 -5 -13
1532257554766822 3 -2 -3 0 0 13 0 2
1532257554796743 7 1 2 3 5 7 -1 2
1532257554819681 -8 -2 -11 -4 -8 10 1 -3
1532257554856582 8 -1 2 2 2 -29 -6 1
1532257554879521 -10 0 1 1 0 14 -1 2
1532257554925398 8 -2 -1 -1 13 2 -1 2
1532257554947339 -4 3 2 0 5 -29 -14 1
1532257554962299 0 -4 -2 -1 5 -12 1 0
1532257555007180 -2 -1 -2 0 21 16 21 -3
1532257555029121 0 1 1 -1 -1 -12 5 -3
1532257555044081 2 -1 -2 -3 -5 -3 0 -1
1532257555059041 11 -5 -2 -1 -1 1 -1 0
1532257555141819 -6 0 0 -1 -1 7 12 0
1532257555179718 -4 1 -1 2 -3 -1 -7 0
1532257555194678 21 -1 -2 -2 11 8 0 -2
1532257555224598 -5 -1 -3 0 5 1 -4 0
1532257555269478 0 -1 0 -1 12 3 -6 -2
1532257555284438 -10 -2 0 0 0 2 0 2
1532257555307377 -2 -1 -1 0 -4 -2 3 0
1532257555329318 -2 0 0 -1 -2 11 -1 -1
1532257555344278 -2 -1 1 0 1 1 -1 0
1532257555374198 0 0 0 0 16 10 -1 0
1532257555404118 -10 -1 -1 -1 -4 -4 -8 -1
1532257555442016 -1 -2 -3 -2 -4 -2 2 -2
1532257555471937 5 0 -1 -2 -2 -5 -13 -2
1532257555509835 22 -2 2 0 3 0 5 4
1532257555561697 -3 -2 0 0 3 3 0 3
1532257555576657 13 -1 -1 -3 0 0 -3 0
1532257555606577 17 -1 -1 -2 2 4 -11 3
1532257555636497 4 1 -1 -4 -27 -12 14 2
1532257555666417 8 -1 1 0 16 4 4 0
1532257555689355 -31 -1 0 -2 9 2 -4 -5
1532257555704315 -1 0 -2 2 15 9 4 -5
1532257555727254 1 -2 -2 0 -4 1 -2 2
1532257555749195 2 -1 -3 -2 -4 0 1 0
1532257555764155 1 0 -1 -1 -1 -3 -3 -1
1532257555794075 0 -1 0 -2 -22 -4 -3 -1
1532257555823995 7 -2 -1 1 -5 -3 0 0
1532257555853915 -13 -1 -1 1 1 -1 -3 -3
1532257555869873 -6 -2 -2 -1 1 0 1 -1
1532257555891814 -16 0 -1 -2 2 1 -1 0
1532257555936694 2 -2 -2 0 12 4 -1 -2
1532257555974592 -2 -2 0 -1 3 0 -2 1
1532257556004513 -32 -2 0 -2 2 1 0 -3
1532257556064352 -2 -1 -1 -2 0 0 -3 -1
1532257556094272 -1 0 -2 1 -2 0 -1 -2
1532257556109233 -8 0 -1 0 0 -1 0 -1
1532257556147131 0 0 0 -1 1 -1 -1 -1
1532257556177051 6 -2 0 -1 -1 -1 0 0
1532257556198992 -5 0 -1 1 -2 -1 -2 -2
1532257556228912 0 -2 -2 -1 -2 -3 -4 1
1532257556244870 -8 -1 -2 -2 -3 -4 6 -2
1532257556289750 -1 0 0 1 7 -2 -4 -1
1532257556319670 0 -1 0 -2 0 1 -2 0
1532257556349590 0 -1 0 -2 -2 -1 -1 2
1532257556371531 0 -1 0 0 -3 -3 -2 -4
1532257556402462 -13 -2 1 -2 -2 -4 -2 2
1532257556416411 -2 1 0 -1 -3 -2 0 -1

1532257556439350 6 -1 -2 0 -1 0 0 -1
1532257556470267 -2 -1 -1 -1 -2 0 1 2
1532257556492208 1 -1 -1 1 16 7 1 -2
1532257556507168 10 -1 -2 0 -5 -1 0 -1
1532257556546065 -6 1 -1 -3 -8 -5 -3 -2
1532257556567009 -3 -3 -1 -3 -5 -1 -1 0
1532257556596928 -1 -3 -1 0 4 2 1 0
1532257556641809 -6 2 0 1 7 1 -2 -4
1532257556679707 0 -1 -3 -2 -6 0 -1 2
1532257556709627 16 -1 -1 -1 -9 -4 -2 0
1532257556724587 -7 -1 -1 0 0 -1 1 -2
1532257556746528 -3 -1 0 -1 0 -1 -1 -2
1532257556769479 0 -3 -2 0 -3 -1 -1 0
1532257556807366 -3 -1 -2 -1 1 -2 -1 -2
1532257556822326 1 -1 -1 -2 -1 -1 0 0
1532257556844267 -2 -2 0 -1 -1 1 0 0
1532257556867205 0 0 0 -1 0 -1 -1 -1
1532257556897125 -1 -1 -3 0 -1 0 -1 0
1532257556919067 -1 0 -1 -1 -2 -1 -2 -2
1532257556942008 3 -2 -2 -1 0 -1 0 3
1532257556956966 -1 0 0 -4 1 -3 -2 0
1532257556978907 0 0 -1 0 -1 -1 0 -3
1532257556994867 -2 -1 0 -2 -4 -1 -3 -1
1532257557024784 -1 -2 0 -1 -2 -2 0 0
1532257557046726 1 0 -2 -1 0 -1 -2 0
1532257557084623 1 1 0 0 -3 -1 -2 -2
1532257557099584 -2 -1 0 1 0 0 0 -1
1532257557129504 1 0 0 -1 -2 0 -1 0
1532257557159424 0 -3 -3 0 -1 -2 -2 -2
1532257557174399 -2 -1 0 -1 -2 -1 -2 -3
1532257557197337 0 -1 -1 -2 0 0 1 -2
1532257557227258 -1 -2 -2 -1 -5 0 -1 -1
1532257557264158 0 1 -1 -1 0 0 -2 -1
1532257557317018 -1 -1 0 0 -2 0 -1 -1
1532257557347943 0 0 -1 -2 -1 0 -1 -2
1532257557376849 -2 -2 -2 -1 1 -1 -1 -1
1532257557406769 0 -1 -1 -2 -2 1 0 -1
1532257557421729 -1 0 -1 -1 0 -1 1 -1
1532257557444668 -2 -2 0 -1 -2 -2 -2 -2
1532257557466609 -1 -1 0 -1 0 -1 -1 -1
1532257557489548 -2 0 -3 0 1 -1 1 0
1532257557519468 -1 0 0 0 0 0 -1 0
1532257557541409 0 -2 1 0 1 0 -1 0
1532257557572326 -1 -1 -1 -1 -2 -1 -2 -3
1532257557594268 -2 -1 -3 -2 2 0 -2 -2
1532257557617207 -3 0 -1 -1 -3 0 -2 0
1532257557654108 -1 -1 0 -1 1 0 0 -2
1532257557692006 -2 -1 -1 1 -1 -1 0 1
1532257557713948 0 -1 -1 1 -2 -1 0 0
1532257557736886 -1 0 1 -2 1 1 -2 0
1532257557774785 -1 -2 -1 -1 -1 0 1 0
1532257557804705 -2 -3 -1 0 0 -2 -1 0
1532257557819665 0 0 -1 0 0 -1 -2 -2
1532257557841607 0 1 0 -2 -1 -2 -2 0
1532257557856567 -1 0 -1 -1 0 -2 -1 -1
1532257557879505 -1 0 0 -1 -1 0 -2 0
1532257557902444 0 0 -2 -1 0 0 -1 1
1532257557939345 -1 -1 -1 -2 -1 0 0 -3
1532257557969265 -3 -1 0 -1 -2 -1 1 -1
1532257557999199 0 0 0 -3 -1 -1 -1 -1
1532257558037097 -3 -2 -1 -2 -3 -1 -1 -1
1532257558059039 1 -2 -1 0 -2 -1 -2 -1
1532257558081978 -3 -1 -2 -2 -2 0 0 -2
1532257558104917 -1 -1 -1 -2 -1 -1 0 -2
1532257558134837 0 -2 -1 -1 -2 -2 -2 0
1532257558149796 -2 2 0 0 -1 -1 1 -2
1532257558186698 -3 -1 -1 1 0 0 -2 -1
1532257558209636 0 1 -1 -1 -2 -2 1 1
1532257558261498 -2 -1 -2 -1 -3 -3 0 -1
1532257558276457 0 -1 -1 1 -1 0 0 -2
1532257558314356 1 0 -2 -1 1 0 -1 -1
1532257558337295 -3 0 1 -1 0 0 0 -2
1532257558352261 -1 -2 -1 -1 1 0 -1 0
1532257558374196 0 -3 -2 0 -2 1 -2 -1
1532257558389156 -1 -1 -2 0 -1 0 -1 -1
1532257558419076 -1 0 -1 -2 -2 -2 0 -2
1532257558434036 -1 -2 -1 -2 -4 -1 -2 -2
1532257558456975 -1 -1 -2 0 0 -3 -2 0
1532257558472932 -2 -1 -1 -1 -1 0 -1 0
1532257558494873 0 -1 -2 -2 -2 -1 -2 -1
1532257558516815 -1 -1 0 -1 2 1 0 -1
1532257558531775 0 -1 -1 -3 -1 -1 -1 -1
1532257558554713 -1 -1 -2 0 -1 0 -2 -1
1532257558576654 2 0 -2 -2 -2 -1 -1 1
1532257558591615 -2 -1 -1 -1 -1 0 -1 0
1532257558614554 0 -1 0 -3 -1 -3 -1 0
1532257558636495 1 -1 0 0 -1 -3 -3 0
1532257558659433 -2 -2 -3 -3 -6 -15 -5 -3
1532257558682371 1 -1 0 0 4 18 4 1
1532257558712292 -3 -3 -1 -4 -4 0 -2 -4
1532257558742212 -3 -2 -3 0 -1 -1 -3 -1
1532257558787098 -1 0 -2 -2 -6 3 -4 -1
1532257558809046 2 1 1 0 -4 10 0 0
1532257558831972 0 -2 -1 -2 -5 7 -1 -2
1532257558853913 -1 1 0 2 9 25 11 3
1532257558876852 0 -1 -1 -1 4 14 8 3
1532257558899791 -1 -2 -2 -1 -2 0 -1 0
1532257558914751 -1 -1 -2 0 0 -8 -2 0
1532257558944670 -2 -3 2 -1 -3 -13 -5 -3
1532257558966612 -3 -2 -1 1 0 3 0 0
1532257558981572 -3 -2 -2 -2 -4 -6 -1 -1
1532257559026452 0 1 -1 -1 -1 -4 -1 -1
1532257559042415 -2 0 0 0 -2 -5 -2 0
1532257559064351 -1 -1 -1 -1 0 0 -1 -1
1532257559094271 -1 -1 -2 -1 -1 -7 -2 0
1532257559117209 0 0 0 -1 -1 3 -1 -2
1532257559147129 -1 -2 -1 0 -2 -2 -3 -3
1532257559162089 -1 0 0 -1 0 8 7 0
1532257559184030 1 -1 0 -2 -1 -3 -4 0
1532257559213951 -2 -2 -1 -1 -3 -4 -2 -1
1532257559236889 -1 0 0 -1 -2 -9 -2 -2
1532257559259827 -1 -2 0 -1 0 -1 -2 -2
1532257559274788 -1 -1 -2 1 -1 -1 0 0
1532257559296729 -1 -1 0 -2 0 1 1 0
1532257559341609 0 0 2 -2 -1 2 4 0
1532257559356569 -1 0 -1 1 0 0 -1 -1
1532257559379507 0 -1 -1 0 0 4 2 0
1532257559394468 0 0 -1 0 -2 2 0 0
1532257559424388 -3 -4 -1 -2 0 -2 -1 -2
1532257559439348 -3 -1 -1 0 -1 -1 0 0
1532257559462286 0 -3 -1 -1 0 6 -1 -1
1532257559507166 -2 -1 -1 -1 -4 -4 -2 -2
1532257559537086 -1 0 -1 -1 -1 -2 -1 -1
1532257559596926 0 -1 -2 -1 0 -3 -9 -2
1532257559626846 -9 -1 1 1 2 -1 -2 -4
1532257559649785 -1 -1 -3 -2 -2 3 -3 0
1532257559679705 1 -2 -2 -1 -1 -2 3 -1
1532257559701646 -2 -1 -2 0 0 2 -3 -3
1532257559724585 -2 1 0 -1 -2 -2 4 2
1532257559746527 -1 -2 -1 -2 -2 -4 -13 -3
1532257559761486 -4 0 -1 0 0 2 -1 -3
1532257559784425 22 1 0 0 0 3 1 -3
1532257559807363 -11 0 0 1 1 -3 2 -3
1532257559844265 -6 -1 0 -2 -6 0 0 -1
1532257559867204 -1 -1 -1 -1 2 0 -1 1
1532257559904104 4 -1 0 0 1 -4 1 1
1532257559963945 -1 -1 -1 -1 3 -1 -3 -2
1532257559986883 4 -3 -2 -1 -3 -4 -7 -2
1532257560016804 -1 2 0 1 -1 -4 -13 3
1532257560076644 9 -1 -1 1 -1 2 2 1
1532257560106564 -5 -2 0 1 -4 -4 -8 -4
1532257560136484 1 -2 -1 -1 -2 1 -2 0
1532257560174382 2 -2 -1 -1 -1 -2 -3 -2
1532257560204302 -5 0 -1 -1 0 -5 -3 1
1532257560249182 -5 -1 -2 -1 -2 -2 -3 -1
1532257560272121 1 -1 -2 0 0 -2 -2 -1
1532257560309022 -2 -3 -1 1 -1 1 0 1
1532257560331961 0 -2 -3 0 1 -1 -1 0
1532257560376840 -2 -2 -1 -1 -1 -1 0 -2
1532257560415737 1 0 1 -1 -1 -6 0 -2
1532257560436687 0 -3 -1 -2 -3 -8 -1 -3
1532257560459619 0 -2 -1 -1 0 -3 6 -2
1532257560496521 -3 0 -1 -2 3 -33 -10 -2
1532257560519459 1 2 4 8 -11 -49 0 1
1532257560549379 -1 1 3 1 23 34 7 1
1532257560572318 1 1 -6 1 19 -4 -11 0
1532257560624179 -1 0 0 1 -25 -2 6 1
1532257560677038 2 2 1 -12 -36 -23 5 2
1532257560706958 -2 -2 -2 -8 -19 -9 3 -1
1532257560916398 0 -3 -8 -15 6 24 3 1
1532257561029096 -2 -2 0 23 0 8 -1 -3
1532257561096915 0 -4 -3 -17 4 -31 -9 -2
1532257561194654 -17 -16 -15 1 -1 1 1 -9
1532257561337272 8 0 -3 -8 7 1 -5 -7
1532257561614531 3 -5 -7 -17 -15 -2 3 2
1532257561674371 1 -2 1 4 4 14 7 3
1532257561727230 -3 -2 -7 8 13 10 4 4
1532257561869848 1 -3 -3 -5 -5 -5 0 0
1532257562034408 0 -3 -2 -2 -1 -2 -1 -2
1532257562057346 2 2 6 2 1 1 0 2
1532257562094248 -1 0 -4 -7 -5 -2 -2 -1
1532257562198968 -1 0 0 -2 12 -3 9 -3
1532257562221907 2 4 0 5 -7 5 15 3
1532257562259806 -3 -3 -3 7 42 -8 -5 2
1532257562296707 0 -2 -1 -6 -8 -24 -11 -2
1532257562326627 0 -3 -2 -3 7 19 -3 -2
1532257562341587 -1 1 -2 -3 6 44 -7 -3
1532257562371507 -3 -1 -1 -1 13 -47 -21 -6
1532257562416387 -1 0 0 4 8 -18 -5 1
1532257562432344 -1 -2 1 3 7 34 15 1
1532257562447304 -3 -2 -1 -8 -35 -40 -34 -5
1532257562477224 -2 -2 -1 -2 -7 -31 -8 -4
1532257562499173 0 -2 -1 2 16 14 0 0
1532257562522112 -2 -2 2 5 7 -22 10 -2
1532257562559014 -5 1 1 -3 2 11 2 -1
1532257562573990 -2 -2 -5 0 8 -6 -3 -1
1532257562604891 -1 1 0 -1 2 -8 -1 -3
1532257562634811 0 1 2 -4 -48 -33 10 -1
1532257562671712 -1 -1 -4 2 8 6 7 1
1532257562694651 -3 -2 -1 -3 1 -5 -7 0
1532257562716603 -3 -1 -1 0 3 8 10 1
1532257562731563 0 -3 1 -2 0 -7 -4 -2
1532257562746523 0 -2 -1 -3 -4 8 -5 -1
1532257562769461 2 0 0 -1 -3 1 1 -1
1532257562784422 -1 1 0 2 5 7 3 -2
1532257562807360 -4 0 -1 0 1 1 3 -1
1532257562829301 0 -1 -3 -3 -1 -1 3 -2
1532257562844261 0 -2 1 0 -2 6 -3 -2
1532257562876176 0 0 0 1 -3 -1 -2 -1
1532257562913090 -1 0 0 0 -2 -3 -2 0
1532257562927040 -2 -4 -2 -1 -1 -2 -7 0
1532257562956960 -3 -2 -1 -1 1 4 6 -1
1532257562971920 -1 -2 -1 0 -2 -2 -4 -1
1532257562994859 -2 0 0 -1 -2 1 -5 -2
1532257563009819 -1 0 -1 -2 -3 -3 -5 0
1532257563031760 -1 -1 -1 0 1 -3 -3 1
1532257563061680 -1 1 -2 -2 -3 1 -3 -3
1532257563084619 0 -1 -1 -3 0 2 3 0
1532257563129499 0 -1 -2 -1 0 0 0 1
1532257563144459 -3 0 -1 -4 -7 -2 0 -1
1532257563182357 0 -1 -2 -1 0 1 2 -1
1532257563204299 -1 -2 1 0 1 -7 2 -1
1532257563227238 -1 1 -2 -2 -3 1 -5 -1
1532257563242197 -1 1 2 1 -4 0 -2 -2
1532257563264139 -2 -3 -3 0 -2 1 5 0
1532257563294059 -2 -1 -2 -2 -2 -1 1 0
1532257563323979 1 0 -2 0 0 0 -3 -2
1532257563346917 -2 0 -1 0 -1 1 -5 1
1532257563369856 0 -1 -2 -1 0 0 10 -2
1532257563384816 1 -3 0 -2 -1 -1 -4 1
1532257563406757 -2 -1 -1 -1 0 9 2 -2
1532257563429696 -2 -2 -2 -2 -1 0 -6 0
1532257563444656 2 -2 0 -2 1 0 -4 0
1532257563481557 -3 -1 -3 0 -2 -6 -10 -6
1532257563511478 -1 -2 -1 -1 0 2 -2 -4
1532257563526437 2 1 1 -1 1 -7 3 0
1532257563564336 0 0 0 -1 -2 0 0 1
1532257563587275 -2 -1 -3 -2 -3 -17 -12 -5
1532257563617195 -1 -1 0 0 2 3 -13 0
1532257563647115 -1 0 -1 0 0 4 -7 -1
1532257563662075 -2 -1 -2 -1 2 1 5 1
1532257563706954 -1 0 -3 0 -2 -3 8 -2
1532257563729894 -3 -3 0 -1 -3 8 6 3
1532257563759813 -3 -3 -2 0 -3 -1 1 -2
1532257563774773 0 -1 -1 0 -1 -2 1 -1
1532257563789733 0 -2 -3 -2 -2 1 -2 -2
1532257563811675 -1 -1 -1 -1 0 0 4 -2
1532257563841594 0 0 -1 1 1 2 -4 -2
1532257563864532 0 -2 0 -2 1 -1 3 0
1532257563894453 0 -1 -2 1 -1 -3 -7 -1
1532257563917391 -2 -3 1 1 -1 1 5 0
1532257563947312 -1 0 0 0 -3 -2 -3 0
1532257563962272 -1 -1 -1 -3 -1 -2 -7 -2
1532257563977232 -1 0 -1 -1 0 -2 5 -1
1532257564007152 -1 0 0 -2 0 -2 -2 -1
1532257564037072 0 -1 -1 1 -2 -2 0 -2
1532257564066992 -2 -2 0 -2 1 -2 0 1
1532257564088933 0 -1 -2 -2 -1 0 10 1
1532257564104890 -1 -1 -4 -1 -1 -3 2 -1
1532257564134811 0 -1 -2 -4 0 -1 -16 -3
1532257564164730 -2 -2 -3 -1 0 1 -3 -2
1532257564179691 -3 -2 0 -2 0 -2 0 -2
1532257564201633 -2 -3 -1 -4 -1 -2 -2 -2
1532257564231552 -2 0 -2 -1 0 0 -1 -2
1532257564246512 -2 -1 -1 0 -1 -1 -2 1
1532257564261472 -1 -2 -1 -2 1 -3 -4 0
1532257564276432 0 0 -1 -1 -2 -2 3 -1
1532257564292394 0 -1 -1 -1 -4 -1 2 -1
1532257564307349 -1 -2 -1 1 -1 0 -5 -2
1532257564337270 -1 -1 -1 -1 -1 0 -2 -2
1532257564367189 0 0 -1 0 -1 -2 0 0
1532257564419058 -1 -2 -1 -2 -2 0 4 0
1532257564448971 -2 -2 -1 -2 0 -1 -1 -3

1532257564463930 -1 -2 1 1 1 0 0 1
1532257564478890 -1 2 0 -1 -1 0 1 0
1532257564502013 -1 -1 -2 0 1 -2 -3 -1
1532257564516973 -3 -4 -1 0 -4 0 10 0
1532257564532394 -1 0 -2 0 -1 0 8 0
1532257564562316 -1 0 -1 -2 -2 -2 -4 1
1532257564577277 -1 1 -1 -2 0 -1 -3 -1
1532257564614178 -2 0 1 0 0 0 -1 -1
1532257564644098 0 2 -2 -1 -2 -2 -2 -3
1532257564659058 -1 -1 -1 0 -2 -2 -10 -3
1532257564681996 -2 -2 -2 -2 -1 -2 -3 -2
1532257564719895 -2 0 0 -1 1 -2 -1 -1
1532257564741837 -3 -2 -1 0 -2 2 -1 0
1532257564756797 1 1 -1 -1 -1 -2 0 -1
1532257564801686 0 1 -1 -3 -1 0 1 -1
1532257564818631 0 -1 -2 -1 -1 0 0 -2
1532257564839575 -2 -1 -2 -2 -1 -1 -2 -2
1532257564854535 -2 -2 -1 -2 -2 0 3 1
1532257564891437 -2 -2 -2 -1 0 -1 -2 -1
1532257564922353 0 1 -1 -2 -1 0 -1 -1
1532257564967235 -2 -1 0 1 -1 -2 -2 0
1532257564982193 0 -1 -2 -1 -1 0 -1 0
1532257565004135 -1 -1 -3 0 0 0 2 0
1532257565019096 0 -1 0 0 0 1 1 -1
1532257565049015 0 -3 1 1 1 -1 0 -2
1532257565078935 -2 -3 -2 -1 0 -2 -2 -1
1532257565094909 -1 -2 -2 -1 -1 -2 0 0
1532257565109853 -2 -3 -2 -3 -3 0 1 -1
1532257565169715 -1 -1 -2 -3 -1 1 6 -2
1532257565193650 -1 -2 0 0 -1 -1 -5 -1
1532257565207646 -3 -3 -1 -1 1 -1 0 -1
1532257565237343 0 1 1 -1 -2 -2 -2 -1
1532257565259284 0 0 -1 -1 2 -1 1 -2
1532257565282223 0 0 -2 -1 -1 0 -2 0
1532257565297183 0 -1 -2 -1 -1 -1 -1 0
1532257565319139 -2 1 -1 -1 -1 0 -4 0
1532257565334084 -1 -2 -2 -1 -3 -1 -4 -2
1532257565349044 -2 -1 0 2 -2 -1 -5 -1
1532257565378964 0 -1 -1 -3 -1 1 2 -1
1532257565401902 -3 -2 0 -1 0 -1 -2 0
1532257565416877 -2 -1 -1 -1 0 -2 -1 -3
1532257565431823 -1 -1 0 -2 -2 -1 6 -1
1532257565454762 -2 -2 -1 -2 -3 -1 1 0
1532257565469721 -3 -1 -2 -1 -1 -2 -4 -1
1532257565491663 0 0 -1 -2 -1 0 -1 0
1532257565514601 0 -1 -1 0 1 0 1 -1
1532257565536543 0 0 1 0 0 0 0 1
1532257565551502 -2 -1 -1 -2 0 -2 -1 -2
1532257565574441 -1 -1 -1 0 1 0 6 1
1532257565604361 0 -1 0 -1 -2 0 -1 -2
1532257565649241 1 0 -1 -1 -1 0 -2 -2
1532257565679161 0 0 0 0 0 -2 -1 1
1532257565717060 -1 -2 -4 -3 0 0 -1 -1
1532257565732020 0 -1 -2 -3 -2 0 -1 -1
1532257565761939 0 -1 -2 0 0 -1 -1 0
1532257565784879 -1 0 -2 -1 -2 -4 -1 -2
1532257565799838 -2 -2 0 1 -2 -2 -2 -2
1532257565829758 -1 -1 -2 0 -1 -2 -2 -2
1532257565866660 -3 0 -1 0 0 1 0 0
1532257565896580 -2 1 -1 -1 0 1 -2 -1
1532257565941459 -1 -1 0 -1 0 -1 -1 0
1532257565987337 -2 -1 -3 -2 -2 -1 -2 1
1532257566032217 1 0 -1 1 -3 -1 -1 0
1532257566054159 -2 0 -2 -3 0 1 0 -3
1532257566069119 0 -1 -3 -2 0 -2 -2 -1
1532257566121977 -1 -3 -2 -1 -1 -2 0 -2
1532257566143918 0 -2 -1 -2 -1 -1 -4 0
1532257566204756 0 0 0 0 -2 1 -2 -1
1532257566241657 -1 -1 0 -2 0 -1 0 0
1532257566279556 -2 -2 -2 -1 0 -1 -2 -1
1532257566331417 -2 -2 -3 -1 -2 -1 -1 -1
1532257566347374 -1 -4 -1 -2 -2 -2 0 -1
1532257566377294 -2 0 -1 -1 -1 1 0 -1
1532257566399235 1 -1 -1 -2 -2 -1 0 -1
1532257566422175 -2 -1 -2 0 -2 0 -1 0
1532257566444116 -1 -2 -1 -1 -1 -2 -2 0
1532257566496974 -1 -1 0 -3 -1 -1 -1 0
1532257566519920 1 -3 0 -1 -1 -1 1 -1
1532257566609672 -2 -2 -3 -2 -3 3 0 0
1532257566646574 -3 -3 -2 -2 1 1 -1 -3
1532257566714393 0 -1 -2 -1 0 2 1 0
1532257566744313 -1 0 -1 -1 -4 -1 1 -1
1532257566789192 -2 -2 -3 -1 0 1 0 -2
1532257566834073 -1 -1 0 -2 -3 1 -2 -1
1532257566863994 -1 0 0 -1 -1 -1 1 1
1532257566878952 -14 0 0 -2 -3 -11 -6 -2
1532257566893923 0 -2 -1 -2 0 3 6 1
1532257566924830 0 -2 -2 -2 -3 -4 2 3
1532257566946771 6 1 -1 -1 -1 -1 0 1
1532257566961732 -1 -1 -1 0 0 3 -9 -2
1532257566976692 -1 -2 0 0 -2 0 -15 -2
1532257567006612 -1 -2 -1 -1 0 -4 -7 0
1532257567029550 -2 -2 -2 0 -2 -2 -22 -4
1532257567060468 -15 0 -1 1 1 14 6 1
1532257567074429 -1 1 -3 -1 2 6 24 0
1532257567089390 5 -2 1 -1 1 -4 -5 0
1532257567112328 2 -3 -3 -3 -5 -16 -15 -5
1532257567134270 0 -2 -2 1 1 -2 4 0
1532257567217049 -4 -2 1 -6 11 11 -8 -2
1532257567232009 1 -2 -2 1 -16 -6 -7 -2
1532257567404547 -4 -2 -5 -8 20 11 -4 -2
1532257567426489 2 6 6 -4 8 -10 -3 -1
1532257567472366 -9 7 -4 -16 -4 -6 0 -4
1532257567517246 1 11 6 1 -1 -2 -5 -2
1532257567628947 -2 8 11 2 -1 -4 0 -3
1532257567696766 1 -27 -7 -2 2 8 -1 -1
1532257567786526 -4 -15 -3 -6 -1 -3 -2 -2
1532257567967043 0 18 31 -4 9 18 10 -4
1532257567996963 -2 -12 -19 -8 -11 13 9 7
1532257568026883 -1 6 2 -2 -13 3 -11 -5
1532257568049822 -1 -5 -3 -1 17 -2 -7 -2
1532257568071762 -2 7 12 1 1 -18 -8 -2
1532257568109662 2 4 48 -6 -6 24 -3 1
1532257568139582 -2 1 -12 2 7 -10 -3 0
1532257568185460 3 23 38 3 -1 -11 7 6
1532257568206403 -6 -18 -20 -5 -10 -20 -5 -5
1532257568252292 0 0 -1 -3 3 20 2 -1
1532257568267241 -1 -1 -4 -1 3 13 -3 1
1532257568289182 -3 -1 1 1 -3 -7 -2 -3
1532257568319103 2 0 -8 -1 1 5 2 3
1532257568357000 14 -5 -2 -1 0 1 1 3
1532257568378942 -7 0 -2 -3 -3 -2 -1 -2
1532257568439779 -2 -1 -1 1 0 -7 1 2
1532257568461720 0 0 -2 -3 -2 1 0 1
1532257568476680 -6 -3 -2 -1 0 -9 -1 -4
1532257568506601 -2 -3 -4 -4 -1 19 3 -3
1532257568581400 -4 -3 -3 1 3 1 12 1
1532257568634259 -2 -2 -3 -17 -5 -11 -11 -3
1532257568649219 -3 -3 -8 -13 15 -60 -9 -3
1532257568679139 -2 3 10 -8 -24 20 1 1
1532257568724019 -2 -2 -3 -1 -23 -63 -16 -2
1532257568738979 0 -2 -3 4 -7 -10 8 2
1532257568829736 -1 -2 5 3 -14 -117 -6 0
1532257568919497 -2 -3 -3 -2 -7 -15 -4 1
1532257568964376 -1 1 0 -2 -7 -11 -1 1
1532257568980333 -3 1 -4 -1 -3 -16 -20 -1
1532257569049149 -4 -3 -4 -2 -5 38 -4 -3
1532257569106995 -1 -2 0 1 -1 -8 -1 1
1532257569136914 -1 -1 -1 0 -5 -2 8 0
1532257569196755 -1 0 -1 -4 -12 -8 -7 -1
1532257569219694 1 -3 -2 -2 8 6 2 -1
1532257569286515 -1 -2 -1 1 -5 11 3 -2
1532257569331395 -1 -2 -1 1 11 18 3 -4
1532257569369294 -2 -1 -1 -4 -10 -7 0 -1
1532257569392232 -2 1 -1 -2 -5 -7 -4 -2
1532257569429134 0 -1 -4 -2 -7 -7 0 -2
1532257569452076 1 0 0 3 18 6 5 -1
1532257569481992 -1 0 1 0 -2 -7 -5 -1
1532257569503934 0 0 -2 -3 -7 -18 -8 0
1532257569549811 -1 -1 -1 -1 2 -1 -5 0
1532257569571776 -2 -2 -1 -1 -3 -2 -7 -4
1532257569594696 -1 -2 0 -2 -1 -7 3 0
1532257569616632 -3 -1 0 -3 -10 -20 -7 -1
1532257569631592 -3 1 -2 -2 4 14 -6 -1
1532257569654530 -4 -2 -2 -4 -17 -5 2 -3
1532257569669497 -2 -1 -1 -1 -8 -17 -1 -3
1532257569684451 0 -1 0 -1 -6 3 -1 -1
1532257569714371 -3 -1 2 0 4 8 3 -1
1532257569737309 0 0 1 1 5 -1 1 0
1532257569759250 11 0 -1 -1 -6 -2 7 4
1532257569797149 -5 0 -1 -2 4 11 -4 -1
1532257569827069 -3 -1 -1 0 9 7 1 -1
1532257569856989 -2 -2 -1 -1 -6 -5 -4 0
1532257569916829 -3 -1 -2 -2 -2 0 -1 -1
1532257569939767 0 0 -1 -1 -9 -42 0 -1
1532257569969688 -2 -2 -3 -2 -2 4 0 0
1532257569999607 -2 0 -1 0 -1 4 2 -2
1532257570021550 1 0 1 -1 -2 1 -1 -1
1532257570051469 -2 -2 0 0 0 -3 -2 1
1532257570067439 -1 0 -1 0 -2 -7 -3 -2
1532257570081389 0 -1 -2 -1 3 8 9 0
1532257570112307 0 -2 -2 0 -1 -1 -1 -3
1532257570134248 2 -2 -2 -1 -1 -1 0 -1
1532257570149208 0 0 -2 0 3 3 6 0
1532257570164168 -1 0 -2 -1 -3 -3 3 -2
1532257570194087 -2 -1 0 -2 -2 -2 -4 -2
1532257570217026 0 -2 0 0 -3 -1 -4 -2
1532257570247944 -2 -1 -1 1 -2 -1 -2 -1
1532257570261907 -3 0 -2 -1 2 1 0 0
1532257570291827 -1 -2 -1 -3 -2 0 -2 -1
1532257570336707 0 0 0 -2 2 -4 -2 -1
1532257570351666 -2 0 -2 -2 -1 -1 -1 -3
1532257570374605 -2 -1 -1 -3 0 0 -4 -2
1532257570389566 -1 -2 -4 0 -3 -2 -3 -2
1532257570411507 0 0 -2 0 0 1 0 0
1532257570441427 0 -1 -1 -2 3 2 0 0
1532257570464365 1 -1 1 1 1 2 5 -1
1532257570487304 -1 -3 -3 1 -3 -1 -1 1
1532257570509245 -1 1 0 -1 1 -3 -4 0

1532257570524205 0 -2 -1 -2 -3 2 9 -2
1532257570547144 -1 0 1 1 2 -4 -5 0
1532257570569085 0 -3 -2 -3 -1 0 -2 -1
1532257570599005 -1 3 -2 -1 -4 -3 -2 -1
1532257570621944 -1 -1 0 -1 -2 2 -1 1
1532257570651864 -2 -1 -1 0 1 -1 -3 -3
1532257570666824 -1 -1 0 -1 -2 -1 4 -1
1532257570689763 -2 -3 -1 -2 -2 -3 -1 0
1532257570711704 1 -1 0 0 -2 -2 -2 -1
1532257570734642 -2 -2 -2 -1 0 -2 -2 0
1532257570756584 -1 -1 -3 -2 -1 0 -1 -2
1532257570771544 1 -2 -2 0 -1 -1 -1 -2
1532257570786504 -2 -3 -1 0 -3 0 -3 -2
1532257570809442 -2 1 1 -1 -2 -2 0 0
1532257570824402 1 -2 0 0 1 0 0 -1
1532257570854330 -1 0 -2 1 -2 -1 -2 -1
1532257570877268 -2 -1 0 -1 0 0 0 0
1532257570899210 1 -2 -1 -1 -1 0 -1 -1
1532257570914169 1 0 -2 -2 -1 0 0 -1
1532257570952067 0 -1 -3 1 -2 -2 -1 -1
1532257570974009 -1 -1 -1 0 -2 0 -1 0
1532257570996948 -1 -2 -1 -2 -1 -3 0 1
1532257571019886 -2 0 -1 -2 -2 -1 -2 -3
1532257571049807 -2 -1 0 0 1 -2 -1 -1
1532257571086708 -1 -2 -1 0 -2 0 -1 -1
1532257571116627 0 0 1 2 -3 0 0 1
1532257571139566 -2 -2 0 0 -1 -1 -2 0
1532257571154526 -1 0 -2 1 -1 -2 -2 -2
1532257571191602 -1 -2 -1 -2 -1 0 -2 -2
1532257571214541 -1 0 0 0 1 -2 -1 -2
1532257571236483 -1 -2 -2 -2 -1 -1 -1 -1
1532257571259421 1 -1 -2 0 1 0 -2 0
1532257571282383 -1 0 -2 -1 0 -3 -1 -2
1532257571297342 -1 0 -1 0 -3 0 -3 0
1532257571319284 1 -1 -1 -1 0 1 -1 -1
1532257571334244 -2 -2 1 0 1 -2 0 0
1532257571357183 -1 0 -1 -2 -3 -2 1 1
1532257571387103 -1 -1 -2 0 0 0 0 -1
1532257571409044 -1 0 0 -2 -2 -1 -1 -1
1532257571438964 -3 0 -1 -1 -2 -1 -2 -2
1532257571453924 -1 -1 -1 0 1 -1 1 -1
1532257571491822 -1 0 -1 -2 0 0 -1 0
1532257571521743 -1 0 0 -2 0 -2 -2 -1
1532257571551662 -1 -1 -2 -1 0 -2 -2 0
1532257571566622 -1 0 -1 1 -2 -1 0 -1
1532257571589561 -1 -2 -2 -3 0 0 -2 -1
1532257571619482 -2 -3 -1 0 -2 0 -1 -3
1532257571634441 -1 -1 -1 -1 -1 -1 0 -1
1532257571664361 0 -1 -3 0 -1 0 -2 0
1532257571679321 1 0 -1 -1 1 0 0 -1
1532257571724201 -1 0 -1 -1 1 -1 -2 -1
1532257571754122 -2 -1 -1 -1 0 0 -1 0
1532257571769099 0 -1 0 -3 0 -1 -1 -2
1532257571806980 -2 -1 -3 -1 -2 -2 0 -1
1532257571828921 -2 -1 -2 -1 -1 -1 1 0
1532257571851874 -1 -2 -1 -1 -2 -1 -1 -2
1532257571896740 -1 -2 -4 0 0 -2 -1 -2
1532257571911700 0 0 0 -2 -2 -1 -3 -1
1532257571941625 -3 -2 -1 -1 -3 -2 -2 -2
1532257571964559 0 -1 0 -2 0 -1 -2 0
1532257571979519 -1 -1 0 -1 0 0 -1 -2
1532257572016420 -3 0 -1 -2 0 -2 -1 -2
1532257572047337 -2 -2 -2 0 -1 -1 -2 -1
1532257572062297 0 0 -1 -1 -2 1 0 1
1532257572092217 -3 -1 -2 -2 -2 -1 -1 -2
1532257572114158 0 -1 0 -1 0 -1 1 -1
1532257572129118 -1 -2 -2 1 -1 -1 -1 -1
1532257572152070 -2 -1 0 -2 -1 -2 0 1
1532257572173998 0 -1 -2 -1 0 0 -1 -2
1532257572188959 -2 -1 0 -1 -1 -1 -2 -3
1532257572226857 1 -1 0 0 -2 0 -1 0
1532257572249796 -1 -1 -2 0 -2 -2 -2 -1
1532257572271737 0 -1 -2 0 -1 -1 -1 -1
1532257572309636 -3 0 -1 -1 -1 -1 2 -1
1532257572331577 -1 -1 -3 -1 0 -1 2 1
1532257572369476 -2 -1 -2 -1 -3 0 -2 -1
1532257572391417 -2 1 -2 -1 -2 0 -2 -1
1532257572414356 -1 -1 -1 -2 -1 -3 -1 0
1532257572437295 -1 -3 0 -1 -1 -1 -3 1
1532257572474196 -1 -1 -1 0 -1 2 -1 1
1532257572489156 0 -1 -2 -1 -1 -2 0 -1
1532257572512094 0 0 0 -2 -1 0 -2 0
1532257572548996 -1 -1 0 0 -3 0 0 -1
1532257572563956 0 -1 -4 -1 0 -1 -1 -2
1532257572594873 -3 -1 0 -1 0 -1 -2 -3
1532257572616817 -2 -3 -1 -3 -2 -1 0 1
1532257572639753 -2 0 -2 0 -2 0 -1 0
1532257572669673 0 -1 -2 -2 -2 1 0 -2
1532257572699593 0 0 -1 0 -1 -1 0 0
1532257572729513 3 -2 -2 1 0 -2 6 2
1532257572751461 -2 -2 -1 -3 -1 -1 -1 -1
1532257572774393 5 -1 -1 -1 0 -2 -7 1
1532257572789353 -6 0 -2 -3 -1 0 0 -1
1532257572812292 -2 0 0 -1 -1 -1 1 2
1532257572842212 0 0 -2 0 1 -1 0 -1
1532257572857172 1 -1 -1 -1 -2 -3 -6 -1
1532257572887092 -4 -3 -2 -1 -1 0 0 1
1532257572923993 -4 0 0 1 0 0 -2 -6
1532257572938953 -1 -1 -2 -2 -2 0 3 -1
1532257572953913 0 0 -2 -1 -1 0 -1 -4
1532257572984830 4 -1 -1 0 3 -2 -4 1
1532257573006771 -7 -1 0 -1 -1 -1 -3 -3
1532257573059630 -19 -3 0 -1 -4 -1 4 -4
1532257573074590 16 0 0 0 -2 -1 -6 -2
1532257573113490 -3 -1 -1 -1 -2 -1 -6 -4
1532257573141412 1 -1 1 -1 4 -6 -3 0
1532257573157369 0 -2 -3 -2 -2 0 11 -2
1532257573180308 -2 -2 0 0 -3 7 8 3
1532257573196265 0 0 -1 -2 0 -4 -2 -2
1532257573209231 -1 0 0 2 -5 -6 -8 0
1532257573247129 1 1 2 -2 -2 -1 -7 -1
1532257573306969 -1 -3 -3 -1 -1 -2 -3 -1
1532257573359828 -2 -3 -3 -4 -6 -5 0 -2
1532257573426649 -1 -3 -3 -11 -20 12 1 -2
1532257573441609 -1 -2 1 2 22 22 -2 -1
1532257573465552 0 1 6 -8 -34 -33 0 1
1532257573524387 -2 -3 -4 -16 58 52 3 -2
1532257573577245 -2 -2 -2 -4 2 15 2 -3
1532257573637086 -4 -7 -8 -30 7 2 0 -2
1532257573726846 -1 -3 -2 -2 2 9 3 -1
1532257573749785 0 1 6 14 -9 -31 4 1
1532257573801661 7 4 8 0 1 -34 2 5
1532257573952244 -6 13 8 -2 -1 7 -3 -3
1532257574004105 -12 -7 -7 -2 -5 9 -1 -13
1532257574191604 -3 -7 3 16 4 -1 -11 -5
1532257574229502 -4 3 -5 -8 8 -4 1 -4
1532257574289342 -7 4 15 -4 11 -3 -1 -3
1532257574379105 0 9 7 -3 -15 5 1 -4
1532257574394062 -2 -2 -8 0 2 5 -4 1
1532257574417001 0 -18 -30 -8 -13 -16 -1 -2
1532257574469859 16 9 2 -3 -9 -2 -3 -6
1532257574484823 -11 -6 -8 -7 -6 -3 -2 -3
1532257574499779 -5 2 8 -2 -8 -1 -1 2
1532257574521721 3 -3 -7 0 -3 2 1 0
1532257574566601 -13 8 19 -4 -4 -10 -3 -3
1532257574628442 -1 -1 -8 -1 -2 -16 -7 -3
1532257574709219 0 -2 -1 -6 -11 -16 6 -1
1532257574747118 -1 -3 -3 -3 9 34 -25 -4
1532257574778035 -1 2 -4 0 0 39 -1 1
1532257574798979 -2 0 1 -4 -10 1 0 1
1532257574829896 -4 -1 -2 -3 -1 20 -7 -3
1532257574859817 2 2 -1 -2 -4 16 0 0
1532257574896718 1 -4 -1 -2 -4 -4 6 0
1532257574919656 1 1 -2 -5 -10 -33 -10 -1
1532257574964536 -4 -5 -7 -2 8 14 1 -5
1532257575009416 -9 3 6 -1 -6 9 11 3
1532257575024376 -4 -1 0 2 25 -34 -7 3
1532257575054297 3 4 -14 0 5 8 9 2
1532257575129097 1 -2 0 -4 -41 -18 1 1
1532257575159023 -2 -3 0 -2 6 0 -7 1
1532257575173976 0 3 -2 -2 7 8 -12 -4
1532257575204894 3 -1 0 1 -2 -5 -4 2
1532257575226835 -1 0 -3 2 -5 -45 -2 -4
1532257575241795 2 -1 -2 -2 6 3 -13 -4
1532257575286675 0 0 -1 1 -3 11 0 0
1532257575309614 1 -2 -2 -2 7 14 -6 -2
1532257575354494 -17 2 2 -1 -2 6 1 0
1532257575407352 3 1 -1 -1 10 16 -2 -1
1532257575444254 2 -1 -3 -3 -1 -1 1 1
1532257575489134 -5 0 2 2 0 -1 12 -3
1532257575654691 -1 1 1 -1 -8 -4 -3 -2
1532257575721512 0 -2 -1 0 -1 5 3 2
1532257575744451 -4 -2 -4 -3 -3 0 -2 -4
1532257575774371 12 -2 0 2 8 10 -6 0
1532257575812269 -3 1 0 1 -6 -27 -5 -1
1532257575887069 -4 -2 -2 -1 -1 1 -1 -3
1532257575916990 0 -7 -1 -2 -8 -35 -2 -2
1532257575961869 -4 1 -2 0 2 1 -2 -4
1532257575984808 -15 -2 0 -1 1 5 -1 -3
1532257576014728 -6 -2 -3 -3 -4 5 -4 -2
1532257576044648 -5 2 0 0 -3 -9 -4 1
1532257576081549 3 -2 -2 -1 -2 -2 0 -2
1532257576149368 -6 0 0 0 1 2 -3 -2
1532257576187267 -1 3 -1 -1 -2 -4 -3 -2
1532257576209208 -3 -5 -1 0 1 7 1 0
1532257576262067 -6 0 -1 -1 -1 9 1 -2
1532257576329885 -7 -2 -3 -1 -2 -2 0 -2
1532257576374765 -2 -2 -2 -2 -1 0 2 -2
1532257576411667 20 -2 -1 -2 0 -1 0 3
1532257576449566 -2 0 0 1 -2 -5 -3 -4
1532257576577223 1 -2 0 1 -1 -3 0 -1

1532257576637064 -1 -2 -2 -2 1 -3 -4 -2
1532257576673965 2 -1 1 1 -2 -2 -7 1
1532257576696904 0 -3 -1 -2 -4 -1 -4 -1
1532257576726824 17 0 -1 -2 -2 -2 1 -2
1532257576756744 -20 -1 -3 -2 -3 -6 0 -1
1532257576801624 3 -2 0 -1 -1 1 -2 1
1532257576839522 -3 -3 -1 -2 0 -1 -2 0
1532257576861464 0 0 0 0 0 2 4 -2
1532257576884402 2 -1 -2 -1 -1 -2 0 2
1532257576907341 -1 -1 -1 -1 0 -1 -2 -1
1532257576952080 -2 0 -1 -1 1 0 -2 1
1532257576967034 -2 1 0 1 -2 -2 -3 0
1532257576988974 0 -3 -1 -2 -1 -1 1 0
1532257577019893 -12 -2 0 -1 -2 -1 0 -2
1532257577041834 1 -1 -2 -1 0 1 -2 -2
1532257577071753 1 -1 -2 -1 -2 0 -1 -1
1532257577101673 -1 0 1 -1 -3 -1 -1 0
1532257577116633 0 0 -3 -1 -3 -1 -1 -2
1532257577139572 0 -2 -3 -2 -1 0 -1 2
1532257577161514 -1 -1 -1 -1 0 0 -2 -1
1532257577184452 -2 -1 -2 0 0 -3 -1 0
1532257577199420 -2 -2 -1 0 -3 1 -1 1
1532257577229332 -1 0 1 0 0 -2 0 -2
1532257577244292 0 1 -1 -1 -2 -1 0 2
1532257577274212 2 -2 -1 -1 1 1 1 -1
1532257577289173 -2 -1 -2 0 -1 0 -3 0
1532257577312111 -3 0 -1 1 0 0 -2 -2
1532257577327071 -1 1 -3 -3 -1 -1 0 -1
1532257577342045 -1 0 -2 0 -1 -1 -1 -4
1532257577378932 0 0 -1 -1 -1 -2 -3 -1
1532257577409850 -2 -2 -3 -1 -2 -1 0 1
1532257577424809 -1 0 -2 1 0 1 -1 -1
1532257577454802 0 -1 0 -2 0 0 0 0
1532257577469762 -1 -1 -1 -1 -1 -2 -1 -2
1532257577484070 -2 -1 1 -1 -1 0 -1 1
1532257577507008 -1 -3 -2 -1 -3 0 -1 -1
1532257577521968 -5 1 0 -1 -3 -2 0 -4
1532257577551895 -2 -2 -3 -1 0 1 -2 -3
1532257577574826 3 -1 -1 -1 0 -1 -1 2
1532257577589786 -2 0 1 -1 2 -2 -3 1
1532257577604746 1 -1 0 -1 0 -2 2 0
1532257577626687 4 -3 -1 -1 1 -1 -1 0
1532257577641647 -3 -1 -1 0 -1 -1 0 0
1532257577671567 1 0 0 -1 -1 -2 -1 -2
1532257577701487 -3 -1 -2 -1 -1 -1 0 -1
1532257577717448 -1 -1 -1 -2 0 -1 0 -2
1532257577731408 -2 -2 -2 -1 0 -2 -1 -2
1532257577769321 1 1 -3 -1 -1 -1 -1 2
1532257577784266 -2 -2 -1 -1 -1 0 -2 0
1532257577807205 0 1 -2 -1 -1 -1 -1 0
1532257577852085 -2 -2 -1 1 -1 0 0 -1
1532257577888986 -3 0 -1 0 -1 -2 -1 -1
1532257577903946 -1 -2 -1 1 -1 -2 -2 -2
1532257577949823 -2 0 1 -1 -1 -1 -1 -1
1532257577964783 -1 -2 -2 -2 -2 -2 -2 -2
1532257578001685 0 1 -1 -2 0 -2 -2 -2
1532257578024623 -4 -1 -4 -2 -1 0 0 1
1532257578046565 0 -4 0 0 0 0 1 -2
1532257578076485 0 -1 0 -1 0 -2 -2 0
1532257578091445 -1 -2 -1 -1 -2 -3 -3 0
1532257578144303 -3 -3 -1 -1 0 0 0 0
1532257578167242 0 -2 -2 -1 0 0 0 -2
1532257578189183 -1 -1 -1 0 -1 -1 -2 -2
1532257578227082 1 -2 0 2 -2 -2 -2 0
1532257578249023 -2 -1 0 -1 -1 -1 -1 -1
1532257578271962 0 -2 -2 -1 1 0 -1 -3
1532257578294901 -1 -1 -1 -2 -2 0 -3 -1
1532257578316842 0 -2 -2 -3 0 -3 1 -1
1532257578346761 -1 -2 -2 -1 -1 -1 -1 0
1532257578384661 1 0 -2 -2 0 1 -1 4
1532257578444500 0 -2 -1 -1 0 -2 -2 0
1532257578466442 0 -1 0 0 -1 -2 -1 -1
1532257578497359 0 -2 -2 -1 -1 -1 -2 -1
1532257578519301 1 0 -2 0 0 -2 0 -2
1532257578549220 0 -1 -1 -2 -2 -2 -2 4
1532257578594101 -2 0 -2 0 -2 1 0 0
1532257578617038 -1 0 -1 0 -2 -1 -1 3
1532257578638981 -2 -2 -4 0 -1 -2 -1 -4
1532257578653941 -1 0 0 -1 -1 -2 -1 -2
1532257578676879 -1 -1 -1 -1 -1 0 0 1
1532257578714778 -2 0 -1 -1 0 0 -1 0
1532257578744698 0 -2 1 -2 -1 -2 -2 -2
1532257578781600 -6 -1 -2 -1 0 0 -1 -2
1532257578849418 0 -1 -1 0 -1 -1 -1 -3
1532257578872356 1 -1 -1 -3 -2 1 0 0
1532257578902290 0 0 -2 -2 0 2 -2 2
1532257578947156 -1 -1 -1 -2 -2 -5 7 0
1532257578977076 -2 -3 -3 -2 -2 -5 -1 -1
1532257579013978 4 0 -1 -1 -1 0 -5 -1
1532257579074815 -1 -2 1 -3 -1 -2 -2 3
1532257579089775 0 -3 -1 -1 -1 0 -4 -1
1532257579119695 0 -2 -2 -1 -1 -1 5 0
1532257579134655 -1 -3 -1 -2 -7 -2 0 0
1532257579156596 -8 1 0 1 3 -1 -2 -6
1532257579171556 -4 -3 -3 -2 -1 -6 -1 0
1532257579194494 -3 1 -1 -1 -3 -9 3 -1
1532257579216436 -1 -2 -2 -3 0 6 -6 1
1532257579262314 4 -2 0 0 -3 1 1 -1
1532257579292234 0 2 -1 0 2 1 -4 -1
1532257579337114 -8 -1 -2 0 2 -2 -1 0
1532257579352074 -5 0 -1 -1 -5 -2 -3 -4
1532257579367034 0 -2 -2 -1 -1 1 1 1
1532257579396953 1 0 0 -1 1 -3 -9 -4
1532257579411914 18 -2 -1 -2 -2 -1 -5 0
1532257579441834 1 -2 0 -1 -1 2 3 -2
1532257579480730 -4 -2 0 0 0 3 8 3
1532257579509652 -1 -3 -1 -1 -4 -1 -2 0
1532257579524612 2 -2 -1 0 7 2 -2 -2
1532257579569496 0 0 1 0 2 -5 2 1
1532257579584452 0 0 -2 0 -1 2 1 -3
1532257579614372 -5 -3 -2 -2 -6 -13 -15 -5
1532257579629332 1 0 1 0 4 8 4 -2
1532257579667231 -3 -1 -6 -5 12 -7 -13 -2
1532257579689172 -1 -1 3 3 7 -3 1 1
1532257579719104 0 0 3 -4 12 15 4 -2
1532257579763972 1 0 -7 1 -22 10 11 -1
1532257579794890 -4 -4 -7 -20 -89 -64 -6 -6
1532257579840766 -5 -5 -8 -6 -25 -2 -3 0
1532257579854730 3 6 24 33 61 12 3 -1
1532257579906591 5 4 7 43 127 -8 4 3
1532257579959449 0 -2 5 27 39 34 10 2
1532257580133983 1 4 19 53 50 -8 -2 1
1532257580221748 0 3 7 25 -45 -4 21 3
1532257580296548 29 4 -3 -4 -2 1 -1 3
1532257580326468 11 2 1 1 -1 -15 0 5
1532257580409247 0 0 -1 3 -2 -53 -2 -1
1532257580462117 -17 7 7 5 2 1 1 3
1532257580536906 -1 -3 -4 -2 4 13 -3 -5
1532257580560841 -12 0 1 3 10 30 4 -3
1532257580626665 0 2 0 2 7 8 -1 -3
1532257580656585 7 -6 -2 2 3 1 0 1
1532257580686505 -4 1 0 -7 5 23 0 -4
1532257580709450 -2 0 1 6 -22 -15 -3 -2
1532257580747342 1 -3 -5 -6 20 -6 2 1
1532257580822143 -1 2 3 5 9 4 3 0
1532257580844084 -4 -3 -4 -3 2 -4 -3 -1
1532257580859044 -1 0 -3 -2 -3 -7 -3 0
1532257580903924 1 -5 -4 -2 -4 -4 -4 -4
1532257580926863 0 -2 -1 2 0 1 1 0
1532257580956782 2 2 0 3 -2 -2 -1 2
1532257581001678 -1 -2 -2 -1 0 0 -2 -2
1532257581069482 -7 0 -2 0 -1 -1 1 -2
1532257581107388 -8 -2 -2 -1 -1 0 0 -3
1532257581174201 -1 -2 -1 -2 0 -2 -1 -1
1532257581189160 -5 -2 -2 -3 -3 -11 4 -1
1532257581204121 1 -4 -1 -7 -3 33 -2 0
1532257581234041 2 2 0 3 -5 -20 9 3
1532257581263960 -3 -3 -5 5 7 15 -2 -1
1532257581287896 -2 -2 -2 -4 -5 -7 -2 0
1532257581316820 0 -3 -5 -9 0 -1 0 0
1532257581346739 0 -1 -2 2 4 70 5 1
1532257581376660 2 1 -2 -2 -2 -12 -4 -2
1532257581406580 13 -2 1 0 -7 -33 0 -1
1532257581451477 -2 -1 -1 -1 2 15 0 -1
1532257581490355 -3 10 5 3 -1 -24 3 -5
1532257581521286 -3 -10 -10 -3 -2 -8 -15 -6
1532257581534238 4 1 0 -1 2 14 1 3
1532257581557177 -2 2 0 -2 -8 -25 -6 -5
1532257581579118 -1 -4 -3 -1 -4 -16 -3 -3
1532257581594078 -1 -5 -7 0 13 42 5 0
1532257581617017 6 -3 0 -3 -5 -9 2 3
1532257581638958 -13 -3 -3 -1 -3 4 5 -4
1532257581661899 2 -2 0 -1 2 7 -3 3
1532257581684836 -8 0 -11 0 -14 -59 0 -2
1532257581714756 -23 -4 0 0 9 6 -2 -2
1532257581736697 1 -2 2 -4 -4 12 -1 -1
1532257581759635 4 -1 -2 -1 2 15 -1 -3
1532257581789556 10 -2 -1 -1 1 -12 0 4
1532257581820473 0 1 1 0 -2 11 -1 -1
1532257581857374 3 0 -2 -2 -9 -12 -1 -2
1532257581894276 -10 0 -1 -1 18 31 1 -3
1532257581917214 -1 0 0 -3 -3 0 -1 -2
1532257581956110 3 -1 -1 0 -4 1 1 -1
1532257581984042 2 0 2 -1 -12 -12 -4 -1
1532257582029919 -2 -2 -1 -1 -4 -4 -2 0
1532257582111701 -1 1 0 -2 -20 -13 -2 -3
1532257582149599 0 0 0 -1 -1 -1 -1 -2
1532257582171541 -4 -2 0 0 0 2 3 -2
1532257582224400 -1 -2 0 -1 -4 -3 1 0
1532257582269279 7 -1 -1 -5 -32 -12 0 2
1532257582307178 -6 2 0 -1 8 3 -5 3
1532257582344079 11 -2 -2 -1 2 0 -1 1
1532257582381978 0 -1 -2 -2 6 -1 -2 -2
1532257582426858 -15 -1 -1 0 3 3 1 -3
1532257582456777 -15 -1 0 0 0 2 0 -4
1532257582540553 -3 -3 0 0 -6 -3 -1 -3
1532257582599397 -13 -1 -1 -1 -6 -3 4 4
1532257582615354 2 0 -1 -1 -2 -3 -2 1
1532257582644278 10 -2 -3 -1 15 12 3 3
1532257582682175 18 2 0 -1 -5 -2 -3 -1
1532257582704117 -5 -2 -1 -2 1 1 -1 -2
1532257582734036 4 -1 -3 -1 -6 -4 -1 -5
1532257582756975 -7 -1 -1 -1 -3 -2 1 -3
1532257582816815 0 -1 -2 -2 -2 -1 -4 -1
1532257582869677 -19 -1 -1 -1 0 -1 0 0
1532257582936495 0 -1 -1 0 -3 0 3 0
1532257582982388 2 -1 0 1 0 -1 2 2
1532257583004314 2 -4 -1 -2 -1 1 6 2
1532257583049193 -1 -1 -3 0 1 -3 -4 -2
1532257583064153 -1 1 0 -1 -1 0 -1 -4
1532257583109033 -3 1 -3 0 0 -2 -5 -4
1532257583161892 -2 -1 -2 -1 -1 -2 -1 1
1532257583184830 0 -3 -3 1 -4 2 2 0
1532257583236693 -1 -1 -2 -1 -1 1 0 1
1532257583274591 -1 1 0 -1 -4 -1 4 0
1532257583289551 1 1 0 -1 0 0 0 -4
1532257583334431 0 -1 -2 -1 -2 -1 -2 0
1532257583364350 0 -2 -1 -3 0 -2 -7 -3
1532257583417209 17 -2 -2 -2 0 0 4 3
1532257583439151 5 -2 -1 1 -2 0 -2 0
1532257583492011 2 0 1 0 0 0 -2 -3

1532257583528911 -2 1 -1 -1 1 -2 -3 -2
1532257583566810 1 -2 -3 -1 -2 -3 -2 0
1532257583589749 -3 -1 -1 -1 -1 -1 0 -1
1532257583626650 -1 0 -3 -1 -1 -2 -2 -3
1532257583664020 -4 -1 -1 0 -1 0 -1 -2
1532257583716879 0 -1 -1 0 0 0 -1 2
1532257583754777 -1 0 -1 -3 -2 -1 -1 0
1532257583776721 0 -2 -1 -1 0 0 -1 0
1532257583829577 -2 0 -1 1 0 -1 0 0
1532257583866478 -1 -2 -1 -1 0 -1 -1 1
1532257583897396 -1 -1 -2 -2 -1 -1 -1 -3
1532257583957236 -3 -2 -2 -1 -1 -1 0 -1
1532257584002116 -1 -1 0 -2 0 0 -1 -2
1532257584091876 -2 -1 -1 -3 1 -3 -1 -2
1532257584121796 -3 -1 0 -2 -1 -2 -2 -4
1532257584166676 -2 -1 -2 -2 -1 0 -2 -1
1532257584189614 -2 -1 0 0 -2 0 -2 -3
1532257584219539 -2 0 -2 1 0 -1 0 -1
1532257584241476 1 0 0 -3 -2 -2 -1 1
1532257584272393 -2 -1 -3 -1 -3 -1 1 -1
1532257584287353 -1 -1 -2 -2 -2 0 0 2
1532257584309295 -2 -1 -1 -1 0 0 -2 0
1532257584324498 -1 -2 -3 -1 -1 0 0 -1
1532257584339458 0 1 -2 -1 0 0 -2 -2
1532257584369378 1 -1 -1 0 0 -1 -1 -2
1532257584392463 1 -1 -2 -1 -2 -4 -2 -2
1532257584422384 -1 -3 -2 -1 0 1 -1 1
1532257584444326 -1 0 0 -3 -1 1 -2 1
1532257584459287 -1 1 -1 -3 -1 -1 -2 0
1532257584489206 1 -1 -2 -2 -2 -1 0 0
1532257584512145 -1 -2 -1 0 -2 -2 -1 0
1532257584549046 -2 -1 -1 0 0 0 -2 0
1532257584571985 0 -1 -1 -1 0 0 -1 3
1532257584601905 -1 1 -2 -1 -1 1 -1 0
1532257584624844 -2 -1 -2 -2 -1 1 0 -2
1532257584654764 0 0 -1 0 -1 -1 -1 -1
1532257584669724 -1 -2 -1 -1 -2 -1 -1 -2
1532257584699643 0 -1 -1 -2 -2 -1 0 -1
1532257584714604 -2 -2 -2 -1 -1 0 -1 1
1532257584729564 -1 -2 1 1 0 0 -3 -1
1532257584744524 0 0 -2 -1 -1 -2 0 1
1532257584766465 1 -1 1 -1 -2 -2 -2 3
1532257584789403 -1 -1 0 0 -2 1 0 -4
1532257584827303 -1 -3 -1 0 0 1 -3 -1
1532257584849244 -1 0 -1 0 0 -1 0 -1
1532257584887142 -3 -3 -1 -2 -2 1 -1 0
1532257584932022 -1 -1 -2 -1 -1 -1 -2 -3
1532257584946982 0 -1 -4 -1 -2 -1 -1 -1
1532257584991863 -1 0 -1 -1 -1 0 -1 0
1532257585029761 -2 0 -2 -1 -3 0 0 -1
1532257585051702 -3 0 -1 0 1 -1 -1 3
1532257585081622 -1 -1 0 0 -1 -1 -2 -2
1532257585119521 -1 -1 0 -1 -2 -1 -2 -4
1532257585141462 -1 -1 -2 -2 0 0 -1 -1
1532257585157419 0 -1 0 0 -1 0 0 -2
1532257585172386 0 -1 -1 0 2 -1 0 -2
1532257585194321 -1 -1 -1 -3 -1 0 0 -2
1532257585217260 -2 0 -1 -1 0 -1 -3 -2
1532257585232230 -3 -2 -1 -1 -5 -1 -1 -2
1532257585254161 2 0 0 0 1 -1 -1 0
1532257585284081 -1 -2 0 -1 -4 -2 0 -1
1532257585307019 0 0 -2 -1 -1 -2 -2 -1
1532257585321980 -1 -1 -2 -1 0 0 -1 1
1532257585343934 -2 0 -1 -1 1 -2 -1 -2
1532257585366859 3 -1 1 -2 3 0 -2 0
1532257585381819 -1 0 0 -2 0 -1 -1 0
1532257585404758 -2 -1 -1 -2 -1 0 -1 -2
1532257585426699 -1 -1 -2 -1 0 0 0 0
1532257585456619 -3 -1 -1 -1 1 0 1 -1
1532257585479558 -1 -3 -1 0 3 0 1 -3
1532257585501523 -2 -1 -1 -2 0 0 -3 -3
1532257585539421 1 -2 0 0 7 4 -1 1
1532257585554381 1 -2 -2 -2 -3 -2 0 2
1532257585584301 -1 0 -2 0 -6 -2 -1 -1
1532257585607240 0 -1 -1 -2 -3 -2 -3 -2
1532257585629181 0 -1 -3 -2 -1 1 2 1
1532257585644141 -2 -2 -1 -1 3 0 -3 2
1532257585682040 -2 -1 -3 -2 2 -1 -1 -1
1532257585718941 -2 -3 0 0 -3 1 1 -1
1532257585734913 -2 -3 -2 0 10 2 -1 -1
1532257585771800 -3 -2 -2 -1 -5 -2 0 -2
1532257585809698 -1 -1 -1 0 -5 -4 -3 -3
1532257585839618 -1 -1 0 -5 -33 -13 3 -1
1532257585854578 -2 -1 -2 -2 -6 -3 0 1
1532257585891480 -3 -2 -1 -2 3 -1 0 -2
1532257585922413 0 0 0 0 7 5 -2 -3
1532257585952323 3 -2 -1 -2 -4 -3 0 1
1532257585989218 0 -1 -1 -1 -4 0 0 -1
1532257586012157 -2 0 -1 -3 -9 -9 1 1
1532257586027116 -3 -1 -2 -1 1 -1 -6 -2
1532257586064018 -6 -1 -2 0 -3 -3 -3 0
1532257586093951 -3 -1 0 0 11 7 6 -2
1532257586109909 -2 -1 -2 -1 0 1 -1 -3
1532257586124870 -5 1 -2 -2 -7 -5 0 -3
1532257586161771 -4 -2 -1 0 3 1 -2 2
1532257586199669 -3 -1 -2 -4 -14 -6 -2 0
1532257586229589 -8 1 -1 -1 -4 -2 3 -1
1532257586244550 -11 0 -1 0 1 1 3 0
1532257586274470 -4 1 -1 -3 -20 -6 -3 -2
1532257586297408 -6 -1 -1 -1 3 0 -1 -1
1532257586342288 -5 -2 0 1 0 -2 -4 -2
1532257586364229 1 -1 -1 -2 -5 -2 2 0
1532257586402129 1 1 -1 -2 -2 -1 -2 1
1532257586424070 6 -1 0 1 -1 -4 -2 -1
1532257586484909 0 1 8 8 -29 28 5 2
1532257586514826 -1 0 3 1 9 -16 6 2
1532257586551727 -2 1 -2 -14 -14 -25 -7 -2
1532257586566687 -1 -1 0 10 -6 -11 -3 -3
1532257586604587 -2 0 1 -5 3 13 -2 -2
1532257586619546 -1 0 -2 13 11 8 1 1
1532257586664426 -2 -3 -5 -22 10 8 1 -1
1532257586694346 -2 -3 -9 -18 10 -1 -1 -2
1532257586732245 1 -2 -2 9 -9 25 4 1
1532257586784106 -3 -4 -3 -9 -3 -11 -7 -5
1532257586828987 -4 -1 13 8 2 14 -1 2
1532257586881845 0 3 0 -9 -7 -3 -4 -2
1532257586934703 -5 -2 7 5 5 5 -5 -1
1532257586956645 8 -9 -11 -7 -5 0 2 9
1532257587009504 34 10 -4 -5 1 0 2 4
1532257587107242 -15 -2 -1 4 -3 -4 -5 -10
1532257587174064 4 1 4 1 -3 -33 -1 -1
1532257587234901 2 -4 -3 4 0 0 -2 1
1532257587346602 -2 -1 -6 -13 6 22 6 1
1532257587369540 -2 -1 1 -1 -4 4 -7 -1
1532257587429381 0 1 2 6 1 8 2 1
1532257587452325 0 -2 -2 -6 -20 9 -2 -1
1532257587534100 0 -5 -1 -4 11 8 5 3
1532257587557039 -3 0 1 -6 12 -11 0 3
1532257587586960 1 0 0 1 7 0 -3 0
1532257587616879 -2 -10 -6 -1 -6 -1 1 1
1532257587631840 0 9 12 -1 1 1 -3 -2
1532257587684698 2 -2 -4 -1 -4 -9 -1 -1
1532257587699658 11 6 0 1 -3 -2 -2 -1
1532257587714618 -5 8 8 -2 -2 -1 -2 -2
1532257587751519 1 -3 -1 -1 -1 0 -1 -3
1532257587789418 -5 2 1 -1 3 -2 -3 0
1532257587812357 0 -2 -4 -2 0 4 1 -1
1532257587842277 1 3 7 7 4 -1 3 1
1532257587879178 0 -1 8 29 6 -1 -1 0
1532257587894138 1 -4 -3 -4 0 -6 9 2
1532257587932037 -2 -1 4 9 9 13 -1 1
1532257587953978 2 0 -1 -1 -4 14 14 1
1532257587968939 -3 -8 -6 -13 0 57 -9 -5
1532257587992878 -1 -4 -3 -3 -12 -9 0 0
1532257588014815 3 2 7 0 -24 -59 2 3
1532257588036757 1 1 1 3 -12 -77 6 2
1532257588051733 -2 0 -1 -4 3 8 -1 -2
1532257588112554 -4 -3 2 0 -1 22 0 -3
1532257588150461 -8 -2 -1 -2 7 23 -1 -3
1532257588187354 -5 1 0 1 -10 -7 -2 -1
1532257588239215 1 -2 -2 -3 2 7 1 1
1532257588269137 -1 0 1 0 2 3 2 -1
1532257588292074 -3 -1 -1 1 -1 9 0 0
1532257588314015 0 1 1 -2 -4 -20 -4 1
1532257588343935 -4 0 0 -1 1 4 -1 -2
1532257588359893 -3 -2 2 -3 5 9 0 -1
1532257588381833 -7 -1 -3 -1 -9 1 1 -2
1532257588449653 -7 -2 -2 1 -7 -4 -7 -2
1532257588479572 2 1 0 0 -3 -9 -2 0
1532257588494548 -2 -1 -1 -1 -8 3 1 -2
1532257588509493 -2 -2 -1 0 0 -2 -6 -3
1532257588531434 -2 -3 0 -1 -1 -7 1 0
1532257588562351 -2 -3 -1 -2 2 -12 0 -2
1532257588607232 0 0 -2 -2 4 6 -1 0
1532257588629173 -1 0 0 2 -5 -10 0 -1
1532257588659092 0 0 -1 0 9 2 -3 0
1532257588703973 -2 -1 0 -3 0 -7 -6 -1
1532257588718933 0 0 0 0 -3 1 0 -1
1532257588749850 -1 -3 -2 0 -3 0 4 -3
1532257588771808 0 2 -2 2 -3 -6 -1 0
1532257588786751 0 0 -2 1 1 4 3 -3
1532257588816671 -1 -3 -2 -5 -43 -32 -1 -4
1532257588839611 -1 -2 -1 0 -4 -22 -1 -1
1532257588869532 0 -1 -2 -5 -28 -19 0 0
1532257588891471 -2 -3 0 -1 10 -2 0 0
1532257588914410 -2 1 -1 0 9 5 0 -1
1532257588944329 -4 -1 0 -2 5 -6 1 -2
1532257588967269 -3 2 -1 0 13 0 -1 -2
1532257588997188 -1 -2 0 -3 0 -13 -2 -1
1532257589036085 2 -1 -1 0 16 3 -4 -2
1532257589071992 -1 -1 0 1 0 6 -2 -3
1532257589086948 1 -2 -2 0 -2 6 1 0
1532257589116869 -1 1 -2 2 11 3 0 -1
1532257589139807 -1 1 0 -2 3 -3 -1 -2
1532257589154767 -1 -2 -3 -2 14 22 -3 -2
1532257589191669 -4 1 -1 -1 12 -3 0 -2
1532257589214607 -1 -1 -1 2 6 -6 -8 -3
1532257589236549 -2 -1 0 -1 0 -30 -3 -1
1532257589274447 3 1 -1 -1 -7 -4 -1 -1
1532257589327306 0 0 -1 -3 -3 0 0 0
1532257589357226 5 -1 1 0 -1 3 2 -1
1532257589372186 2 -1 -3 -1 5 6 -2 -1
1532257589402106 1 -1 0 -2 -2 -1 -1 -2
1532257589417065 -1 0 -2 -2 -3 0 -2 -2
1532257589446985 0 -1 -2 0 0 -3 0 -1
1532257589461945 0 -1 0 -2 2 0 1 -2
1532257589491866 2 0 -1 -1 -3 -1 0 1
1532257589514804 1 1 0 -1 -28 -4 -3 -1
1532257589551705 0 0 -1 -1 8 1 -1 -2
1532257589589604 -2 0 0 1 4 -1 -1 -2
1532257589604564 0 0 1 0 4 1 -6 -3
1532257589634484 -2 -2 -1 -2 -2 0 1 0
1532257589664404 2 1 -2 -1 9 1 0 0
1532257589709284 -3 1 0 -2 -1 2 3 0
1532257589732223 -11 0 0 0 -5 -5 -6 1
1532257589762143 5 -1 1 -1 -5 -3 0 0
1532257589784084 2 -1 1 0 20 13 6 1
1532257589843924 1 -2 -2 -1 -2 -3 -1 -3

1532257589874841 2 -2 -2 1 6 1 -2 1
1532257589896782 2 1 -1 -1 -2 -4 -2 -1
1532257589926703 2 -1 1 0 3 -1 -1 0
1532257589949641 -12 1 0 0 1 0 0 -1
1532257589994524 1 -2 -3 -1 -5 -1 -2 -1
1532257590024441 3 -2 0 -1 5 0 -1 0
1532257590062356 0 0 -1 -1 0 -5 0 0
1532257590092276 -2 -1 2 -1 -3 1 0 -1
1532257590182036 -2 -2 -2 -1 -2 2 -1 0
1532257590196996 -1 1 -1 0 1 -3 -3 -1
1532257590226916 -1 1 -2 0 -2 -3 -5 -2
1532257590249283 -2 -3 -1 9 1 -1 0 2
1532257590287181 0 3 -2 1 -34 -12 -6 -1
1532257590324083 -4 -4 -1 -8 15 4 -3 -4
1532257590391902 -5 -20 -19 -15 -2 2 3 9
1532257590466701 -2 32 5 -7 1 2 10 3
1532257590512236 3 4 -11 9 2 10 7 3
1532257590549137 -25 12 -1 5 -13 -21 0 1
1532257590587037 32 1 5 0 10 8 -5 -13
1532257590669780 -4 -10 -18 -2 -2 15 25 9
1532257590691721 -4 -2 -8 -5 5 -9 -5 14
1532257590744580 1 0 -3 -15 -36 -13 2 2
1532257590789459 -2 -6 1 -1 13 18 6 -3
1532257590857278 -6 1 0 -3 0 8 -2 1
1532257591164457 -5 -2 -2 -7 -5 11 -5 -11
1532257591202355 2 -3 0 1 5 -2 10 3
1532257591561632 -1 -4 -2 -5 -4 -2 -4 -6
1532257591697415 1 -2 -3 -7 -21 -37 -9 -6
1532257591832057 -4 3 2 3 6 10 0 -1
1532257591914835 -2 -3 -2 2 1 2 2 -6
1532257592162185 -4 -1 0 0 -3 1 -3 -5
1532257592326744 -12 0 2 -1 -17 -25 -2 -1
1532257592529250 -6 -3 -2 -4 -10 -3 -3 -4
1532257593557185 3 -6 -6 -3 -5 -3 -2 0
1532257593939464 2 1 2 6 -1 -1 1 0
1532257594216722 -4 3 -4 -10 3 33 2 -5
1532257595603945 -15 6 1 1 -2 73 -48 -5
1532257595658799 -2 -1 -3 -11 0 8 0 3
1532257595694703 -18 -7 -6 -4 -2 15 -4 -3
1532257595709663 3 4 11 -4 -20 14 -2 0
1532257595807402 4 -9 -8 -9 -10 -13 14 -1
1532257595867256 -5 -5 -4 -5 -13 -16 -13 -2
1532257595919102 -4 -6 -9 -5 -14 6 27 4
1532257595978944 4 3 -7 1 -3 -6 6 0
1532257596046762 7 0 -1 3 -12 35 -7 9
1532257596084661 5 8 6 2 32 -8 -7 -14
1532257596136521 -2 -5 -8 1 -10 -38 -22 -7
1532257596234260 -11 0 3 -1 -7 -26 -16 -8
1532257596257199 -10 -2 -3 -5 -9 7 -5 1
1532257596272159 -1 -5 -4 -4 -9 15 -11 -4
1532257596302079 -2 0 -1 -3 -8 8 13 0
1532257596331999 -12 -2 -1 2 12 22 6 0
1532257596361919 -4 -7 -7 -10 -5 -12 6 3
1532257596376878 -11 4 1 -2 -2 8 17 3
1532257596421775 2 -3 -1 0 -9 -9 11 -3
1532257596444697 -27 -1 2 2 5 17 -5 -13
1532257596519508 1 0 -1 1 -2 -2 -3 -4
1532257596534457 -2 1 0 -1 -4 -10 5 2
1532257596564377 -1 -3 -1 -2 2 8 34 -4
1532257596579337 1 3 0 -1 -1 7 4 -4
1532257596594297 9 0 0 -1 0 -1 -12 4
1532257596617236 7 -1 -3 -1 -2 -2 -11 -1
1532257596639177 -3 -3 0 1 -1 -2 -16 6
1532257596669097 -2 -5 -1 2 2 1 -12 -5
1532257596692036 1 1 0 -1 0 -3 10 1
1532257596728937 1 6 4 4 3 3 8 -1
1532257596744895 -3 1 -1 -4 2 -4 -11 7
1532257596766836 -2 -3 0 1 0 7 13 5
1532257596796756 0 -2 2 5 2 -40 11 7
1532257596811715 -5 -12 -10 -9 -1 55 14 -2
1532257596834655 1 4 0 -1 -3 33 4 3
1532257596886516 0 0 0 -5 -38 -117 -19 -2
1532257596909454 1 0 5 5 23 -22 9 1
1532257596954335 -11 -3 2 -2 -3 38 -12 1
1532257596984254 9 0 -2 0 0 25 16 3
1532257597014175 4 -2 1 1 -3 -5 -4 2
1532257597037113 -4 -1 1 -1 -3 23 0 -4
1532257597052091 0 0 2 0 -1 3 -1 0
1532257597081993 8 -1 -3 1 1 -6 3 -7
1532257597096962 -30 8 8 2 4 24 1 -1
1532257597111913 1 -4 -4 -1 2 11 6 1
1532257597149811 -18 -2 -8 -2 -2 -8 -7 -6
1532257597164772 15 -6 -3 -2 0 1 6 7
1532257597194692 -1 -1 -2 0 1 0 -4 0
1532257597224611 -1 0 2 -1 1 -10 2 -2
1532257597239572 -1 -7 -3 -2 -2 2 -2 -2
1532257597276473 -12 5 3 0 0 -1 -1 -2
1532257597291433 -12 1 1 0 -1 5 1 4
1532257597367230 -1 0 -1 -2 -1 1 0 0
1532257597397150 6 0 -3 1 1 -1 1 0
1532257597449012 -11 0 -1 -2 -2 -1 0 -3
1532257597471950 2 0 1 2 1 0 3 -1
1532257597494888 -5 -1 -3 -2 -1 -1 -3 -4
1532257597554729 18 1 0 -1 -3 -1 -1 1
1532257597621550 -3 -3 -1 -1 -2 -1 -1 0
1532257597644489 0 0 -3 0 0 0 2 3
1532257597682391 2 -2 -1 -1 -3 0 -2 0
1532257597697348 3 0 -1 0 -1 2 0 1
1532257597742227 -5 -2 -1 -2 -3 -5 -2 -2
1532257597764169 -2 -1 -2 -1 1 1 4 1
1532257597809049 0 -2 -1 -3 -1 -3 -2 1
1532257597855924 -3 0 0 -1 -1 -2 -2 -2
1532257597876868 -1 -1 -1 0 -1 -2 0 -1
1532257597914766 0 -1 0 -1 -1 1 0 -2
1532257597944686 -3 0 2 -2 -1 0 -1 -1
1532257597974605 -1 -2 -2 0 -1 -1 -1 -2
1532257598034446 -2 0 -1 -1 0 -1 0 -1
1532257598057385 0 -3 -1 -2 2 -1 1 0
1532257598087305 -2 -1 0 -1 -2 -2 -2 -2
1532257598109246 0 0 -2 -3 -2 0 0 -2
1532257598154126 -1 -2 -2 1 -1 0 -1 -1
1532257598178062 -1 -2 0 -2 -1 0 -2 0
1532257598206984 0 -1 -1 -2 0 -1 0 -2
1532257598228926 -3 -2 -2 0 0 -2 -1 1
1532257598281784 1 0 -2 -2 0 1 -1 -2
1532257598364563 -2 -3 -1 -3 -1 0 -2 0
1532257598454323 -2 0 0 -1 -1 -2 -1 -2
1532257598477261 -2 0 -2 -1 -1 -3 0 0
1532257598522142 -1 -2 0 -3 -1 0 -3 -4
1532257598537102 0 -1 -1 -1 -1 -1 -3 1
1532257598603923 0 -1 0 -1 -1 0 0 1
1532257598619881 -3 1 -1 0 -1 -1 -3 -1
1532257598664760 -2 -1 -2 0 -3 1 1 -4
1532257598724601 -1 -1 -2 -2 -1 0 0 0
1532257598746543 -2 0 0 -1 0 3 0 -3
1532257598776473 2 -1 -1 -1 -3 -3 -1 -1
1532257598791422 -1 -2 -2 0 -1 4 3 -1
1532257598807379 4 -2 -1 -2 -2 -4 -3 -5
1532257598837299 1 -2 0 -1 -2 -1 -1 2
1532257598852259 -3 0 0 0 0 -1 0 1
1532257598867234 4 2 -1 0 0 0 -1 1
1532257598897139 -7 -1 1 0 -1 -2 0 3
1532257598912100 -6 -1 -1 1 -1 -2 -7 -3
1532257598949001 10 -1 0 -1 0 -4 -7 1
1532257598979929 7 1 0 -2 0 -2 2 4
1532257598994878 -5 -2 -1 1 1 0 2 -3
1532257599016819 3 -1 0 -2 -1 -1 -2 1
1532257599046739 -19 0 -1 -1 0 -1 -2 -4
1532257599061699 -5 0 -1 -1 -1 -1 1 -3
1532257599084641 3 -1 0 0 1 -1 -2 -6
1532257599114558 -6 -2 -1 -1 -4 -2 -4 -3
1532257599136500 13 -1 -1 -1 1 -1 1 1
1532257599167417 -3 0 -1 -1 0 0 10 1
1532257599204318 -8 0 -1 0 0 2 5 0
1532257599234238 -3 1 -1 -2 -1 -3 -5 -1
1532257599257176 5 0 0 0 4 11 0 0
1532257599294077 2 -2 -2 0 -3 -7 -4 -3
1532257599323997 -4 -1 -1 -1 0 -4 -8 -2
1532257599369875 4 -1 0 0 -1 0 -6 -2
1532257599384836 -4 -2 -1 -3 -2 -3 -3 -1
1532257599429715 0 -2 -1 0 -4 -23 -22 -3
1532257599481576 -2 -4 -3 -8 13 32 -10 -4
1532257599504524 -2 -4 -3 3 2 0 -7 -2
1532257599534434 -1 0 6 3 6 10 1 -1
1532257599579315 -1 3 13 39 -2 14 7 3
1532257599632174 2 0 4 7 -64 -22 1 -2
1532257599766814 -1 -5 -19 -41 -25 1 3 1
1532257599924392 2 0 2 -1 11 -44 3 3
1532257600001188 3 -1 14 16 -25 1 6 5
1532257600141815 -3 1 -6 -4 -6 -12 4 7
1532257600201651 -17 -1 7 4 -2 12 3 -13
1532257600224591 -2 -3 -2 -10 -30 -17 2 5
1532257600246531 -12 1 -2 5 15 14 10 -1
1532257600261491 14 -1 0 5 6 6 2 9
1532257600284430 2 7 6 4 -48 -10 -15 -8
1532257600299389 -7 -5 8 3 4 -30 2 1
1532257600352258 10 -2 -6 7 0 8 -11 0
1532257600389150 0 1 -2 10 14 42 -11 -24
1532257600434057 1 2 1 3 31 32 9 0
1532257600471929 2 10 19 6 2 -30 38 15
1532257600501848 0 0 1 15 5 -17 4 -4
1532257600629507 -10 0 -9 -11 0 0 -12 -8
1532257600659427 6 4 16 5 11 2 4 6
1532257600742206 -2 0 -4 -1 -3 0 4 -2
1532257600809027 -1 -2 -1 -3 -2 1 7 -2
1532257600884823 -1 -1 -1 1 -1 1 6 -1
1532257600929704 -4 -5 -4 -5 -7 50 13 -1
1532257600975581 -4 -1 -3 -5 16 17 -1 -3
1532257601004504 -1 -3 -4 -10 -3 -68 19 0
1532257601049384 -1 -1 -6 1 10 13 -35 -3
1532257601087283 2 3 -2 2 -4 -18 9 1
1532257601109224 0 -1 -3 -2 -22 -53 -32 -2
1532257601132163 -2 1 1 -1 1 27 2 0
1532257601147123 -1 1 0 2 -9 -10 -2 -3
1532257601199982 1 1 0 1 -16 -25 -17 -2
1532257601229901 0 -1 1 -1 -8 -26 1 -1
1532257601244861 -9 -3 -1 0 -1 -3 0 -1
1532257601259821 -2 2 2 1 4 -8 0 -1
1532257601274782 3 -3 -1 1 8 23 -8 -2
1532257601296722 0 -1 -3 -5 -9 19 -7 0
1532257601311692 -2 1 0 0 -8 -10 0 0
1532257601334621 21 -2 -5 0 5 17 -4 -1
1532257601386483 -4 -4 -2 -3 -1 -9 4 -4
1532257601409421 -3 -2 -1 0 7 -3 -10 0
1532257601439341 2 -2 1 0 12 3 7 2
1532257601454301 0 0 0 0 -11 -44 1 0
1532257601469261 -1 1 -2 1 20 16 -2 -1
1532257601484221 -1 -1 -3 0 9 -16 3 -1
1532257601507160 -3 -2 0 2 6 4 -1 -1
1532257601544061 -2 -2 -1 -1 -6 -8 -2 -2
1532257601567000 0 -1 -2 -4 -3 7 6 -4
1532257601588941 -2 -3 -2 -1 10 1 -5 -2
1532257601634818 -5 -2 0 -1 1 -1 -1 0
1532257601649778 -2 0 -1 -1 4 6 -2 -3
1532257601679698 1 -1 -1 -1 8 -17 -2 2
1532257601694658 -1 0 -4 -2 -4 0 1 0
1532257601709618 -1 -2 -2 0 -6 -3 -6 1
1532257601739538 -1 -3 -2 -1 -3 1 2 3
1532257601763475 0 -2 -2 -2 -1 -5 -3 -3
1532257601776439 -2 0 -1 -3 -23 -10 -4 -2
1532257601814338 0 -1 -1 1 2 2 -5 0
1532257601837276 0 -1 -2 -2 -8 2 -1 -2
1532257601859218 1 -1 0 -2 -4 5 6 1
1532257601882158 0 -1 -3 0 12 9 1 -2
1532257601904098 1 1 -1 -1 12 5 5 0
1532257601919059 0 -2 -2 -2 -2 -4 -2 -3
