1532257113804029 1 0 1 4 11 19 3 1
1532257113826944 -2 0 -2 -1 -5 -2 -10 -2
1532257113856865 -2 1 1 -2 -6 5 3 0
1532257113878805 -4 -4 -4 -4 -5 -6 0 -3
1532257113901752 -8 3 -3 -6 15 29 -5 -1
1532257113931664 1 -2 -2 6 -3 -18 5 3
1532257113961584 0 0 0 -3 -3 -21 -4 2
1532257114006464 2 5 -1 2 -9 -13 0 3
1532257114036384 -4 -3 -1 -7 5 19 2 0
1532257114127141 -4 -3 -1 3 -2 -20 -13 -12
1532257114172022 4 -2 0 -5 -6 -3 11 43
1532257114238843 5 2 -1 -6 1 -1 -9 17
1532257114374479 -3 -4 -3 -4 3 -15 -14 -21
1532257114413376 -3 -2 -5 -6 7 2 3 0
1532257114486181 -3 0 3 0 6 9 14 -10
1532257114517098 -4 -1 0 11 20 -4 -5 -6
1532257114568960 -1 1 -1 -6 -22 -21 -8 1
1532257114591898 -1 -2 -1 -4 -12 7 30 9
1532257114628799 -19 -5 -3 -8 4 10 3 27
1532257114681665 4 -1 3 3 17 9 14 -1
1532257114726545 -13 1 0 3 1 1 30 -27
1532257114756465 -15 -39 -6 -4 10 11 14 16
1532257114779404 -15 10 -16 -8 -20 38 84 -4
1532257114801345 -19 -16 -2 -6 17 -15 -64 -70
1532257114816305 -64 -47 -12 -11 24 4 -49 -63
1532257114854218 10 24 15 1 -4 3 73 -22
1532257114870175 36 -16 -4 14 6 23 102 39
1532257114892131 -37 -35 -5 -23 -23 -7 -44 -79
1532257114907076 -18 19 -7 -4 -13 -7 -49 -41
1532257114922036 -14 -33 -8 -2 9 -25 10 -17
1532257114951960 24 11 -4 -4 21 12 38 61
1532257114973898 20 -2 -11 2 -8 2 39 15
1532257115003818 13 -8 -3 -5 -41 7 -6 35
1532257115033737 -18 -40 -8 -6 6 11 17 -27
1532257115056677 14 5 4 0 -13 -2 39 8
1532257115071636 2 8 1 -1 -13 2 -45 -28
1532257115094575 -4 -19 -8 1 -4 -15 -51 15
1532257115116516 25 9 -9 -2 20 7 10 16
1532257115131476 -16 25 21 1 10 4 -5 -26
1532257115154415 -8 12 -8 3 16 3 6 -56
1532257115191316 5 45 23 -7 -50 -18 -33 13
1532257115206276 -5 -31 -6 5 46 5 -33 -5
1532257115236196 -15 -31 1 -16 -33 2 58 -15
1532257115260132 -25 -8 -18 -3 20 10 -5 -52
1532257115289055 -13 -32 -4 2 13 7 -16 49
1532257115371833 9 39 3 -3 -21 22 29 -20
1532257115401754 -6 -1 22 -2 -9 -2 13 -53
1532257115461594 36 24 17 1 3 22 46 89
1532257115536394 -2 5 -19 13 6 8 17 23
1532257115649092 6 -2 -14 -8 21 -17 -28 16
1532257115686991 -4 -1 25 0 -46 -14 32 -29
1532257115738852 6 19 9 9 17 2 25 -1
1532257115783732 1 -1 -8 -1 2 7 -3 11
1532257115814656 0 10 9 -4 2 7 37 -2
1532257115874489 -6 1 7 0 -2 0 -41 0
1532257115926351 1 -3 -8 -5 -5 -4 -60 -4
1532257115956270 -6 -2 -1 -4 -2 4 25 -2
1532257115980206 -2 -4 10 -1 7 2 74 -5
1532257116032068 -4 -2 -8 -1 -1 -3 -128 -2
1532257116068969 0 6 5 10 4 11 7 0
1532257116128809 0 -1 6 -2 -8 7 5 -1
1532257116151747 1 -2 -5 0 -2 -22 -1 -1
1532257116234527 -6 -4 -3 1 2 -6 -4 -3
1532257116309327 -1 -2 -1 0 7 11 8 2
1532257116458926 0 0 0 -5 -25 2 -1 7
1532257116556665 8 9 0 3 -5 -4 -7 -3
1532257116789044 -5 0 1 -3 5 37 -1 -5
1532257116804004 0 0 0 -4 23 -16 8 2
1532257116848884 5 -32 -5 0 22 44 33 9
1532257116871822 -12 -22 -4 1 11 5 30 6
1532257116908724 -28 -61 -15 6 2 -38 -49 -20
1532257116961582 36 17 4 1 -6 -37 -8 6
1532257116984538 -36 3 -11 -13 -16 -29 -61 -12
1532257117029401 15 3 5 4 8 66 27 3
1532257117074281 -1 29 1 -6 -15 -8 22 -1
1532257117119161 5 -21 -5 -1 1 16 -1 2
1532257117246820 18 3 3 4 28 19 4 7
1532257117366500 -15 -94 -28 -11 -8 3 -24 -10
1532257117404398 -10 -18 6 11 13 -15 -1 2
1532257117426340 -6 -1 -5 -4 -10 8 6 -3
1532257117456260 -4 -6 3 2 -25 1 18 0
1532257117494158 -8 -6 -8 -4 -2 41 17 0
1532257117547017 -5 29 2 -2 5 4 -10 -10
1532257117583918 -11 -12 0 -3 -6 -7 -11 -3
1532257117628798 -5 -13 -1 -5 -5 -2 -15 -5
1532257117764436 -1 0 1 2 6 2 -6 0
1532257117854195 -10 7 1 1 -14 4 -12 0
1532257117907054 -4 12 -1 -3 -1 2 -1 1
1532257117936974 6 8 1 2 5 -6 -1 5
1532257117981854 9 26 2 2 7 0 1 1
1532257118033715 18 -14 -2 -1 0 12 23 6
1532257118071613 -7 18 3 -2 -2 3 -5 -2
1532257118169353 -3 -5 0 4 -6 -19 -13 -8
1532257118206254 2 7 0 1 -14 -1 5 3
1532257118282051 2 12 -2 -4 -8 -19 -8 1
1532257118371811 1 -8 -2 -4 5 8 23 4
1532257118408712 -10 12 -1 13 -3 -6 -3 -2
1532257118469550 -3 -32 -4 -7 -2 -5 -5 0
1532257118536372 -2 -23 -5 0 -2 -15 -30 -7
1532257118574269 -3 -3 0 4 0 -16 -3 -3
1532257118761768 8 -1 -4 0 7 14 -3 1
1532257118791689 -6 3 -4 -4 1 -13 -24 -7
1532257119174670 -4 4 3 3 18 2 13 0
1532257119407043 0 2 -1 -2 23 3 18 21
1532257119586563 3 5 -1 4 -29 3 0 -2
1532257119833902 -5 -9 -19 3 1 0 7 7
1532257119863821 -1 -10 -4 -7 -25 -14 -1 51
1532257119961560 -7 3 -6 -22 -4 23 -3 20
1532257119999459 -12 -5 16 13 -7 16 36 -59
1532257120036360 10 -14 -12 2 14 -1 2 27
1532257120059299 0 -4 3 -15 -4 0 -3 -3
1532257120081240 -1 -1 7 9 -2 -4 -5 2
1532257120126120 0 4 10 4 9 6 9 -2
1532257120201934 -1 -3 -5 -5 0 24 0 -4
1532257120299656 -2 -8 -24 -14 -5 -25 -4 -5
1532257120315614 1 -6 -12 24 4 11 1 2
1532257120404376 -7 -11 -8 -10 12 13 -18 -10
1532257120426318 1 3 3 8 66 50 5 3
1532257120479175 -6 -4 3 -5 -37 0 -3 3
1532257120502115 -1 -2 -5 -3 -41 -1 -5 1
1532257120524056 0 -10 -12 -3 28 42 0 0
1532257120591875 4 -3 -12 -34 -121 -77 -10 -6
1532257120613816 5 -5 2 1 30 20 1 -2
1532257120636755 0 9 4 7 30 -22 -10 -3
1532257120673656 1 -2 4 3 -5 -19 8 6
1532257120689616 3 -2 -7 0 -4 31 10 11
1532257120704574 0 10 5 14 78 36 -4 -2
1532257120741475 12 45 5 0 14 -4 -4 -3
1532257120779372 -16 -68 -13 -20 68 14 -7 -4
1532257120794333 -9 -21 1 -9 -3 -70 -6 -4
1532257120831235 -4 6 0 -6 -13 -62 -4 -4
1532257120846194 -13 -49 -5 13 37 59 6 -4
1532257120899053 0 4 4 26 -10 15 1 1
1532257120914013 7 14 15 45 0 14 1 5
1532257120958893 2 -18 1 9 -5 49 -10 -6
1532257121011751 -2 -29 -8 -10 -23 -22 3 0
1532257121033693 -3 5 -4 -8 5 -62 5 5
1532257121071592 -2 9 7 -3 -25 -22 2 -4
1532257121109490 -12 9 1 12 -10 34 -7 -6
1532257121140408 -2 -4 -3 -4 21 22 1 4
1532257121161352 -14 -13 7 8 20 15 -9 -2
1532257121251131 6 11 1 4 6 25 -5 -3
1532257121311986 2 -1 -3 -4 -14 32 0 -2
1532257121356866 -12 -6 -5 -13 -96 -51 3 2
1532257121417703 0 -12 -6 -22 -11 11 3 -1
1532257121447623 4 10 0 0 -18 -11 3 2
1532257121499500 -2 0 0 1 4 6 2 -1
1532257121514459 -4 -3 -3 2 5 -7 -3 2
1532257121566320 3 0 6 10 5 -20 -1 1
1532257121627175 0 1 3 5 6 21 0 -1
1532257121672038 -1 -3 -4 -2 -8 -11 -4 1
1532257121701958 -3 -2 -3 -2 -1 -2 0 -2
1532257121723899 -3 0 -5 -8 17 2 0 -3
1532257121806678 -1 -2 -2 -1 -29 0 -2 -1
1532257121829617 -1 -1 0 5 9 3 -1 -2
1532257121851558 -1 -2 0 2 7 4 -3 1
1532257121896438 -5 -6 -3 -14 -7 -31 -8 -3
1532257122017115 1 1 -2 1 18 31 6 -2
1532257122076956 -2 -3 -2 6 22 -1 -10 -4
1532257122121835 -1 0 0 1 -13 51 -1 1
1532257122189654 -1 0 2 0 0 -12 10 3
1532257122234534 0 -1 -1 -1 4 8 -11 -4
1532257122294373 1 0 0 1 -1 -6 -2 -1
1532257122354214 -13 -1 -2 0 3 12 4 -1
1532257122369174 -7 1 -1 -2 3 -2 -5 -2

1532257122392126 -4 0 -2 -1 1 1 1 -1
1532257122407073 -2 0 0 0 -2 13 -8 -3
1532257122460929 -13 -2 -2 -1 -18 -17 -10 -5
1532257122571633 -5 1 1 1 4 -3 7 0
1532257122616513 3 0 -4 -2 -1 -8 5 -2
1532257122833970 -3 1 1 -1 -3 -7 -1 0
1532257122848930 -1 -3 0 -2 -4 2 1 1
1532257122901827 0 0 -3 -2 4 16 0 0
1532257122938728 -1 0 -1 -1 1 11 1 -2
1532257122961673 2 -1 -4 -1 -1 2 -1 0
1532257123014531 -2 -3 -2 -2 -1 -8 -2 -3
1532257123104292 -10 1 0 0 -2 -1 0 0
1532257123126233 2 0 -2 -1 2 -3 -3 0
1532257123216990 -2 -2 -1 0 12 23 2 -2
1532257123246910 -2 -2 -2 -1 -4 14 1 -1
1532257123283812 0 0 -1 1 -5 1 -2 -1
1532257123336670 0 1 2 1 14 -3 1 2
1532257123389053 -2 -5 -2 0 15 34 3 -1
1532257123448886 -2 -3 -3 -1 4 -1 0 -3
1532257123517701 2 -1 0 0 1 -7 0 0
1532257123554603 0 -2 0 2 -2 4 0 -3
1532257123576544 -1 -1 -2 -2 -9 2 -3 -2
1532257123629402 0 -2 -2 -1 -1 -11 -1 1
1532257123689242 0 -2 -1 -2 -10 31 0 -2
1532257123727158 0 -1 0 0 9 -5 -2 0
1532257123757061 0 0 -2 0 0 -2 -1 0
1532257123808922 -1 1 -2 -3 -24 -8 -1 -2
1532257123861781 -2 -1 -2 -2 -2 -8 0 -3
1532257123914649 -1 -2 -2 0 4 -5 -3 0
1532257124011382 -3 -2 -1 -2 -3 -15 0 0
1532257124034330 -1 -1 -2 1 1 -2 0 -1
1532257124086181 -2 0 -1 1 4 7 -1 -3
1532257124117098 -2 -1 0 1 12 8 -2 1
1532257124161978 -2 -1 -2 -1 4 7 -3 -2
1532257124183920 0 -1 -2 -3 4 2 -2 -1
1532257124206858 0 -2 -1 1 8 -3 -1 -1
1532257124236778 0 -1 0 -1 -3 -22 -2 -1
1532257124251739 -4 -5 -5 -3 -1 4 0 -1
1532257124281659 -1 -1 -3 -1 -2 11 0 0
1532257124296619 -1 -1 0 2 3 0 -3 0
1532257124326539 -1 -1 -1 7 32 -25 -4 -1
1532257124349478 0 -3 0 -9 -12 -9 2 -2
1532257124379397 1 -1 0 3 4 -1 -2 1
1532257124401339 -1 2 -2 -6 -2 0 0 -1
1532257124416298 -1 1 0 -2 -2 9 2 -1
1532257124454197 1 -2 -3 -1 -2 3 2 1
1532257124514037 -2 -1 0 2 -5 -14 -2 0
1532257124551936 0 0 0 1 -16 0 0 -4
1532257124588837 6 1 -4 -14 -19 -5 14 6
1532257124633717 -4 2 -1 -2 1 -8 7 -7
1532257124686576 -2 1 2 -2 0 3 2 2
1532257124731455 -2 0 2 3 3 0 -10 -9
1532257124776336 -2 2 -2 7 4 -12 0 -2
1532257124806256 -2 -2 4 11 7 3 -7 13
1532257124836176 2 2 -1 -1 -4 -2 1 2
1532257124867092 -4 -5 -6 -5 -4 -2 -6 -25
1532257125008714 1 1 -1 -7 -17 7 7 25
1532257125054592 1 2 1 -4 -9 -6 7 -1
1532257125076533 -3 -1 1 0 7 3 -1 -12
1532257125121413 -7 -1 2 3 -8 -24 -1 10
1532257125166293 3 2 0 3 -1 0 0 2
1532257125211173 2 -2 -1 0 7 0 -2 0
1532257125227130 -4 2 1 -1 8 34 23 1
1532257125249072 29 1 -3 -2 1 68 1 11
1532257125278992 19 2 4 0 1 10 -8 11
1532257125301930 -35 -2 0 0 4 -23 -28 -32
1532257125346810 -1 -4 0 0 3 -3 10 3
1532257125368752 -6 0 -1 -3 -4 -23 0 -10
1532257125383712 8 0 -1 2 9 7 16 32
1532257125429589 2 -2 -2 -1 -4 1 0 4
1532257125474468 -2 1 -1 0 0 -13 -15 -7
1532257125496410 2 0 -1 -5 -7 -24 -4 -1
1532257125586171 -10 -2 0 4 -1 26 85 -39
1532257125624069 -11 4 -1 0 -7 -7 -38 -12
1532257125661967 -5 4 -1 -6 8 12 7 -20
1532257125676927 10 -2 1 -3 10 3 10 30
1532257125691887 11 15 0 0 -8 1 13 2
1532257125721807 -10 1 5 13 2 9 5 20
1532257125743749 -15 -8 -3 -1 -48 -1 13 -14
1532257125774682 1 -20 -2 -4 7 -2 -26 96
1532257125804586 -10 -14 -5 -2 74 14 -8 -57
1532257125849466 1 13 10 6 -7 9 -4 -27
1532257125879385 8 -37 -7 -2 -11 0 43 40
1532257125916287 -4 0 -3 -18 -16 4 19 -39
1532257125939226 22 23 8 3 -22 -5 24 35
1532257125976128 3 18 24 -3 4 0 -5 14
1532257126051925 12 1 -3 -20 -47 -1 -14 93
1532257126103786 -16 -12 2 -2 -7 3 -18 22
1532257126224463 -17 -17 28 -14 11 9 28 -15
1532257127049258 2 -26 -7 -2 12 -13 21 6
1532257127394335 -3 -7 -1 4 11 -4 -4 -2
1532257127431236 -3 2 -1 -6 -5 -10 -12 -3
1532257127469135 16 15 4 1 -4 -4 -5 0
1532257127528975 -4 11 -2 -2 -8 -5 -6 -4
1532257127581833 2 -15 -5 0 -14 12 2 4
1532257127603775 0 10 2 5 -14 4 6 0
1532257127694532 14 -5 -6 -7 -4 1 1 2
1532257127784296 -9 5 -1 -10 -2 -3 -9 -7
1532257127844133 -4 -4 -1 -3 9 9 0 0
1532257127882030 1 3 4 2 0 73 13 1
1532257127971791 5 10 3 0 -9 -3 -2 0
1532257128024649 8 -7 -4 -4 19 3 -14 -3
1532257128114409 -1 4 3 -2 0 -2 8 1
1532257128136350 5 8 2 -3 -11 -8 -11 -5
1532257128384686 0 13 -2 -4 -11 -10 -19 -9
1532257128587152 -1 -10 0 -2 6 2 -7 -3
1532257128668934 -4 -5 -4 0 13 7 -1 -3
1532257128766672 -3 2 -1 -1 -4 -1 -6 -4
1532257128819531 -1 -5 -6 -2 -4 -34 -21 -3
1532257128977109 4 5 0 -1 0 3 -4 21
1532257129066870 6 1 -1 -4 -2 7 -3 -24
1532257129127717 1 -1 1 -2 -9 8 -6 15
1532257129171589 3 6 3 -7 -7 3 20 1
1532257129284288 -53 -51 -7 -4 -21 -13 -23 -22
1532257129306229 1 17 7 4 17 6 15 25
1532257129352114 -11 -19 -2 -7 -17 1 9 -30
1532257129396986 3 16 28 7 8 5 -5 -76
1532257129448848 -2 -12 -11 -5 -2 1 9 19
1532257129493727 -2 -16 -26 -5 -34 -6 -5 22
1532257129524645 -1 5 -4 -4 3 4 -1 18
1532257129554565 5 5 15 6 10 -1 26 18
1532257129584493 -14 -9 -11 -2 9 -6 -9 -51
1532257129621386 7 -10 -23 -9 -1 4 -1 23
1532257129674245 1 9 4 -1 15 6 13 17
1532257129749045 -12 -5 -1 1 -4 -1 -7 -43
1532257129861744 -10 0 -29 -19 -21 9 -4 -12
1532257130146981 0 -4 8 0 4 16 5 0
1532257130244721 4 2 -3 -9 0 -17 13 4
1532257130304559 -3 22 -1 1 21 -14 1 -2
1532257130356421 -1 -18 -12 -3 -3 -27 -6 -2
1532257130439199 -1 -7 0 -7 -51 -38 -9 -1
1532257130469119 -4 0 -6 -3 4 -22 10 3
1532257130501034 -5 -3 -5 -6 1 60 -5 -5
1532257130536938 -2 -8 -4 -14 -26 -46 -11 -3
1532257130581818 -6 -6 -9 -10 -17 -8 -4 -3
1532257130633678 20 2 -7 -8 -19 -13 0 8
1532257130724437 -1 34 9 6 14 -4 3 2
1532257130769337 0 13 -1 -4 2 13 1 1
1532257130844116 -1 39 -1 2 3 1 5 1
1532257130896975 -11 -16 -10 -25 -12 -10 0 -3
1532257130941855 1 -5 -1 2 21 7 -3 0
1532257130993716 -1 1 -6 -6 6 3 1 -1
1532257131016655 -1 0 0 1 -9 5 0 1
1532257131061535 -3 -4 0 0 8 14 -1 -2
1532257131151295 6 0 -1 -2 -12 -3 4 5
1532257131166255 1 0 1 10 -1 3 2 6
1532257131189194 1 -2 1 -5 3 0 -2 2
1532257131219114 -5 -5 1 -6 11 23 -3 -2
1532257131234074 -1 1 -3 -2 -12 -2 1 -3
1532257131263994 -1 -3 -6 -6 0 4 -2 0
1532257131293914 -1 -1 3 5 -22 -6 1 0
1532257131331812 -3 0 -3 1 -2 -3 6 -1
1532257131353754 -7 -9 -5 -14 -4 23 -1 -3
1532257131384678 0 1 0 10 0 48 2 0
1532257131406612 0 1 3 8 0 -51 -6 -3
1532257131504351 2 3 1 2 15 -10 14 2
1532257131519312 -3 -8 -2 0 -1 12 5 -1
1532257131571172 1 1 -4 -5 2 -1 2 0
1532257131632009 -2 -1 -2 -1 -5 6 -2 2
1532257131743711 0 -1 1 -2 -7 -11 -1 -1
1532257131796569 -4 0 0 1 4 9 -10 -7

1532257131962127 0 -2 0 -2 -3 -21 3 -1
1532257132007007 0 -2 1 3 -19 10 -3 -1
1532257132021967 -1 -1 -1 0 4 0 -1 -1
1532257132066847 -1 -2 -1 -2 -4 -7 -9 -3
1532257132081807 0 -2 0 -1 4 4 2 -2
1532257132164585 -2 -1 0 -1 -2 7 1 -2
1532257132239386 -2 -2 -2 4 -6 5 0 -1
1532257132291247 0 -2 -2 -1 -3 -13 0 1
1532257132411936 -1 0 0 -2 -10 5 -3 -1
1532257132494703 -1 -2 -1 1 -2 7 0 -2
1532257132578479 -3 0 1 -1 -1 -11 -1 -2
1532257132621364 -1 -2 -1 2 -1 -14 -1 -3
1532257132689183 -1 -1 -2 -1 0 -3 0 -1
1532257132719102 -3 -3 -2 -2 -1 8 0 -1
1532257132801899 -2 0 1 -1 2 10 0 0
1532257132831818 -1 -1 -1 -1 0 2 -1 -3
1532257132853760 0 -1 -2 -1 2 12 1 -3
1532257132906619 -1 -1 -1 -1 -2 -4 -3 0
1532257132951505 -1 -1 -3 -2 -3 -6 -2 0
1532257132996397 0 -1 -1 1 -3 4 -2 -2
1532257133079157 -1 0 -1 -3 2 -9 0 1
1532257133176896 1 -2 -2 -2 5 -2 -2 -1
1532257133221775 -2 -2 -3 -2 -3 -16 -3 -2
1532257133243717 -1 -2 -2 2 13 6 2 0
1532257133334474 0 -1 -1 -4 -6 -8 0 0
1532257133409274 -1 0 -1 -5 8 1 -1 0
1532257133446175 1 0 -4 -4 5 -1 -6 4
1532257133536933 1 -1 -4 0 2 -1 2 12
1532257133566853 -5 -1 -2 -9 -3 -6 -10 -14
1532257133611732 -2 -1 0 0 3 1 -6 -1
1532257133641670 0 1 2 6 2 2 -3 1
1532257133686549 2 1 -3 -4 -3 1 0 1
1532257133709488 -4 -4 -4 -8 -4 0 0 -8
1532257133761349 -2 -2 -5 -8 -9 -25 -5 -1
1532257133829168 2 3 5 3 -4 7 -5 -3
1532257133882026 -2 -7 -6 4 4 10 -2 -3
1532257133903968 -1 0 0 1 6 13 5 -1
1532257134016666 -1 -4 -5 -3 -7 -2 -5 0
1532257134219127 4 2 -2 -3 2 5 -6 -6
1532257134264006 3 -3 -2 0 -6 -47 -5 12
1532257134301920 2 -4 2 2 6 29 13 20
1532257134376703 0 -3 -2 -1 -6 11 3 18
1532257134391664 -7 -14 0 -5 -19 -10 29 -6
1532257134489402 -3 2 -1 4 15 21 16 -10
1532257134541264 13 31 -1 -1 -16 -10 -6 -23
1532257134564201 -2 -29 -6 -5 -3 -5 14 18
1532257134602101 8 20 1 4 7 4 22 9
1532257134624042 -6 10 0 9 3 0 -5 9
1532257134661941 10 -4 -6 -10 -7 1 3 5
1532257134676901 1 6 2 1 1 -1 -5 -12
1532257134721781 -1 15 0 3 10 1 -2 -17
1532257134745717 5 27 5 -1 5 -1 17 12
1532257134766661 -5 -23 -4 -8 -6 0 -8 -20
1532257134901300 -27 -4 -8 -15 0 -3 -25 11
1532257135073840 2 -11 -8 -8 5 0 -35 -33
1532257135291258 -2 -18 5 -3 -13 -7 14 9
1532257135382015 19 -6 23 2 -6 -12 -5 13
1532257135456815 2 -1 8 -1 -3 1 3 -2
1532257135561535 3 4 4 3 6 0 1 0
1532257135629354 0 2 3 0 2 5 7 3
1532257135659274 -3 2 5 0 2 -18 -7 -2
1532257135823834 8 9 -3 -2 -15 -37 -1 -1
1532257135899630 -3 0 2 6 3 11 -5 3
1532257136020309 12 -9 -1 -4 6 17 3 1
1532257136041253 -23 -6 -10 -10 -8 -6 13 -4
1532257136102090 9 3 -3 -2 -4 1 -3 2
1532257136117050 -9 19 1 -13 2 2 -13 -10
1532257136206810 -2 37 -4 -5 -45 -12 -5 -2
1532257136221770 -7 -4 -1 -6 32 -5 -7 -3
1532257136236730 -4 -24 -6 -7 -12 7 8 -4
1532257136274628 9 0 1 0 17 9 -9 -2
1532257136334468 -2 -4 0 0 -20 4 3 2
1532257136371370 3 4 1 0 -18 8 13 0
1532257136507007 -4 1 -4 1 -9 -5 4 -3
1532257136551892 0 3 2 2 16 11 15 3
1532257136611727 -9 0 -3 -10 -4 0 -10 -4
1532257136686527 -1 8 4 5 -2 -1 -1 -1
1532257136731407 4 -12 -2 7 -18 -13 -10 -4
1532257136776287 -6 -12 5 0 10 10 2 -1
1532257136791247 -16 -3 -2 -5 12 1 4 -1
1532257136821167 2 8 -2 3 19 -1 2 0
1532257136903946 -3 -8 -6 -2 -3 0 1 -3
1532257136963786 -1 -3 -3 1 -1 5 4 1
1532257137001685 2 10 1 7 22 -1 4 0
1532257137076484 0 17 2 -5 -30 8 9 0
1532257137121364 6 18 -1 0 14 1 2 2
1532257137144303 -9 -9 -3 0 -4 -4 -2 -1
1532257137166244 0 5 3 8 5 5 15 2
1532257137181204 0 8 -1 -4 -12 -8 -3 -1
1532257137220129 -7 -9 -3 0 4 4 2 0
1532257137278965 -7 30 4 -1 2 0 -3 -1
1532257137331824 6 -8 1 1 2 -3 -10 -2
1532257137549241 -4 -1 -4 0 3 7 3 -1
1532257137579162 -4 -2 -2 1 8 51 2 -1
1532257137683881 0 -1 -2 0 -8 -73 0 1
1532257137698842 -1 -2 0 -4 4 18 -1 1
1532257137796581 -6 -2 -2 0 18 18 -8 -11
1532257137834480 2 -2 1 0 -27 -12 5 8
1532257137879359 2 9 1 6 16 29 11 4
1532257137901301 -13 -6 -5 2 31 -19 -6 -14
1532257137954159 -7 -1 -8 -12 -2 0 -9 -33
1532257137978095 16 -8 -1 -2 -8 5 6 51
1532257137999039 -19 5 -1 1 -32 -8 -14 -35
1532257138075834 7 11 -3 -8 -16 0 12 33
1532257138103759 -13 20 7 5 11 -6 4 -49
1532257138118719 -26 3 9 -11 17 2 22 -5
1532257138164596 7 -5 -1 19 1 -1 -16 4
1532257138209476 6 14 1 -6 7 4 4 -31
1532257138254356 7 -11 3 2 41 6 15 -45
1532257138352095 -16 12 -4 -5 -11 -9 6 5
1532257138478756 -7 4 -3 -5 -5 2 18 -15
1532257138569513 -5 2 -9 11 -60 -13 3 24
1532257138681215 -8 -5 -6 -5 13 9 -7 21
1532257138793914 3 0 1 6 17 59 22 7
1532257138816852 -9 4 5 6 0 -1 -5 -3
1532257138847769 -2 4 12 31 -30 40 7 7
1532257138883673 1 -2 -5 -4 30 39 -3 -2
1532257138929550 -1 1 0 2 9 9 2 -2
1532257138959471 -8 -5 -5 -20 16 -7 1 -2
1532257138996373 -2 2 -2 -4 7 -73 1 0
1532257139019311 -6 -16 -6 -2 -6 -22 -8 -6
1532257139071172 0 -5 -3 -2 9 19 9 10
1532257139109071 -15 -5 -4 -3 30 77 8 -4
1532257139125029 2 3 -3 49 24 -38 1 1
1532257139176889 6 3 -21 0 17 18 11 13
1532257139213791 -39 -14 -7 -4 32 4 0 5
1532257139266650 -12 1 0 -2 20 67 4 -9
1532257139296569 5 8 -1 -27 -58 -19 -10 -7
1532257139349428 1 -4 2 7 46 19 7 0
1532257139403297 -3 7 -1 11 12 -17 0 2
1532257139439188 0 -7 1 5 10 -37 -5 -2
1532257139461130 -5 7 9 11 -35 37 2 -1
1532257139536927 -29 -8 12 4 15 1 1 0
1532257139573828 1 2 6 8 10 7 -5 1
1532257139603748 4 0 0 13 22 5 13 2
1532257139641646 -3 -2 2 2 28 12 -1 -2
1532257139806207 0 -1 -1 -9 -25 -3 1 -2
1532257139844106 -2 -5 -4 -6 0 -1 -5 -3
1532257139882004 -2 -1 -2 -1 16 14 -2 -2
1532257139933866 -1 0 -4 -4 -7 -9 -2 0
1532257140001684 0 0 -1 -6 0 -4 -1 -1
1532257140061524 1 -1 -1 -4 1 -5 0 -1
1532257140174223 -2 -1 1 6 -17 -3 -2 -1
1532257140234063 -3 -5 -6 -9 18 -21 -3 -2

1532257140308863 -1 1 2 0 -24 -10 -2 0
1532257140384663 2 2 0 0 -32 1 -5 -2
1532257140429540 3 4 6 20 32 3 1 8
1532257140451496 -2 -6 -17 13 -14 -7 -14 -5
1532257140497101 -1 -2 0 2 -18 0 9 -1
1532257140563921 2 -2 -2 10 0 -11 -13 1
1532257140616780 -21 -1 10 -2 6 14 19 12
1532257140646700 3 4 6 18 8 3 3 -3
1532257140699559 -2 -2 -11 -10 34 59 2 -5
1532257140728833 1 5 9 26 19 -7 9 5
1532257140760749 1 3 1 -8 5 12 -4 1
1532257140781693 -1 -2 4 5 17 -11 0 0
1532257140834560 -2 -8 7 2 11 5 -3 -2
1532257140864471 1 5 11 24 -14 -16 0 1
1532257140901378 -4 -2 -4 -2 -1 21 -9 -8
1532257141007090 -5 -6 -3 -26 -27 -5 -9 -7
1532257141022050 -2 -1 -3 -9 -15 7 -3 -1
1532257141051970 -3 1 1 -3 -21 -11 5 0
1532257141081890 0 -2 1 -5 -12 -17 2 3
1532257141126769 -2 2 -3 8 25 20 -6 -2
1532257141149716 0 -3 6 11 20 -1 -4 0
1532257141231489 4 2 7 12 -3 -19 -11 -1
1532257141261410 0 -5 -5 -10 -15 -11 1 -1
1532257141299309 -5 -3 -2 0 14 22 3 0
1532257141321250 -2 -4 -2 -7 1 17 5 -1
1532257141382087 -1 1 0 2 0 -11 -3 -3
1532257141426967 6 0 -1 3 8 -5 -20 -3
1532257141441927 -6 -2 0 2 -3 0 -27 -5
1532257141501767 -3 -1 -2 0 -2 3 3 0
1532257141554626 -3 -1 -1 -1 1 -4 -1 -4
1532257141606487 1 -2 -3 -1 -3 -7 -2 -1
1532257141621447 -2 -2 -1 -1 -3 -3 -3 1
1532257141666328 -1 -2 -2 2 -1 1 -2 0
1532257141704226 -1 -1 -1 0 0 0 -2 -3
1532257141772079 -1 0 0 -1 0 1 1 -2
1532257141794021 -4 -4 -2 -1 4 -3 -5 -6
1532257141823941 1 0 -2 2 -3 -2 0 7
1532257141868821 -1 -1 -2 -4 -10 -1 -5 -6
1532257141898741 0 0 3 1 -7 -3 -3 -5
1532257141921679 -1 -1 0 4 35 4 0 -1
1532257141944618 -2 0 1 8 3 -2 -2 -1
1532257141959578 -1 -1 0 1 -8 0 -2 1
1532257141988674 0 -1 0 0 -2 1 -2 -2
1532257142011612 -1 -2 0 -1 -2 -2 -1 0
1532257142034551 -1 1 0 1 -1 -1 -1 -1
1532257142049511 0 0 -1 1 -2 -1 -2 1
1532257142079431 -3 -2 -1 2 -2 -1 -1 0
1532257142101374 0 -1 -2 -2 -1 -1 0 -1
1532257142131292 -1 -1 -1 -1 -3 -2 1 -1
1532257142154254 -1 0 -1 -1 4 -1 -2 0
1532257142176195 -2 -2 -1 2 10 0 -1 0
1532257142206121 -2 -2 -1 0 9 -1 0 -1
1532257142222085 -1 -1 -2 0 -3 -1 -3 0
1532257142237039 -1 -1 0 1 -2 0 4 1
1532257142266958 0 -1 0 13 -1 -4 -2 0
1532257142288908 0 0 -2 -1 -1 -1 -2 -2
1532257142326798 -2 0 -1 -1 -6 -2 -1 0
1532257142348740 0 1 -2 0 10 0 -2 -3
1532257142379657 -2 1 1 -2 -8 -1 -2 -4
1532257142416559 0 1 -2 1 1 0 -2 0
1532257142476398 0 -2 -2 -9 -15 -1 0 -1
1532257142499337 -2 0 -2 -8 -3 -2 -3 -2
1532257142536239 -2 0 -1 -7 -8 0 0 -1
1532257142559177 -1 -1 -3 0 2 0 -1 0
1532257142581119 0 -1 -2 1 3 -1 -3 -3
1532257142597076 0 -2 -1 0 -5 -2 -1 -1
1532257142641956 -3 -1 -4 -4 -3 0 0 -1
1532257142656916 -1 -1 0 1 -4 -2 0 0
1532257142678857 -2 -2 0 -1 0 -1 1 -1
1532257142731716 0 -1 -1 -3 -2 -1 -3 0
1532257142769614 -2 -3 -4 -4 -18 -3 -3 1
1532257142806516 -1 -2 0 -7 4 -4 0 -1
1532257142829454 -1 0 0 1 -8 -2 -2 1
1532257142881316 -1 0 -1 1 5 0 1 -1
1532257142919214 0 -1 -2 -2 -12 -2 -2 -1
1532257142949134 -2 0 -2 -2 -5 -1 -2 -2
1532257142979054 0 -2 0 -1 -10 0 -1 1
1532257143039891 -1 0 0 3 14 0 -1 -1
1532257143091753 -1 -1 -1 -1 -19 -3 -1 -1
1532257143159644 -1 -2 -1 -1 2 -1 -1 -2
1532257143211506 1 1 3 7 5 -1 0 -1
1532257143286306 -2 -3 -2 -3 7 -2 -3 0
1532257143339171 0 -1 -2 -5 7 -2 -1 0
1532257143399048 0 -1 -1 -3 -1 -1 -2 -1
1532257143616466 0 -1 -3 -1 -2 -1 -2 -1
1532257143646389 1 1 -1 -3 -1 -2 0 0
1532257143669325 -2 -2 -1 -1 5 -1 0 -1
1532257143691267 -1 -1 -2 -3 1 -1 -1 -2
1532257143767064 -1 -1 -2 -3 0 -1 -2 -1
1532257143841864 0 0 0 -1 3 -1 0 -1
1532257143878765 0 -4 0 -2 -5 -1 -1 -1
1532257143954563 -1 -1 -1 6 4 -1 -1 -1
1532257144006424 -1 -1 2 5 -4 -2 0 -1
1532257144036344 0 -3 -1 0 0 1 -1 -1
1532257144119123 -1 1 -3 -5 -6 -2 -1 0
1532257144157032 -1 -1 -1 -3 -7 -1 -3 -3
1532257144178962 -1 -2 -1 -3 -6 -1 0 0
1532257144223842 -3 -1 -3 1 8 1 0 0
1532257144253762 0 -3 -1 -3 -3 -5 -1 -3
1532257144276701 0 3 1 -10 -7 5 -1 -4
1532257144306621 -2 0 -2 -1 4 -2 -1 -2
1532257144321580 1 1 1 8 4 0 2 2
1532257144344520 2 0 -1 -3 -7 -2 -1 3
1532257144366460 0 0 -3 0 -4 -3 -1 -1
1532257144396381 -1 -8 -6 -2 9 5 -3 -3
1532257144426301 -5 -6 -6 -6 3 5 -18 -9
1532257144449239 2 7 0 1 2 5 6 4
1532257144486141 2 -4 0 2 1 3 2 1
1532257144502113 -2 -3 -1 -2 -3 -4 -3 -2
1532257144532018 1 -2 0 3 6 0 8 4
1532257144576898 1 0 2 2 -3 3 2 0
1532257144598840 -2 -4 -2 -8 -23 -6 -2 -3
1532257144674637 -2 -3 -4 -6 -10 -19 1 -2
1532257144809277 -3 -1 -1 0 3 -2 -1 -2
1532257144839197 1 0 -1 1 1 10 1 -4
1532257144899037 0 -1 -3 -3 -4 -5 -3 -1
1532257144966855 -1 6 -1 3 0 -4 1 11
1532257144981815 3 1 3 8 15 -5 -4 22
1532257144996776 7 1 0 -1 -2 9 12 26
1532257145041660 -3 -5 -4 -3 -9 -3 -1 6
1532257145064594 -6 -1 -2 -2 -5 29 34 -6
1532257145101496 -9 1 1 -1 3 20 -10 -34
1532257145131415 -4 -9 -4 1 4 7 7 0
1532257145176295 -3 -3 -3 -3 -4 -3 -51 16
1532257145244114 -5 2 3 -3 18 2 -1 -43
1532257145282013 7 12 1 -1 4 4 -7 28
1532257145318914 23 18 -8 -5 -40 -9 4 32
1532257145363794 -20 18 6 4 3 -6 24 -42
1532257145388728 8 9 1 -2 -4 -14 -2 28
1532257145424631 -22 -5 -5 -6 1 -6 -4 -97
1532257145446573 0 34 19 -3 1 3 -12 55
1532257145469511 21 1 -9 0 14 -2 10 -21
1532257145491453 -32 -18 1 13 -6 3 -7 71
1532257145529351 -12 6 -3 -7 -1 14 51 -21
1532257145544311 -21 -5 4 -1 -7 -8 -19 -65
1532257145566252 4 -16 0 -3 -8 -3 17 34
1532257145596172 13 -12 9 15 -16 -9 -9 79
1532257145611133 16 31 21 3 3 15 15 20
1532257145671970 -2 -7 6 7 10 -2 0 9
1532257145693911 -16 -28 1 -6 -6 -11 -13 -2
1532257145723830 1 -2 -4 -2 -5 -6 2 -10
1532257145753751 -21 -1 2 0 -3 -6 -19 -35
1532257145784669 -8 0 -13 -3 -5 -20 -11 -33
1532257145874428 -8 -37 -36 0 7 2 29 -7
1532257146002095 6 -15 -9 -7 -1 -7 -65 -25
1532257146061927 -18 12 -2 0 -4 -9 -1 -104
1532257146113788 9 -1 -1 -5 -12 -2 -3 24
1532257146174626 2 -3 -5 -1 1 17 -13 0
1532257146226487 0 2 3 -1 0 7 66 1
1532257146324226 -4 5 9 -5 -7 1 -105 -4
1532257146399026 -10 -53 -8 -5 -16 8 -34 -14
1532257146511724 23 21 5 -2 -9 42 8 12
1532257146586525 26 -12 1 5 60 33 -13 -11
1532257146624423 47 53 0 5 -2 4 21 11
1532257146676285 -12 49 2 -12 -3 4 31 1
1532257146706204 -8 -41 -6 -2 9 1 -3 -5
1532257146729143 20 29 5 4 4 -2 17 9
1532257146788983 -14 6 -7 -7 -7 -8 5 -3
1532257146856801 -6 -3 -2 -2 -4 -5 -8 -1
1532257146931602 -7 -12 -5 -4 12 -4 -1 -5
1532257147006401 2 -10 2 5 -3 1 13 3
1532257147059260 7 6 -2 -7 -18 -9 -7 -3
1532257147171960 -7 1 3 -3 -5 1 -2 -3
1532257147201880 -9 4 -2 3 9 10 6 0
1532257147253740 -8 -19 -10 -9 -11 -14 -6 -2
1532257147314577 -13 1 3 6 10 -6 -14 -3
1532257147366439 4 -2 -3 -7 -17 19 11 5
1532257147494097 -6 -8 -5 -5 1 -4 10 1
1532257147591836 -16 -26 -2 3 12 -3 0 -1
1532257147636716 -5 -13 -4 -2 7 -6 2 -3
1532257147704535 -3 -2 1 2 5 -3 -6 0
1532257147899015 -9 -9 -6 -5 -3 5 -2 0
1532257147951874 -5 -5 -4 -4 -15 23 -3 -4
1532257148131393 -3 -4 -1 1 4 17 2 -1
1532257148296950 -5 -4 -6 -6 2 3 -9 -3
1532257148318893 2 0 3 -2 -13 11 12 -11
1532257148424609 -33 -27 1 32 29 4 -4 -38
1532257148476470 31 22 3 -10 -29 9 12 87
1532257148521351 10 42 4 -8 14 13 5 9
1532257148604129 -12 -11 -7 -7 6 -1 -12 13
1532257148693889 -20 -26 -4 -9 -30 -8 5 -27
1532257149211505 9 6 -3 13 -3 -2 11 -50
1532257149354124 3 4 13 15 -31 -21 6 2
1532257149369087 -1 14 -5 -3 -7 -43 -2 0
1532257149392022 -2 -7 -4 1 69 70 7 -3
1532257149421942 -1 -7 -12 -22 -28 18 1 0
1532257149436902 -2 0 -1 -11 -1 -35 -4 -3
1532257149488763 8 -12 -19 -6 0 38 -9 0
1532257149518691 -3 -5 4 -7 -20 -1 3 2
1532257149541622 3 9 5 19 -3 -18 9 6
1532257149579521 -13 24 20 -6 -15 -27 5 5
1532257149601464 2 -9 17 6 44 59 4 -2
1532257149647339 -6 11 -6 7 13 -4 -3 -5
1532257149670278 -3 -1 2 25 12 57 3 -4
1532257149699201 -4 0 -2 -21 -53 57 -10 -7
1532257149752065 -20 -21 -9 -25 -11 19 0 -2
1532257149781979 1 2 0 5 33 48 6 4
1532257149803920 3 -1 0 -7 -13 -29 2 3
1532257149833841 -6 5 4 21 16 9 6 -1
1532257149871739 0 14 19 -4 -15 -49 -10 -4
1532257149908641 1 -6 3 -2 9 7 -1 -6
1532257149946540 -10 -3 5 18 21 -39 -3 -3
1532257149984438 -5 17 11 18 10 25 -3 -17
1532257150006379 43 -12 -1 -8 33 36 5 1
1532257150029317 3 2 -4 14 18 -20 4 8
1532257150059238 2 -5 2 -2 14 -16 5 6
1532257150089158 -4 24 1 -8 -23 -25 -6 -9
1532257150127056 0 19 11 12 16 27 -3 -3
1532257150156977 1 -12 -2 14 6 -36 -28 -4
1532257150186896 -7 0 -3 -17 -24 -21 -13 -4
1532257150201857 7 4 0 -1 -33 -61 -1 -10
1532257150216816 4 5 0 1 -10 -25 3 1
1532257150261697 -2 2 1 3 -24 3 18 -1
1532257150299595 -4 -1 -1 1 16 2 -16 2
1532257150321536 7 -1 1 5 10 -14 -2 -1
1532257150374395 -3 -4 -2 -3 -1 22 -1 0
1532257150411297 1 -4 -2 -7 -1 9 -2 0
1532257150434235 -3 -2 0 -2 -13 -1 -2 0
1532257150449208 -1 -2 -2 -1 -8 4 3 -19
1532257150487094 -1 0 -1 -2 10 -2 -1 0
1532257150502055 0 -1 0 0 1 6 -1 1
1532257150523995 -1 -1 -2 -5 -5 2 -3 2
1532257150561894 -2 -2 2 -1 -21 -3 -1 -2
1532257150613755 0 -1 1 3 -5 -18 -4 1
1532257150666613 0 -1 1 0 7 15 -2 0
1532257150726454 -3 -2 -2 -8 -8 -9 -5 -2
1532257150779312 -1 1 0 4 3 5 -3 -1
1532257150951852 1 1 0 14 11 -30 2 3

1532257151049590 -2 -3 -2 -10 -10 5 -8 -4
1532257151094470 0 -1 -1 -2 -1 -7 -2 -1
1532257151229109 -1 -1 2 -2 2 14 -2 -2
1532257151303910 0 -1 -2 -3 -5 4 -2 0
1532257151333829 -1 0 -3 -1 -4 12 -2 -2
1532257151378710 -2 -1 0 -1 5 9 -1 -1
1532257151416608 -1 -1 0 -1 -1 11 -3 1
1532257151439547 0 -4 -3 -10 -23 -10 -2 -1
1532257151476460 -2 0 -1 -5 -1 9 -1 0
1532257151506368 1 -1 1 3 7 18 -1 -1
1532257151551249 -2 0 0 0 0 2 -1 -1
1532257151642005 -1 -2 -1 -1 14 1 0 -1
1532257151671926 -1 -1 -1 -2 -1 -30 11 -5
1532257151723787 -1 0 -4 -2 -1 6 -5 -1
1532257151761686 -2 -1 -1 -2 -4 -6 1 1
1532257151776645 0 0 1 1 6 -3 -2 -1
1532257151814544 1 -3 0 -3 -4 -10 -4 -1
1532257151874384 -2 -2 0 1 2 1 3 0
1532257151919264 -2 0 -2 2 -9 -3 3 -2
1532257151979104 -1 -2 -2 4 29 11 2 -1
1532257152053904 1 -3 -4 -11 -1 26 0 -1
1532257152091803 0 -1 -2 -8 -5 -18 1 1
1532257152136683 0 0 -1 -1 0 -6 1 0
1532257152211483 -1 -2 -1 -3 -6 3 -3 -3
1532257152271323 -1 0 0 -3 -11 -39 -3 -1
1532257152443861 -1 1 0 -4 -1 0 -1 -2
1532257152534619 -1 0 -2 -2 0 0 12 2
1532257152601452 1 -2 -4 -2 -2 2 -3 -2
1532257152639339 -2 -1 0 -1 0 -1 1 0
1532257152691200 -4 -3 -2 -5 -6 -2 -2 0
1532257152752038 -3 -1 -1 0 -19 -3 0 0
1532257152811877 -3 -1 -2 -1 0 0 -2 -2
1532257152961477 -1 -2 -1 -4 -3 0 0 -3
1532257153029296 -5 1 3 -4 -5 2 -5 -8
1532257153044256 0 -5 -3 -4 6 -3 5 4
1532257153082155 0 -5 -4 -5 -2 0 -16 0
1532257153097114 1 1 -6 -8 -15 3 12 0
1532257153148976 -4 -3 -6 -6 -1 -1 -13 -12
1532257153208816 -1 0 1 2 3 -1 -6 2
1532257153261674 0 2 0 -1 -12 2 -4 0
1532257153299573 -4 -7 -5 -5 -7 -26 -22 -19
1532257153366394 3 6 1 2 1 20 10 -2
1532257153389333 2 -1 0 -2 -23 -48 -16 -11
1532257153426234 8 -5 -3 -3 1 23 36 50
1532257153441195 5 6 5 7 8 6 -31 -19
1532257153502036 0 -5 0 1 -11 3 -10 -3
1532257153531952 3 6 4 9 10 23 -3 6
1532257153598773 -1 -1 -1 10 8 -1 -69 -38
1532257153651632 -3 5 1 7 23 12 6 35
1532257153666592 27 10 -2 -3 14 13 23 53
1532257153726432 5 12 4 2 10 8 -22 5
1532257153779290 -23 -41 -7 -3 -10 4 15 -61
1532257153832149 -14 -14 6 4 14 7 -3 -66
1532257153884010 -3 3 2 -5 -1 -7 20 45
1532257153928890 -8 -21 -2 -3 6 -1 12 2
1532257154041588 -5 -4 -19 3 -16 -1 13 -16
1532257154139328 -27 -20 -3 -15 -2 -16 -4 -47
1532257154446518 -1 -2 3 2 -1 9 31 -8
1532257154514325 -3 0 -7 -7 35 30 0 0
1532257154551230 -6 -4 -4 -15 -19 -1 -3 -3
1532257154597103 -2 -2 -2 -11 8 8 4 1
1532257154619045 3 -4 -17 -11 0 -2 1 0
1532257154663925 -2 0 -4 -16 -25 19 5 13
1532257154708804 -1 -4 -1 0 -3 -27 0 -3
1532257154889322 13 -20 -3 -5 -14 -48 -51 -12
1532257155003023 -9 8 -5 -5 -2 -6 -44 -10
1532257155053882 -15 -3 0 8 19 28 5 3
1532257155196500 -1 -10 -3 -1 0 23 -8 -2
1532257155332138 13 16 -8 -16 -42 -19 -5 -25
1532257155383999 7 16 11 3 29 51 17 6
1532257155481739 3 14 10 0 8 7 6 -8
1532257155541578 33 13 -7 -3 -19 -26 -31 -2
1532257155586458 12 26 5 4 26 12 6 3
1532257155925568 39 22 7 3 6 4 12 11
1532257156029273 17 18 3 1 5 15 17 5
1532257156067185 -29 2 2 9 20 6 3 -3
1532257156186860 6 3 2 -2 2 -3 -1 0
1532257156276613 3 3 1 -6 8 2 6 -1
1532257156366372 1 2 0 -2 -3 -2 0 2
1532257156502010 0 0 0 -2 6 31 -1 -1
1532257156523951 2 -1 0 1 13 23 14 -7
1532257156644629 -3 -1 1 6 -7 -19 -18 -1
1532257156667567 5 -5 -4 -1 -8 -2 -19 7
1532257156697487 11 16 5 5 14 3 25 5
1532257156771289 -4 -2 -3 -3 -19 -11 -58 -11
1532257156816169 -12 -26 -7 -1 -5 -4 -24 -81
1532257156883988 -5 10 4 -4 -8 -5 -16 -33
1532257156943828 -12 -28 -7 -8 -6 -4 11 -11
1532257156996687 -11 -13 -10 -1 34 11 -5 -12
1532257157041567 20 23 5 4 -30 6 52 26
1532257157064505 -39 -44 -2 -7 3 6 -9 -52
1532257157079465 -10 -3 -2 4 -12 -21 -7 27
1532257157109385 -3 -7 0 -3 -7 -1 12 2
1532257157131325 -7 -1 10 -11 -15 1 28 18
1532257157178201 -15 7 1 2 10 -3 3 -16
1532257157222084 -8 -15 0 12 71 13 -8 -22
1532257157326804 -14 6 31 -7 -20 -11 -6 21
1532257157484382 2 2 -3 1 -17 -9 -21 12
1532257157521284 -2 -3 9 3 4 -2 -10 -9
1532257157686841 0 -2 12 2 -39 8 3 1
1532257157716761 4 4 5 13 27 -20 2 0
1532257157776601 -16 -5 2 -6 23 5 1 -2
1532257157814499 4 43 -25 -2 36 -7 14 5
1532257157851400 5 -4 0 5 -4 41 -1 2
1532257157881321 7 -18 -17 0 63 71 6 2
1532257157911241 -10 -23 -28 -24 20 51 -10 -12
1532257157926201 2 -6 10 1 -1 -41 6 4
1532257157941175 -3 -3 -4 14 54 -21 4 3
1532257157979060 7 10 -13 7 19 92 0 0
1532257158008979 -4 -15 1 10 -24 21 -4 -3
1532257158031918 6 30 22 18 40 19 2 -2
1532257158053860 13 10 -12 -5 -4 -34 -6 -3
1532257158076798 0 -16 -6 -7 -14 -24 3 1
1532257158098739 -7 5 5 -5 -14 -15 -5 -1
1532257158121678 3 -17 -15 -25 -31 9 -3 -4
1532257158144617 0 15 15 -10 2 -57 -4 -1
1532257158166558 -2 -7 -4 -16 -29 18 -6 -2
1532257158189497 -9 -10 -12 4 -5 -8 5 -1
1532257158204457 5 -24 -10 3 20 44 10 3
1532257158256318 -14 -12 -7 -3 20 12 -2 -3
1532257158294217 12 -3 0 -6 -12 -25 3 0
1532257158347076 5 2 -7 0 5 -9 -6 0
1532257158362035 3 -11 -4 7 -24 -9 3 5
1532257158398937 1 2 -4 -2 1 -8 1 -5
1532257158428857 -1 3 1 -4 -39 -44 -3 -3
1532257158451796 1 2 1 -2 -15 -21 2 4
1532257158473736 2 1 2 3 -10 -12 1 0
1532257158534585 -1 -1 0 -7 2 15 3 -1
1532257158594414 -1 1 2 2 -7 -2 -4 -1
1532257158661235 -1 -2 -3 0 -14 -16 1 0
1532257158722072 -1 -2 1 -2 -4 -3 -2 0
1532257158758974 0 0 2 -3 -6 3 1 0
1532257158811832 1 0 1 -8 -4 -13 -5 -1
1532257158924531 -2 0 4 2 4 15 27 1
1532257158976392 -4 -7 -1 0 4 -31 -10 -2
1532257158991353 1 -1 -5 5 -4 -51 5 2
1532257159104051 0 1 1 1 -10 -78 -8 0
1532257159178851 0 1 0 2 -8 -27 -2 1

1532257159231710 1 -1 -1 0 -3 1 -3 -1
1532257159291550 -1 -1 -1 2 12 24 2 0
1532257159479055 -1 -2 0 0 1 26 3 -2
1532257159606714 2 1 -2 -1 0 18 7 2
1532257159659572 -1 -1 0 -2 2 11 -1 -2
1532257159719412 -1 -1 -2 -1 -1 -5 -4 -1
1532257159809172 0 -2 0 -2 1 -4 0 0
1532257159862031 -1 0 -1 1 1 0 1 0
1532257159928852 1 -1 -1 -1 -1 -1 2 -1
1532257159996671 1 -1 -1 0 -2 -5 -1 -1
1532257160034569 -3 -3 -1 -1 1 -5 0 -1
1532257160049530 -1 0 0 -3 -1 -2 0 0
1532257160109369 -2 -1 -1 0 -1 -2 -2 -1
1532257160192148 0 -1 2 -1 0 -4 -2 1
1532257160251987 -1 -1 1 -1 -4 0 0 -2
1532257160386628 -2 -1 0 4 -2 -3 2 0
1532257160439502 -3 -3 -3 -8 -12 -4 -8 -13
1532257160469407 -3 -2 -2 5 11 -2 -6 -12
1532257160491347 -2 0 0 0 1 -6 -1 -3
1532257160521268 -2 0 -3 -3 -3 0 -5 -9
1532257160544207 1 0 -1 1 -1 0 2 -4
1532257160574127 -2 -1 -1 1 -1 3 -6 -1
1532257160597065 0 1 -1 1 8 -1 -1 1
1532257160619007 0 -5 -4 -10 -17 -3 3 -2
1532257160656905 -4 -4 -3 1 -2 2 -4 5
1532257160678846 0 1 -1 0 17 8 -7 -1
1532257160754644 0 -3 0 -3 2 5 6 1
1532257160829444 1 2 -1 -1 -4 -4 6 -5
1532257160866345 -1 -1 -3 -7 3 -12 -13 6
1532257160911225 0 -2 -2 -3 -2 2 0 5
1532257160942156 1 4 -5 -4 -17 -5 7 12
1532257160972063 1 -4 1 3 2 1 -7 -4
1532257161046863 1 -11 -6 -5 7 15 4 5
1532257161091743 -2 -5 1 3 -16 -16 -23 2
1532257161106703 -3 -4 1 -3 1 3 16 -7
1532257161121662 -5 -3 1 -2 -6 20 16 -6
1532257161166542 -8 -10 5 1 -3 -6 26 4
1532257161189481 24 29 3 4 -17 -11 -5 99
1532257161211422 19 0 5 -1 1 7 26 -51
1532257161256302 21 25 6 8 2 -13 -5 27
1532257161280249 18 -16 -1 6 -20 7 0 27
1532257161317140 1 -20 8 15 6 -1 32 74
1532257161354041 -2 -13 -1 9 -3 -2 14 -43
1532257161383961 -30 -33 -4 -7 -10 25 32 -17
1532257161458761 -9 -10 -3 3 -17 1 16 -19
1532257161496660 -2 14 8 -3 1 7 38 57
1532257161511620 22 -21 5 9 -1 -8 -15 84
1532257161564479 -8 27 3 15 42 -6 -64 -69
1532257161601380 0 2 -6 -12 12 10 23 -38
1532257161646260 -8 -6 -7 -2 -8 -8 -5 -14
1532257161661219 -17 -1 -3 -4 -6 -10 -16 -34
1532257161729038 3 -14 8 -5 -28 -2 -16 16
1532257161766937 9 22 30 -9 7 -1 28 33
1532257162067134 -6 21 22 -11 -5 17 25 -39
1532257162224717 -3 -17 -3 0 5 22 -9 1
1532257162269593 1 15 -1 -1 8 23 5 -4
1532257162299513 5 16 -1 -3 -12 6 2 0
1532257162419193 5 3 -2 0 17 7 -4 -1
1532257162493993 9 11 1 0 -5 -5 24 10
1532257162606691 1 55 11 -3 0 -6 -7 -1
1532257162704430 19 -4 -6 -3 19 10 12 3
1532257162719390 4 -25 -6 -5 3 3 6 5
1532257162771252 4 -27 1 -1 -2 -1 -6 0
1532257162817129 -8 0 6 5 -6 11 16 1
1532257162854029 6 12 4 1 -6 -3 12 2
1532257163064467 12 -5 1 9 15 16 11 3
1532257163124307 4 -19 -3 -2 -2 -9 -11 -1
1532257163199107 -7 -10 -2 1 10 8 6 -2
1532257163258947 7 0 0 -1 -6 -9 -13 -2
1532257163281886 -11 -11 -3 1 -5 -8 -3 -1
1532257163349704 -17 -12 -1 1 2 4 -5 -7
1532257163514264 -1 -24 -5 -5 -6 -3 -4 -4
1532257163552163 -6 9 -1 2 6 0 2 7
1532257163597043 5 47 1 -3 -4 -7 -4 -1
1532257163633944 -5 -3 1 4 9 12 -2 -4
1532257163656883 6 56 1 1 0 -9 2 1
1532257163693784 -10 -30 -6 -6 -15 -34 -30 -7
1532257163731683 -7 -21 0 -2 -2 -4 0 0
1532257163754622 7 2 3 6 21 3 -5 -1
1532257163776563 -7 -19 -1 -6 -7 2 -2 -5
1532257163799501 1 -11 -2 -1 -1 6 1 -2
1532257163829422 -6 1 0 -2 -14 2 11 2
1532257163859341 3 3 6 15 18 -2 -11 -1
1532257163919182 -8 0 -3 -5 -6 -2 0 0
1532257163964062 -1 -4 0 -4 -24 -4 -7 0
1532257164046840 3 2 0 -1 0 1 12 8
1532257164083742 -5 -7 -2 -1 -1 3 7 5
1532257164121640 -1 -6 -1 1 7 38 5 -5
1532257164144579 -7 -5 0 2 8 52 6 2
1532257164271240 -2 -5 -1 0 4 1 0 -1
1532257164324099 -5 -4 -1 1 5 -9 -8 8
1532257164383939 -1 2 3 8 -11 2 2 7
1532257164549497 12 4 2 -2 5 -5 7 11
1532257164631277 4 2 -4 -11 -21 -19 -27 6
1532257164714056 -13 2 2 3 -39 0 4 -28
1532257164841714 -3 -8 -1 -5 1 6 27 -20
1532257164864653 -8 21 2 4 -7 4 23 -28
1532257164969373 8 11 -7 -10 -14 -2 7 -23
1532257165097032 -9 -16 7 9 39 4 -4 -1
1532257165193773 11 -10 38 12 -17 7 35 50
1532257165381272 -24 -11 -19 1 -41 -4 2 -51
1532257165538850 0 0 0 6 42 -73 3 1
1532257165553810 -4 -14 -6 2 14 8 -2 3
1532257165599688 -6 -6 -5 -15 -33 -21 -5 -5
1532257165651550 0 3 -3 4 -2 -13 -6 -2
1532257165666509 0 -4 -2 0 -7 -17 2 1
1532257165696429 2 1 1 8 -14 -33 -5 -2
1532257165726349 -2 -6 -5 -4 -19 -38 -2 2
1532257165741326 -1 -1 -2 -23 7 -24 -2 0
1532257165779207 -6 -4 -7 -13 1 -5 -3 -1
1532257165802158 1 -1 -6 2 -9 -39 -1 0
1532257165839048 0 4 -18 -17 -42 -15 -8 -4
1532257165868969 1 -7 -10 -4 -7 -35 -1 1
1532257165883928 -1 -2 11 16 -2 5 6 4
1532257165930802 0 4 -5 -2 -7 -8 -1 0
1532257165951747 -5 12 10 -1 5 -24 -2 -3
1532257166004605 -1 -7 -7 -11 18 -13 -2 0
1532257166026547 1 4 -1 5 35 29 -4 -1
1532257166071426 -3 11 -4 -30 25 -26 -1 -2
1532257166116306 -3 -11 -6 -2 20 -11 -2 -1
1532257166154205 -2 -1 -4 5 -3 28 2 -1
1532257166192103 -4 -2 1 12 2 15 3 -1
1532257166214045 -5 -3 -1 -5 -20 18 -2 -6
1532257166251943 1 -3 -1 2 18 -10 -4 1
1532257166281863 -1 -1 0 -3 -2 3 -5 2
1532257166303805 -2 -2 -1 -1 -10 -7 1 -1
1532257166318765 0 0 1 2 -5 -4 -5 -3
1532257166416504 -1 -1 -1 -3 -30 -43 -2 -1
1532257166446423 -1 -2 -4 -9 -22 -9 -1 -2
1532257166461384 0 1 0 1 8 -22 0 -1
1532257166499282 -1 1 -2 -8 2 1 -2 -3
1532257166514242 0 0 -1 -2 2 -9 1 1
1532257166529202 -1 -2 -4 -4 7 2 7 0
1532257166559122 -1 -1 -2 -1 2 -31 0 0
1532257166589042 -3 -1 0 1 7 -18 -12 -3
1532257166633922 -3 -2 -3 -10 -2 14 6 1
1532257166686781 3 1 2 1 -8 -52 6 2
1532257166708736 1 2 1 -8 -27 -78 -12 -2
1532257166859320 -2 -1 0 -4 2 86 4 -3
1532257166934119 -1 -1 -2 -6 0 7 19 2
1532257167023880 0 -2 -1 0 -1 0 6 -1

1532257167189437 2 -1 0 -1 -1 -4 -8 0
1532257167347055 0 -1 0 -1 0 5 0 -1
1532257167406895 -3 0 -3 -3 -1 1 1 0
1532257167473716 -1 0 -2 -1 -1 -5 -1 -1
1532257167579434 -1 0 1 0 -2 -9 1 1
1532257167639273 -2 0 -1 2 -2 -4 -5 -4
1532257167766932 -1 -2 1 0 0 -1 -3 5
1532257167856692 -3 0 -1 -2 0 -4 -7 1
1532257167916532 -4 -1 0 3 0 -2 -3 -4
1532257167976372 -1 -1 -2 -2 -2 1 2 -4
1532257168036212 -1 -1 -1 -2 0 -4 -10 3
1532257168097049 -3 -1 -1 -1 -1 -1 -3 -2
1532257168148941 -1 -1 -1 -1 -1 1 -4 -3
1532257168193858 -1 -2 -2 -1 0 7 0 0
1532257168208818 -1 -1 -1 -3 -2 2 -1 -2
1532257168253698 -1 -3 -2 0 2 14 2 -2
1532257168306556 -1 0 1 -1 16 -10 -2 1
1532257168366397 -2 -2 -3 -13 -12 27 9 1
1532257168442206 -1 -2 -2 0 0 0 -1 -1
1532257168464135 -1 -1 -1 0 1 -9 -1 -2
1532257168516994 0 -2 -1 -1 0 -2 -1 0
1532257168568855 -1 -2 -2 -1 10 0 0 3
1532257168621714 -2 0 -1 7 1 -3 3 -5
1532257168636674 -4 0 -1 -1 -5 -3 -1 -11
1532257168651634 1 -3 -3 -3 11 10 -1 1
1532257168666594 -1 -3 1 -1 -8 15 2 2
1532257168696514 0 2 3 8 3 12 0 4
1532257168734413 -3 -2 -2 1 11 8 -4 -3
1532257168749373 -1 -1 0 -2 -15 -11 -7 -2
1532257168869053 0 -1 2 -1 1 -11 0 5
1532257168913933 2 -1 1 -2 -6 2 6 -3
1532257168966791 2 2 0 1 5 5 2 4
1532257168988733 3 1 0 0 7 -5 2 -32
1532257169041591 2 -1 -2 -3 -2 -15 1 -5
1532257169094450 -13 -7 -3 -2 -4 -15 -35 -29
1532257169131351 -2 -18 0 -1 -2 23 6 6
1532257169154289 9 1 2 -5 -10 3 -5 45
1532257169176231 -34 0 -3 -3 -5 -37 -3 -13
1532257169199169 -2 1 -1 -2 -6 3 -22 21
1532257169244050 17 0 0 0 -3 -11 -19 31
1532257169266989 2 -2 -2 1 5 28 36 -16
1532257169326828 -9 -7 -6 -7 -12 7 -7 -33
1532257169341788 -13 -1 0 3 -9 -21 0 -29
1532257169356748 16 2 6 8 13 19 21 29
1532257169371708 -22 -18 -5 -1 8 6 -13 -76
1532257169419587 -2 -3 5 18 47 -32 -35 6
1532257169454487 -7 -1 -10 -6 2 16 -21 -11
1532257169491388 12 14 1 -1 5 4 30 8
1532257169514327 17 15 10 18 4 -28 -25 38
1532257169551228 1 0 0 -7 -7 -7 -29 55
1532257169589127 -18 17 -5 -8 0 4 -2 -19
1532257169627025 -14 -10 -9 -13 5 -5 -4 -68
1532257169665921 -17 -3 -2 -5 -4 0 -32 -82
1532257169717795 3 13 -5 1 3 -11 5 -3
1532257169784604 17 -5 4 -5 -13 4 46 31
1532257169814524 -8 -18 -2 -4 -12 -5 20 -3
1532257169874364 -12 24 5 7 7 -5 -12 -36
1532257169911266 -1 -10 3 2 -11 -3 -16 -24
1532257170061863 14 4 -10 6 6 -3 -14 0
1532257170249362 10 3 26 1 -1 -17 -23 8
1532257170354081 -2 5 0 2 10 13 3 3
1532257170571500 -11 13 -3 -1 -15 -24 -4 -2
1532257170601420 4 13 -4 -11 7 -8 -2 1
1532257170654278 0 -1 -3 -3 1 -18 1 -5
1532257170746033 3 21 2 -6 2 4 10 4
1532257170803879 0 -6 1 1 11 9 -3 1
1532257170893639 -1 3 -1 -3 -4 -1 12 -1
1532257170916578 13 4 -5 4 6 1 8 3
1532257170961457 -3 -9 1 -1 13 -3 -10 -3
1532257170976417 -5 4 -3 -11 -7 -1 -10 -2
1532257170999356 7 0 1 4 5 3 21 4
1532257171021297 3 -2 2 2 -2 3 8 1
1532257171059196 1 17 2 3 -17 -5 -6 -1
1532257171208796 3 1 -4 -2 2 -3 -3 0
1532257171299553 -4 -9 2 -5 -11 -3 6 -3
1532257171464113 7 15 2 1 6 8 2 -1
1532257171502012 -2 -7 0 3 -25 -1 1 -1
1532257171538913 8 0 5 12 -6 -5 1 -1
1532257171576812 -6 6 -2 -6 5 14 -1 -3
1532257171614710 -15 -10 -3 -1 5 -1 -3 -6
1532257171651616 -2 3 -2 -1 -6 -6 -9 1
1532257171704471 -5 -7 -2 -2 6 5 5 4
1532257171817169 2 1 -2 -2 -1 0 1 0
1532257171913910 10 -6 -2 -1 2 51 11 7
1532257171966769 4 4 1 1 0 -78 -4 -2
1532257172049547 2 -2 -3 -7 -12 11 -5 -2
1532257172109388 2 -1 -2 -6 1 -3 17 45
1532257172161249 1 -18 -7 -11 35 28 -1 1
1532257172192166 -11 9 1 -4 -3 8 -5 -33
1532257172258988 -11 -1 -3 -3 -12 -2 -10 -10
1532257172288908 15 0 1 -6 33 22 1 -56
1532257172311847 33 10 2 0 -3 -3 0 82
1532257172335788 -14 -20 -6 -4 6 -2 -7 -28
1532257172371686 21 31 3 1 -9 0 -6 78
1532257172409584 -21 2 -2 6 31 5 -23 -21
1532257172476406 -18 0 -3 -7 10 -6 16 -1
1532257172529264 4 6 -1 -3 1 0 3 9
1532257172551206 -7 -11 -4 -4 -7 -5 -15 -38
1532257172597083 5 10 6 6 11 8 10 -43
1532257172656923 17 -4 -3 -6 -28 3 10 47
1532257172671883 7 18 3 3 -14 -6 -3 58
1532257172859382 -1 -11 5 3 -24 -19 3 11
1532257173008982 -2 3 -2 0 6 -3 10 -4
1532257173068822 1 7 14 0 6 13 5 0
1532257173152598 -6 -3 -7 -8 8 43 6 -2
1532257173250340 -3 -1 1 7 21 2 -7 -4
1532257173354059 4 2 -8 -4 28 8 1 -2
1532257173391958 3 -2 -5 -1 -24 -9 -3 -1
1532257173443819 -1 1 -1 0 38 52 -6 0
1532257173482715 1 4 2 2 1 14 -3 -4
1532257173549536 -7 -5 -6 -16 -27 -12 -5 -3
1532257173571478 -4 -3 -16 -10 -34 5 0 -1
1532257173609376 -23 -7 -9 6 29 7 -7 -6
1532257173624336 3 -1 11 14 6 0 3 7
1532257173639297 -1 31 10 -10 17 -40 -4 3
1532257173669216 -5 5 0 13 3 3 0 -2
1532257173707115 0 6 17 24 -36 -40 -1 2
1532257173737035 -3 -2 -14 -31 31 14 -13 -11
1532257173759974 0 -13 -15 0 -56 -35 6 6
1532257173788896 -4 0 4 8 21 127 -2 -4
1532257173833778 0 -14 3 15 73 28 7 2
1532257173863696 -3 3 -7 -13 -43 -1 3 -9
1532257173901595 -2 0 -10 1 16 6 -5 2
1532257173924533 -2 9 3 8 8 -19 -5 -9
1532257173969416 0 -4 -7 -5 -37 48 -4 -6
1532257173984374 3 -12 0 1 -3 19 -3 1
1532257174006315 -4 7 1 -3 -88 -111 -18 -4
1532257174037245 0 -8 -5 -4 -17 -1 -4 0
1532257174074134 -1 1 0 -5 3 28 2 -2
1532257174104053 0 -2 -1 -6 -8 -6 11 8
1532257174201793 -1 -4 -2 -2 -4 -14 -20 -6
1532257174231712 0 -1 0 -2 4 5 12 2
1532257174261632 -1 1 1 0 -4 -21 -10 -6
1532257174276610 -2 0 1 0 2 4 -13 -5
1532257174308507 1 1 -4 -9 0 4 1 3
1532257174351391 0 -3 -5 -2 2 -18 -6 0
1532257174404251 0 -1 -1 10 -17 -17 -20 -2
1532257174479051 -5 -2 -4 -8 -1 -19 -17 -6
1532257174538891 1 -2 -2 -2 6 -30 -1 2
1532257174636629 -3 -1 -1 -3 0 -22 -14 -1

1532257174817146 -1 -2 -4 -3 -21 -61 -1 -2
1532257175064485 -1 -1 -2 -1 -2 0 4 1
1532257175146267 0 0 0 0 -1 -10 -3 0
1532257175199131 -2 -1 0 0 1 7 -2 0
1532257175281258 -3 -1 1 0 0 4 0 -1
1532257175349076 0 2 -1 -1 -1 1 3 -2
1532257175416895 0 -3 -2 -2 0 -2 -1 1
1532257175536574 0 -1 -2 -1 -3 -11 0 -2
1532257175589433 -1 -2 0 1 -1 -4 -3 -2
1532257175686174 0 -1 0 -1 1 -4 -1 -3
1532257175791893 1 0 -1 -2 -2 -6 -2 -1
1532257175858714 -1 -2 1 -1 -2 -1 0 -1
1532257175919551 -1 1 -3 -3 -4 -24 0 -2
1532257176054191 -2 -2 -1 3 7 11 -5 -2
1532257176092090 -2 -5 -4 -5 -24 -14 -1 -3
1532257176166889 0 -2 -3 -2 -1 -6 -1 1
1532257176203790 -2 -1 -3 1 11 -1 -3 3
1532257176248671 3 0 1 6 15 0 1 -4
1532257176339428 -4 -1 4 2 -10 0 -2 2
1532257176361370 1 -1 -5 -3 1 6 0 1
1532257176421210 -3 -4 -8 -12 -15 -6 -14 -17
1532257176511967 -2 -2 -5 -12 -2 1 -3 -5
1532257176759305 0 -1 0 2 0 -3 7 -1
1532257176804185 -3 -5 1 3 -3 5 3 -24
1532257176842084 0 3 1 0 -8 -8 10 -12
1532257176864025 -13 -19 -5 1 7 -3 -10 11
1532257176901932 0 -8 -3 13 23 5 39 -9
1532257176931844 1 1 -2 -7 -7 8 -3 10
1532257176955780 4 -2 -1 5 6 -23 -17 -6
1532257176969756 16 -2 -3 -8 -1 1 -14 7
1532257176999662 -11 6 3 -4 -24 -13 -40 -22
1532257177044542 9 -1 3 0 -4 1 -37 25
1532257177066484 2 -5 -1 -3 6 -6 -3 66
1532257177111363 -6 -9 -3 -5 18 -7 -3 -8
1532257177150260 3 -41 -6 -10 -20 -8 -14 16
1532257177171204 -7 6 0 -5 -21 -9 -22 12
1532257177210100 9 6 -2 -10 -5 -1 -15 -58
1532257177253982 0 25 10 6 22 4 -2 21
1532257177283902 -9 15 9 9 1 1 14 -37
1532257177306841 4 1 -4 2 4 -9 41 23
1532257177336761 -15 -9 -2 -1 3 3 9 4
1532257177381641 16 24 18 -4 -11 -9 -11 -5
1532257177419540 -3 -14 -4 -8 -7 1 -20 17
1532257177501321 1 46 29 -5 -10 -24 -17 -20
1532257177628980 -5 -13 -35 -4 -2 -7 -19 30
1532257177681838 18 18 17 -11 24 -5 -15 53
1532257178191476 10 6 0 -4 3 0 -14 0
1532257178236356 12 2 -1 4 6 17 4 -3
1532257178259294 7 -31 2 -4 32 16 -10 2
1532257178312159 -22 5 3 -6 -9 -56 -16 -7
1532257178334095 -7 59 3 -2 -9 15 6 -6
1532257178378974 -43 -51 -16 1 -8 20 12 -12
1532257178401913 7 -36 5 32 -27 -36 20 5
1532257178446793 -6 -8 -5 -9 7 2 -4 -8
1532257178506633 -5 -4 2 1 13 -3 14 -1
1532257178521593 10 17 0 -3 -17 -18 -15 0
1532257178552510 8 -62 -19 -7 6 -5 -9 0
1532257178574451 2 55 14 0 -29 -6 -13 -7
1532257178589411 -6 3 -2 3 9 0 -5 0
1532257178626313 -5 8 3 3 8 -10 3 1
1532257178649251 -16 8 -1 1 4 8 -15 -8
1532257178679172 -2 6 0 -6 20 4 11 -4
1532257178732030 -5 -7 3 -2 9 -2 0 -1
1532257178791870 1 -22 -3 -4 -19 12 11 5
1532257178806830 -16 -35 -1 3 17 -9 3 -3
1532257178919529 11 9 -2 2 -4 2 -14 0
1532257178971390 11 -7 -1 3 11 -3 -30 -4
1532257179054169 -7 7 3 1 -3 -20 -4 -3
1532257179086084 13 -29 -5 2 -1 -3 -6 3
1532257179121987 7 3 -5 -3 -19 -14 -6 -3
1532257179166867 15 24 6 2 -2 1 -8 1
1532257179190803 -2 0 -3 3 11 14 6 2
1532257179218742 -3 -6 3 -4 -2 -8 19 3
1532257179241667 -8 4 -2 6 4 3 5 -1
1532257179286547 -6 -9 -6 -3 1 16 11 0
1532257179361347 0 16 0 -2 -10 -1 2 -1
1532257179406228 3 12 5 4 9 6 -1 3
1532257179518926 -11 -4 1 7 -10 16 17 2
1532257179563806 -10 6 1 -1 -2 -9 1 -3
1532257179586745 4 -16 -1 3 6 7 8 6
1532257179608686 -2 -4 1 5 4 2 2 0
1532257179624643 -5 -3 -1 -1 0 0 6 -1
1532257179646584 0 1 -4 0 -19 -1 -4 -3
1532257179676504 9 -9 -3 0 -1 -11 -17 -2
1532257179700444 -8 -19 -1 -5 -9 -1 2 -1
1532257179797182 -2 -6 -1 0 -4 -3 -5 -2
1532257179812142 -9 -28 -3 -6 -12 -1 -1 -2
1532257179849043 -4 -5 -4 -5 -6 4 7 1
1532257179901901 -4 7 -2 -1 -2 -1 -3 -2
1532257179961741 0 3 3 -3 0 69 -6 0
1532257180066462 -3 7 -1 -5 -7 -44 -14 -4
1532257180141262 -1 1 1 0 1 21 -8 -5
1532257180187139 -2 0 0 1 3 -8 0 21
1532257180351699 7 2 -1 3 3 13 1 15
1532257180404557 -9 -1 -1 -1 10 2 -8 -33
1532257180501298 14 -13 0 22 31 11 103 0
1532257180531219 5 -34 3 -2 -16 -10 -23 18
1532257180554157 8 25 2 -14 -24 -3 -28 -28
1532257180592056 34 20 2 16 7 -17 -67 43
1532257180643918 -21 -25 -8 7 -34 -27 16 44
1532257180666856 38 -6 1 -14 16 10 -17 21
1532257180696776 -12 -10 -15 -12 18 -4 -13 -17
1532257180756616 -11 -8 -15 -9 -16 -22 7 33
1532257180786536 -15 -20 -1 8 -25 -16 -27 9
1532257180906216 -4 18 -10 -10 16 7 -3 0
1532257180937133 10 39 1 -6 40 -3 -48 69
1532257180974034 4 -13 13 1 11 6 20 53
1532257181011933 -5 -1 -1 1 8 2 -8 -17
1532257181071779 8 6 -10 -1 17 8 -2 -18
1532257181169512 -3 3 1 5 7 -18 -15 -9
1532257181289191 0 2 -2 -1 7 -1 1 -3
1532257181567448 -1 3 0 -4 -22 -33 -2 -2
1532257181611330 -1 6 0 4 38 51 5 0
1532257181626291 -4 -4 1 -1 -10 -33 0 -1
1532257181641250 -11 -3 0 -8 5 9 -8 -3
1532257181672168 1 -6 -2 10 3 -9 5 2
1532257181694109 5 10 1 2 -4 7 4 3
1532257181717048 -5 -5 1 -15 -30 -24 -2 2
1532257181753949 -6 -12 -35 -12 -60 -25 -3 -3
1532257181776888 -3 -2 -6 -2 29 -40 -13 -4
1532257181807805 2 18 0 -1 -23 -25 -3 -2
1532257181821768 -3 30 19 2 -1 -12 1 -2
1532257181859666 1 -3 -3 -1 29 36 0 3
1532257181881607 0 -5 -2 -1 -57 23 -4 -1
1532257181896568 -2 36 4 0 47 25 -6 -4
1532257181919506 -7 -15 0 5 -3 11 -1 -2
1532257181949426 0 -10 -8 -11 3 -13 0 0
1532257181971368 -1 -6 -6 0 -7 -27 0 1
1532257182009266 10 3 -1 -4 5 9 -5 -2
1532257182031207 1 2 3 1 11 -1 -3 -2
1532257182054146 2 9 -4 3 -26 -77 -6 0
1532257182077085 3 -4 4 -4 2 -6 -5 -2
1532257182092045 -3 0 1 8 15 40 -4 -2
1532257182136925 -1 -3 0 2 -14 -32 0 1
1532257182158866 -2 0 0 2 -1 -7 1 -2
1532257182181805 2 -4 0 -10 10 19 7 3
1532257182301486 -1 -2 0 4 53 9 -7 -5
1532257182354343 -1 -1 0 -2 -20 -9 -2 -1
1532257182474023 0 -1 -1 1 4 -11 -3 2
1532257182586723 0 -1 0 -1 11 28 -3 -2
1532257182842040 0 0 -4 -2 9 -3 2 -1
1532257182953741 0 0 1 0 -2 13 1 0
1532257183029538 1 -1 -2 -1 -2 -11 -1 -2

1532257183081399 -1 -1 -3 -2 -5 6 -3 -2
1532257183411516 -1 -2 -3 -3 -1 -6 -2 1
1532257183562114 -1 -1 0 0 0 4 1 -1
1532257183621954 1 0 -1 -1 -3 -9 -2 0
1532257183673815 0 -2 0 -1 0 -1 -3 1
1532257183734652 -3 0 0 0 0 0 0 -2
1532257183786513 2 0 -3 -1 0 -3 -1 1
1532257183846354 -3 0 -2 0 1 0 1 1
1532257183861313 -1 -1 -1 0 0 -1 0 0
1532257183907191 0 -2 0 -1 0 -1 -2 1
1532257183967031 -1 -2 -2 -1 -1 0 0 1
1532257184116631 -1 -3 -2 -1 -2 0 -1 0
1532257184176471 -1 -1 0 -1 0 1 -1 -1
1532257184342028 -1 -1 0 -1 -1 -1 0 0
1532257184393890 -1 0 -2 -1 -2 1 -1 2
1532257184461708 -2 -3 -2 1 -2 0 -2 0
1532257184559447 0 2 0 -1 0 -3 -4 -2
1532257184581388 -2 -3 -2 -1 -2 2 0 0
1532257184776865 -2 -1 -2 -1 0 0 1 0
1532257184949404 -1 -2 -2 -1 0 -1 1 0
1532257185077062 0 -3 -1 1 -12 -5 -13 -2
1532257185128924 -1 -1 -4 -10 -9 4 -1 -1
1532257185173804 2 0 -2 -5 -4 -9 1 2
1532257185219681 0 1 -1 -1 7 0 -2 -2
1532257185271543 -2 -2 -2 2 4 2 1 0
1532257185324401 0 0 1 -2 -2 2 0 -2
1532257185467020 2 -1 1 10 6 3 5 7
1532257185601660 -3 -2 -1 -8 -28 -1 -3 -1
1532257185616620 -1 -1 -1 1 -11 -1 -9 -21
1532257185714359 3 2 2 0 -3 -5 -3 8
1532257185745275 7 2 2 1 -6 -26 -2 19
1532257185797137 0 -6 -8 -11 -15 3 -5 21
1532257185842017 1 -5 -2 -2 -8 -12 15 20
1532257185871937 -1 0 0 0 -3 -22 -11 -24
1532257185908839 8 4 3 -1 -8 3 24 16
1532257185931777 1 -2 -3 -1 7 11 16 7
1532257186006577 -9 -17 -13 -13 -13 -35 -75 -67
1532257186059436 -1 10 -2 -3 2 16 24 -31
1532257186105313 7 -12 -7 -13 1 18 93 29
1532257186134235 4 -10 0 9 5 11 38 44
1532257186156176 -1 -6 1 -1 4 -4 -25 -5
1532257186179115 3 -2 3 17 -8 -16 28 22
1532257186202065 -10 -18 -7 -8 -28 -26 -21 -36
1532257186223996 -9 1 -1 -2 -9 -2 -14 -20
1532257186268875 7 3 -1 -1 10 7 0 -22
1532257186283836 17 -11 2 8 11 13 34 39
1532257186329713 2 12 -10 -3 6 1 7 18
1532257186344673 -13 46 -15 5 11 -1 12 -5
1532257186359633 -7 9 -2 -2 -30 3 -27 -53
1532257186464353 4 -7 3 -1 12 2 -20 -11
1532257186524193 -2 29 -5 1 -6 -6 -17 -31
1532257186562092 -28 -19 15 4 -4 -10 -55 -69
1532257186584033 -3 -13 10 9 -46 -16 -36 -4
1532257186621932 -8 14 -1 -7 -2 7 16 7
1532257186688753 9 33 8 0 4 9 70 53
1532257186711692 -14 26 13 -6 -8 6 19 22
1532257186794470 -11 1 30 4 -2 -13 -26 -2
1532257186816412 0 3 0 2 -1 5 25 1
1532257186839350 1 1 0 -1 -4 -2 1 4
1532257186869270 1 -5 -17 -3 -3 -16 10 -1
1532257186892209 0 -4 -5 -5 1 18 -24 2
1532257186929110 -6 -4 4 0 5 22 -56 1
1532257186952049 3 -8 -8 -2 -3 13 -16 2
1532257186981968 -1 -3 -1 4 -1 15 81 0
1532257187019868 5 -3 -2 -1 0 4 19 -2
1532257187056769 3 31 0 -5 -11 -27 -34 -7
1532257187116609 -5 12 -3 -7 -3 -1 -7 -4
1532257187161488 0 -3 2 1 -2 17 1 1
1532257187176449 -1 50 5 5 1 -11 1 0
1532257187214347 -19 -7 0 -4 3 -1 -10 2
1532257187244267 0 -9 -10 -2 -4 -19 -43 -5
1532257187281169 0 -6 0 1 -4 -7 20 3
1532257187297125 7 14 5 0 1 0 6 0
1532257187356966 -10 -7 -3 -3 -5 -24 -26 -8
1532257187431765 5 -6 -4 -2 12 -5 -22 0
1532257187461686 5 -6 0 0 0 8 13 4
1532257187506565 -6 -1 6 14 1 2 8 3
1532257187536486 -7 -3 -7 -5 -3 2 -19 -2
1532257187589345 -5 -6 -2 -3 -10 1 -5 -1
1532257187634225 7 18 1 -1 -2 -13 -13 2
1532257187746924 -11 -10 -2 -5 4 -7 -2 -2
1532257187813745 -31 -58 -13 -7 -12 -10 -30 -14
1532257187851643 9 7 3 5 9 1 5 3
1532257187911483 17 14 4 0 -1 8 -4 2
1532257187979302 3 17 -3 3 -10 -15 -6 0
1532257188069061 -3 0 0 0 11 4 -9 -3
1532257188113942 -10 -4 1 4 9 -5 0 -1
1532257188136881 12 -3 -2 -4 -12 -15 -11 -1
1532257188181760 15 23 -2 -5 -21 5 18 -3
1532257188241600 -3 -12 -7 -3 -5 1 6 2
1532257188264539 3 -13 2 6 11 -4 -11 -1
1532257188339339 0 -13 -1 0 2 -14 -8 0
1532257188414147 0 7 -3 0 9 5 2 2
1532257188429107 -2 15 0 1 9 14 -8 -4
1532257188578708 -3 7 -4 -5 -4 -9 -1 -2
1532257188631566 2 -5 -5 -1 -6 -16 -14 -1
1532257188691406 5 5 1 0 -3 0 5 10
1532257188856963 -3 -5 -9 -2 4 -7 -13 -8
1532257188916803 2 -1 -6 -8 -34 -25 -4 -5
1532257189096323 0 -5 -1 -3 -8 1 -10 5
1532257189134222 4 2 -5 -9 -2 -3 -1 19
1532257189298782 -5 -3 2 3 1 11 -3 -26
1532257189524179 -50 -83 -14 -18 -15 -13 -15 -11
1532257189613938 -10 1 -3 -1 8 -4 -27 -54
1532257189681766 -1 -8 -1 4 -6 1 -18 -26
1532257189734633 -14 -17 -9 -4 15 1 13 37
1532257190003896 -3 -7 20 -9 -31 -11 -21 -7
1532257190057751 -4 -5 -20 -9 -14 -4 -12 14
1532257190078696 0 3 -4 -2 1 -21 1 -6
1532257190170451 3 -2 -2 -3 -6 -40 -4 0
1532257190244253 -1 2 3 13 19 47 5 1
1532257190289133 -3 -3 -2 -5 27 -17 -1 1
1532257190393853 -6 7 -2 -5 39 46 1 -4
1532257190431752 2 2 5 0 -23 -75 -1 0
1532257190469651 -5 -7 -10 -15 -3 22 -4 -4
1532257190484611 -3 -17 -3 7 37 38 0 0
1532257190551432 -1 0 0 5 0 -4 -2 0
1532257190589330 -6 -8 0 -8 -4 -11 -3 -1
1532257190649170 3 -10 -11 -15 3 29 1 0
1532257190672109 -10 -13 -2 -7 -6 -4 2 -4
1532257190709010 6 6 12 26 -2 0 1 2
1532257190746909 1 -43 -6 -4 -36 17 -2 -3
1532257190783810 -8 2 -1 -3 -15 -29 -1 -2
1532257190829688 -3 11 2 -5 -6 -10 1 2
1532257190851629 -3 -16 -6 -6 -11 -26 0 0
1532257190904487 -5 -5 -1 2 9 5 1 -2
1532257190934408 -2 16 1 7 1 -20 -4 2
1532257190986273 -3 -7 -6 -9 -5 1 -4 -2
1532257191024168 0 -5 -13 -8 8 -29 -3 -3
1532257191047107 -5 -13 4 5 -2 -10 -1 -1
1532257191077026 1 3 -1 -1 22 33 2 -1
1532257191106946 -3 3 0 2 -5 5 -2 -1
1532257191128888 -1 -2 -1 -2 11 8 0 -5
1532257191143848 -2 -3 -1 -5 2 2 -1 1
1532257191166786 -2 0 -3 -5 -6 14 1 0
1532257191196706 -2 0 -1 -1 -8 -19 -5 1
1532257191279485 1 1 5 14 13 8 -1 0
1532257191346306 -1 0 -2 0 -56 13 1 -4
1532257191429085 -3 -3 -5 -7 -4 -5 -3 -1
1532257191466983 0 2 -3 -4 -7 0 6 -3
1532257191744242 0 -1 -2 -1 0 -19 -8 -1
1532257191797100 -4 -2 -2 -8 -20 -11 12 -5
1532257191901822 2 -1 -1 -1 1 6 23 3
1532257191961661 -1 -3 -2 -2 -5 -10 -1 -1

1532257192066380 -2 -1 -2 -3 1 6 -2 -5
1532257192127225 -1 -1 1 1 -1 3 -2 1
1532257192232141 1 0 -1 -1 0 4 7 -4
1532257192464538 -1 -7 2 -1 -3 0 -4 1
1532257192569258 1 -10 -2 1 7 21 5 0
1532257192733819 -1 -2 -2 -1 1 -1 0 0
1532257192779696 -1 -2 0 -1 -4 -6 0 1
1532257192884415 -2 -2 0 -1 0 -10 -3 -1
1532257192906357 1 1 -2 -1 -1 4 5 -1
1532257192959216 -2 -1 -1 0 1 18 -1 -2
1532257193048975 0 1 -2 -1 2 5 0 0
1532257193063935 -1 -2 0 -2 -3 -8 6 -1
1532257193116795 0 -1 0 1 -3 -5 -4 0
1532257193184617 0 0 1 5 10 10 7 2
1532257193214540 -2 0 1 -2 -2 -8 -3 -3
1532257193266395 -3 -2 -3 -11 0 -13 0 1
1532257193289333 3 1 2 0 2 3 -3 -13
1532257193341211 0 1 2 2 -3 -4 5 0
1532257193364132 0 -1 -5 -6 -15 -2 -1 -4
1532257193416992 0 -1 -2 -1 -2 -1 -9 -1
1532257193438933 0 -3 -2 1 -3 -3 -8 -2
1532257193483813 -1 -2 -1 -2 -3 0 0 0
1532257193566592 0 1 2 6 0 2 1 2
1532257193611472 -1 -3 -2 0 -5 -1 1 4
1532257193873770 -3 -2 -4 -9 -17 -4 -1 -1
1532257193926629 -1 -2 -4 -3 -5 -2 -2 -2
1532257194129087 -4 -5 -2 -3 -13 1 -3 -27
1532257194152027 -6 2 -1 -10 -3 -4 -2 3
1532257194181946 1 -1 -1 2 1 5 7 29
1532257194271706 -4 1 0 -2 -13 15 -30 1
1532257194294645 -4 -4 -3 -3 -4 -23 6 2
1532257194331546 -9 -4 -4 -11 12 -13 15 2
1532257194354484 9 -1 -2 3 2 -3 -35 18
1532257194369444 -4 -1 1 2 -7 -5 -2 9
1532257194384404 19 3 3 6 2 9 43 18
1532257194444245 2 0 0 -3 -9 -17 -24 -25
1532257194467186 -11 -5 0 2 1 2 29 -23
1532257194482143 3 2 -4 0 -2 -6 -22 22
1532257194513061 -3 -5 -7 -15 -31 -22 -7 6
1532257194527023 -5 -14 -7 -7 -3 -10 18 1
1532257194541984 18 4 -1 -7 -9 7 10 24
1532257194586863 -1 -10 4 2 -47 6 45 10
1532257194631743 3 -1 1 -3 3 -2 -22 44
1532257194661663 33 36 1 4 -15 12 20 95
1532257194699562 -8 4 -1 -1 -5 6 16 7
1532257194744443 34 19 0 2 10 -1 32 81
1532257194826223 -9 -7 -7 -9 -7 -3 -5 -17
1532257194864122 3 9 -3 -5 -14 -5 -35 -1
1532257194991781 6 7 -30 6 13 6 4 -11
1532257195074559 11 -51 -34 0 -1 -2 -1 -4
1532257195126420 -6 -3 -66 -12 -38 -24 -14 -16
1532257195164319 22 60 49 -18 -5 11 24 18
1532257195217177 -17 -7 -8 9 15 -1 2 -48
1532257195239119 -12 -33 -20 3 6 -33 -12 12
1532257195277018 2 -15 10 5 3 9 -5 19
1532257195494436 -7 -18 -12 -13 -27 -84 -65 -17
1532257195539316 -22 -40 -6 5 -10 -15 -9 -12
1532257195599156 12 8 -5 -14 -2 18 -8 4
1532257195673956 2 -5 -3 4 -3 11 3 -2
1532257195718837 5 11 5 2 0 6 8 2
1532257195794634 -2 5 2 3 2 -8 -8 -2
1532257195846495 0 7 -4 -4 -14 11 0 -1
1532257196035988 3 5 1 6 -6 -2 0 0
1532257196065908 -8 -12 1 -6 -15 1 3 -1
1532257196116773 -3 11 -2 -4 -3 -9 -7 -3
1532257196184591 10 -7 -4 -1 -7 -12 2 -1
1532257196626410 -14 1 -5 -10 7 -22 -29 -10
1532257196732127 -1 -3 6 0 -8 14 -2 0
1532257197158985 -10 -36 -7 -4 -13 -2 -2 -3
1532257197482121 0 -3 -2 0 4 14 0 1
1532257197497081 -3 -3 -1 -2 3 5 2 -2
1532257197541975 7 1 1 -1 14 -3 9 21
1532257197563903 -2 -9 -2 -4 -1 -17 -27 -14
1532257197616760 -1 -3 1 1 1 7 3 11
1532257197654660 3 14 1 -4 11 -22 -2 -5
1532257197759379 31 37 4 -4 -12 0 27 81
1532257197813236 15 -33 -3 2 20 -2 -31 14
1532257197887038 17 36 8 16 -1 8 25 55
1532257197991762 -1 -9 0 -5 -34 4 35 53
1532257198036638 -15 -45 -8 5 -20 2 6 -72
1532257198066557 22 7 0 6 37 -3 8 11
1532257198134377 13 -1 -9 5 -20 1 12 -12
1532257198217165 -18 0 2 1 0 -8 -4 -37
1532257198276996 2 27 -13 -6 7 3 -4 38
1532257198306916 -14 -51 -4 -10 -24 -2 0 -2
1532257198358777 4 0 1 3 -11 1 24 24
1532257198419614 2 12 -2 -1 -3 -14 -4 4
1532257198479454 2 -1 1 1 -6 1 0 1
1532257198622073 1 1 0 9 -19 -6 7 2
1532257198673934 -10 1 1 5 58 2 0 -2
1532257198718814 1 -1 -7 5 -13 -68 -2 -2
1532257198756712 -2 -5 2 -10 15 29 -4 -3
1532257198809571 2 14 -3 -6 20 9 1 0
1532257198861433 -2 -1 0 1 19 -12 -2 -1
1532257198884371 -1 0 1 3 3 -8 -3 -1
1532257198959172 -1 -4 -9 -15 -59 -45 3 -1
1532257199012038 -3 0 6 11 -21 -13 2 1
1532257199072872 0 5 -1 -1 3 -27 0 0
1532257199086830 -3 2 7 4 -2 -32 -16 -2
1532257199191550 2 -13 -1 -14 15 21 -7 -2
1532257199236430 2 -10 2 0 -48 23 4 8
1532257199266350 -3 8 8 3 19 -11 3 2
1532257199304249 2 -3 4 22 -17 40 0 4
1532257199408968 -3 -6 -5 -4 -2 6 -2 -3
1532257199483768 2 0 7 31 -55 -20 4 0
1532257199566547 -2 -3 -5 -27 -11 -21 -5 -2
1532257199611427 -1 1 2 4 7 1 -1 1
1532257199664286 1 0 -4 -4 11 14 -1 -1
1532257199717145 1 0 3 3 -8 -8 -1 1
1532257199843806 2 -3 0 -5 -7 -23 3 0
1532257200009363 -1 -4 4 -2 6 21 -1 -1
1532257200107102 -1 0 -3 -5 -7 -3 -2 2
1532257200166942 0 2 0 -3 -6 -11 -3 -1
1532257200211822 -1 -3 -1 0 9 7 -3 -4

1532257200226782 -1 0 0 2 1 -1 -4 -1
1532257200271662 -3 -2 0 -2 -8 -12 -2 -1
1532257200324520 1 0 -1 1 6 15 2 1
1532257200346486 -2 -1 -4 -14 -20 20 -2 0
1532257200444225 0 -2 -1 2 -2 -11 -2 -3
1532257200512043 -2 -2 -1 -3 -3 -1 -2 -2
1532257200563939 -2 0 -1 -1 -3 -15 -2 -1
1532257200601843 0 -2 -1 1 2 -8 -4 1
1532257200766398 -3 -2 -3 -5 -11 -8 -3 -3
1532257200819257 0 0 -2 5 19 7 0 0
1532257200842200 -2 -1 -1 -3 4 -4 -1 0
1532257200894057 0 -1 -2 -4 -19 11 -2 -2
1532257200923977 -3 0 -1 -3 -7 0 -1 -1
1532257200938937 -2 -1 -3 -2 1 -11 1 1
1532257200991796 -1 0 0 -3 17 -1 1 -1
1532257201051635 -1 0 1 -1 -14 -13 0 0
1532257201201238 1 -1 -2 -2 -1 1 -1 0
1532257201218201 -1 0 -1 -6 -26 -8 -2 -2
1532257201232152 -1 -2 -1 -2 -1 -22 0 0
1532257201284015 -1 -1 1 10 25 7 -3 -2
1532257201306953 0 -1 -2 2 8 -2 -1 0
1532257201366792 -2 -3 -4 -6 -5 0 2 -1
1532257201388734 0 -1 -4 -2 13 -5 -4 -2
1532257201434611 1 -2 -3 -1 -19 -4 1 1
1532257201456553 -3 -1 -2 -3 -1 -1 -1 -2
1532257201494451 -2 -1 1 -1 -1 -2 -2 1
1532257201509411 1 -2 -1 0 -1 -1 -1 -1
1532257201561273 1 -3 -2 -3 -1 -1 -1 -2
1532257201666989 -1 1 0 -1 -3 -4 -1 -1
1532257201726831 -3 -1 -3 0 3 4 0 1
1532257201997106 -2 0 -1 0 0 0 -1 -1
1532257202056947 -2 -1 -1 -2 -1 0 -1 -1
1532257202146707 2 5 1 0 2 -1 -3 0
1532257202161667 0 0 -3 -12 -23 0 3 0
1532257202191587 -5 -5 -3 -1 7 -9 -2 -7
1532257202214526 4 -2 -2 2 1 -6 -6 0
1532257202236467 -3 1 3 6 6 -2 -11 6
1532257202296307 0 -1 1 2 -5 7 11 13
1532257202319246 -4 0 0 2 4 2 -2 -7
1532257202453886 4 0 3 5 3 -6 1 13
1532257202500760 0 0 1 1 4 -7 -11 0
1532257202529683 3 3 2 16 4 -4 11 -9
1532257202566584 4 0 -1 -6 -2 -4 9 14
1532257202611464 0 -4 -3 -3 -2 7 7 25
1532257202634403 -17 -8 -6 -4 -18 -3 22 -25
1532257202649363 -5 2 -1 -1 -3 -11 -33 6
1532257202671304 -5 -5 -10 -11 16 -11 -20 -9
1532257202709203 7 -6 2 1 4 5 8 -12
1532257202732141 10 9 1 -1 -17 -4 -49 -28
1532257202747101 -5 -5 -6 -5 3 5 6 -28
1532257202777022 14 5 2 1 31 12 6 26
1532257202806942 20 32 3 -2 -6 -4 -37 18
1532257202843843 -17 -33 -6 2 1 14 14 -18
1532257202866782 -4 -6 9 23 36 3 96 99
1532257202919641 2 -4 -1 -7 13 10 -42 -126
1532257202956542 -13 -4 -3 0 26 1 -10 8
1532257202994440 -19 -30 -2 -1 19 22 9 -1
1532257203009400 -25 -18 -7 -7 -8 -4 -12 -32
1532257203039320 -7 -39 5 7 -6 6 -19 13
1532257203061267 5 1 0 1 -11 10 87 17
1532257203099160 -11 23 3 -3 -15 -1 17 -17
1532257203122099 -9 -35 -6 1 -8 -4 46 7
1532257203137059 26 36 2 3 19 4 33 6
1532257203211859 -9 12 6 12 21 4 0 4
1532257203264717 5 -4 -4 -11 -42 -5 8 71
1532257203324558 19 26 6 0 9 10 46 11
1532257203361459 -18 -27 -3 -7 0 -3 6 -7
1532257203541976 -4 22 14 -1 -4 -11 -3 -11
1532257203616776 15 21 24 -1 33 14 -16 21
1532257203841176 -11 -1 -12 0 26 0 -4 -31
1532257204104472 2 -16 -6 1 2 0 5 -5
1532257204141373 -1 -20 -11 -6 -7 -1 -39 -3
1532257204179272 3 -19 -5 -7 12 56 -25 -2
1532257204201213 -9 -5 -4 -2 -1 -14 22 -1
1532257204232131 -27 -37 3 -2 -11 -32 12 0
1532257204269032 -45 -84 1 4 -22 28 27 -4
1532257204381730 35 81 9 3 0 5 14 11
1532257204441571 46 56 9 5 -10 3 1 9
1532257204509389 2 -24 -13 -14 13 13 10 -1
1532257204614109 7 23 2 4 9 9 0 1
1532257204658989 -5 13 -2 -7 -3 7 -2 0
1532257204696888 -23 -9 1 4 4 -19 -20 -5
1532257204786648 20 29 -5 0 1 3 11 3
1532257204944226 -4 4 4 -1 3 -1 0 -1
1532257204974146 13 10 -3 1 8 2 -31 -2
1532257205078866 -5 -12 -5 -6 -10 -4 0 0
1532257205146685 7 -4 -9 -6 -15 -14 -10 -2
1532257205229464 -10 7 -2 0 3 5 -7 -4
1532257205379064 6 0 4 -2 -4 -8 -1 -1
1532257205446882 6 6 4 3 6 29 -13 -3
1532257205521691 -1 -8 2 5 11 3 4 1
1532257205536642 0 15 1 -5 -12 3 7 -1
1532257205619421 -2 -12 -5 -2 28 -5 -1 0
1532257205671282 -3 -11 -7 -3 -7 -8 -5 -3
1532257205873741 3 26 0 1 -2 -6 -9 -3
1532257205949538 2 5 0 -3 -3 -2 -2 2
1532257206001412 2 -2 -2 -2 3 32 -3 -1
1532257206046279 -1 1 1 0 -19 10 -4 -3
1532257206137036 -2 -2 -1 4 2 -1 0 2
1532257206203858 -1 -1 -2 -4 3 38 5 -4
1532257206271677 1 0 1 0 -5 11 -3 3
1532257206355453 -1 -4 -2 -5 -2 -7 -16 25
1532257206504055 -3 2 -1 -2 -13 -4 -4 26
1532257206826194 -9 10 1 2 46 12 40 -33
1532257206923932 -1 -6 -5 -10 -25 9 18 20
1532257206991767 13 11 -7 -4 22 2 23 44
1532257207134370 -6 -5 1 -3 22 3 6 3
1532257207471469 4 12 20 14 13 -7 11 4
1532257207531311 0 20 16 -2 -46 18 2 -2
1532257207584167 0 -22 -19 -9 -36 -37 -8 -2
1532257207599127 -4 -5 -8 9 3 47 7 0
1532257207614087 -16 6 0 -6 19 15 1 -1
1532257207651989 1 -9 -4 -10 14 41 -6 -6
1532257207681905 -5 6 4 12 28 57 4 1
1532257207756706 1 -13 -13 6 9 2 2 -1
1532257207779644 1 6 7 5 32 -22 2 0
1532257207794604 0 2 2 -12 -13 14 0 0
1532257207861426 -1 3 -5 5 10 22 -3 -1
1532257207884364 0 8 2 -8 40 22 2 3
1532257207974124 0 -6 -4 -6 12 -32 -3 -1
1532257208004045 -2 -4 11 -9 -18 -40 -9 0
1532257208041943 5 -31 13 36 -52 -5 -7 1
1532257208093804 1 13 1 -5 -24 7 -5 -2
1532257208146663 -4 23 4 -35 -7 -34 0 -2
1532257208169601 1 12 -2 -2 -21 4 -2 -1
1532257208206503 4 -38 0 19 -14 22 -1 -2
1532257208266343 -1 4 4 8 -55 -32 -8 -1
1532257208319201 -5 28 7 5 4 12 -2 -2
1532257208364081 2 -1 0 4 32 12 -3 1
1532257208394001 -2 -2 -4 -1 7 -15 1 1
1532257208431900 2 4 1 6 -23 -27 1 3
1532257208483761 -1 -2 0 -2 -12 -53 -3 0
1532257208619399 -2 -2 -2 -1 6 14 1 -1
1532257208724119 0 -3 -6 -2 1 2 -1 -1
1532257208739079 1 1 -2 -11 -1 0 0 0
1532257208762016 0 0 2 -4 -5 -5 -1 1
1532257208776977 -1 0 1 2 4 7 5 -2
1532257208828838 -3 -1 -3 0 1 -18 -11 -4
1532257208851777 -1 -3 0 10 8 6 -4 -2
1532257208926577 0 4 1 -1 -6 -26 -9 0
1532257208964476 -2 0 -1 0 -3 -21 -27 -3
1532257209031297 0 3 1 3 8 5 -1 -2
1532257209151974 -3 2 1 1 -29 -61 -12 -4
1532257209226774 -3 -2 -6 1 -8 13 -14 -3

1532257209316534 -1 0 1 0 -6 29 14 1
1532257209376374 3 0 0 0 1 1 17 2
1532257209429233 -2 0 -2 1 14 -16 -8 -4
1532257209489073 1 0 -3 -3 -5 -11 0 0
1532257209533952 2 -2 -1 1 -1 9 4 1
1532257209593793 -1 -3 -1 -4 3 4 -10 -5
1532257209646651 45 1 -2 -3 -4 -18 -2 27
1532257209774310 1 -4 -2 0 -5 18 -2 2
1532257209834150 1 0 -1 0 -1 1 3 3
1532257209932886 2 -1 0 -1 -1 -8 -2 4
1532257209983750 0 -1 0 0 -5 -12 -2 -1
1532257210036609 -3 -2 0 1 -1 -11 -5 0
1532257210059548 -1 0 -2 1 0 -1 0 0
1532257210202166 -2 -2 -1 -1 -2 -8 -3 -2
1532257210276966 4 -1 -1 1 -6 -4 -2 1
1532257210516326 0 -2 -2 -2 -1 2 0 0
1532257210554225 -1 1 0 -1 -1 -1 3 -2
1532257210643997 -2 -1 0 -1 1 -3 -6 -2
1532257210666935 -1 -3 -2 -1 0 -1 -2 1
1532257210779634 0 0 -2 0 -1 1 4 1
1532257210824514 0 -3 0 -1 -1 -1 0 -1
1532257210861415 0 0 -1 -1 -2 2 7 2
1532257210989073 -1 0 -2 -2 -1 0 -2 -1
1532257211169603 -1 1 0 -3 -2 -2 -1 -2
1532257211244402 -2 -2 -1 0 -1 -1 0 -1
1532257211296263 -1 -1 -1 7 4 2 1 -1
1532257211311223 -1 0 0 -2 -15 10 3 1
1532257211349122 -1 -2 -3 -9 -3 -45 -2 0
1532257211372061 0 2 0 -3 5 -1 -1 0
1532257211408962 -3 -2 -2 -6 -10 3 2 -14
1532257211446861 0 -2 0 2 0 -6 3 8
1532257211506701 -1 0 0 4 1 2 0 2
1532257211529640 -3 -2 -2 -2 -1 1 -1 1
1532257211544599 -2 0 -2 -1 -2 -2 3 -2
1532257211581501 -1 -3 1 -2 -1 19 6 0
1532257211611421 0 -2 -4 1 -4 -1 -3 0
1532257211686221 0 -1 -1 0 1 -2 3 0
1532257211724119 -1 -1 -4 -6 -8 -14 -3 -1
1532257211769000 0 -1 -2 -7 -13 -5 2 -1
1532257211806898 -1 0 2 5 2 -6 0 -6
1532257211858759 -2 -1 -3 -3 1 1 2 -5
1532257211881698 0 1 0 -3 1 -1 -2 -1
1532257211919596 2 0 0 15 -4 -4 9 8
1532257211941538 -3 -2 -4 0 -4 -6 5 16
1532257211964477 0 -3 -4 -6 0 -4 3 -1
1532257212046258 1 -2 -3 2 6 4 -6 -2
1532257212143997 2 -2 -4 -8 0 -2 0 26
1532257212160951 -1 2 2 -1 -7 -3 -7 3
1532257212203837 5 -2 3 6 9 1 7 33
1532257212234754 2 0 -2 -1 2 8 30 5
1532257212271655 -1 -3 -3 -2 6 13 -2 -8
1532257212294594 1 3 0 0 3 10 30 -33
1532257212316535 -11 -8 -5 -5 -8 -18 -31 -69
1532257212346455 -1 6 -1 -2 -1 -7 -8 59
1532257212369394 0 -25 -6 -5 -1 -3 3 22
1532257212444194 -7 10 4 3 4 -8 -36 -55
1532257212527970 5 1 -1 2 30 8 5 51
1532257212556893 17 -20 -8 8 -5 -22 -2 53
1532257212601788 -3 -6 2 7 24 -2 7 -33
1532257212632690 -7 28 9 13 -8 -7 -11 1
1532257212661612 10 -3 1 -10 -11 5 45 30
1532257212699511 -3 -38 -5 -5 4 2 0 32
1532257212721452 14 -4 1 2 -18 -3 18 8
1532257212744391 -10 11 -1 0 7 1 -3 -31
1532257212781292 7 4 -3 -1 10 2 5 -8
1532257212887010 -16 -10 -7 -5 -3 -5 -17 -32
1532257212923911 6 9 1 1 10 8 5 8
1532257212977767 5 40 -2 2 -26 -3 5 5
1532257213029628 3 -7 -1 0 -7 -4 -2 25
1532257213051571 -7 11 22 -5 1 -6 1 -10
1532257213389665 -7 -13 1 5 11 -3 -22 -44
1532257213651967 3 -3 -2 2 8 49 25 6
1532257213681885 -19 9 2 0 1 -18 -8 -1
1532257213711804 3 -2 -1 2 0 -8 12 4
1532257213749703 3 13 -3 -3 -4 11 -3 -4
1532257213779623 -1 3 1 -1 3 4 -2 -2
1532257213997041 -11 2 2 5 3 -23 -9 -5
1532257214110737 1 -1 -4 -2 -5 -4 -9 -2
1532257214251391 -7 -55 -3 -3 -10 -12 8 0
1532257214499697 -18 -33 0 -4 -4 -14 -9 -8
1532257214521638 4 3 -1 0 12 -4 -9 -1
1532257214664257 -7 9 3 0 4 -14 -1 2
1532257214828817 0 6 0 -1 0 -7 -5 -1
1532257214941516 5 -2 -2 -3 8 6 -2 -1
1532257214979414 13 15 3 2 3 -9 -8 1
1532257215031276 -6 -5 -2 -1 5 11 12 1
1532257215093111 -10 -5 -3 -6 -25 -3 0 0
1532257215122033 -3 -4 -2 -3 -5 -16 -6 -5
1532257215143973 0 -1 -1 -1 0 6 0 0
1532257215241713 -2 -1 -5 -5 -1 -29 -8 0
1532257215271633 -18 2 -3 -5 -16 -17 -4 -6
1532257215331473 -2 1 -1 2 2 60 2 -3
1532257215384331 1 0 -2 -2 3 -1 -3 16
1532257215429211 -3 -2 -3 -5 -6 -8 2 -2
1532257215489052 -2 2 2 4 2 14 -9 -22
1532257215571830 6 2 1 4 22 0 4 10
1532257215593772 -10 -3 -3 0 -12 0 -11 17
1532257215661590 -17 1 0 2 -6 -3 -41 -61
1532257215699489 6 -1 6 -3 1 4 -8 -1
1532257215768305 16 3 7 14 13 3 -26 56
1532257215796230 -18 -5 -5 -11 8 -4 -3 -72
1532257215857067 3 2 -4 -3 47 -1 1 20
1532257215872027 6 1 -1 0 2 1 5 34
1532257215931868 -2 -4 -3 -13 -12 3 12 26
1532257215968776 -3 0 0 6 0 -3 1 -6
1532257215984726 5 -3 1 3 -8 -6 5 4
1532257216217105 1 -7 -16 -8 -1 6 1 -18
1532257216328806 -6 1 7 12 -18 -18 -2 6
1532257216479404 -3 -17 -4 -11 11 5 -5 -3
1532257216562182 4 3 5 10 21 1 3 3
1532257216607062 0 -9 -2 -2 -47 -34 0 2
1532257216636981 -1 -7 -7 21 15 -41 10 1
1532257216673884 -5 -11 -6 -7 3 27 -8 -4
1532257216711782 -2 -11 -4 9 42 52 3 -3
1532257216734721 2 9 -3 -8 66 51 4 1
1532257216764640 7 0 -8 3 -29 -24 7 2
1532257216809521 1 4 10 -19 -59 -17 -5 -2
1532257216846422 -5 19 4 -17 -36 -25 -1 2
1532257216869374 -5 -12 2 2 -36 -5 1 2
1532257216899280 -1 -7 -11 -4 35 -15 0 -3
1532257216921222 5 19 -5 -2 -2 10 3 4
1532257216944160 1 0 9 -3 -51 11 8 4
1532257216974080 -3 -4 -4 10 4 7 0 -4
1532257217011979 -4 -39 1 -5 -24 -3 0 -1
1532257217048880 -3 9 -11 -14 -34 -27 -5 -3
1532257217124678 -1 3 -5 3 -10 1 4 1
1532257217161579 0 1 5 19 12 -51 -6 0
1532257217191499 2 -6 0 0 -27 -31 -3 2
1532257217289238 -1 1 -1 -3 15 9 5 5
1532257217319158 1 -1 -1 -5 3 10 -1 -3
1532257217357056 -1 4 -2 -10 -16 -38 -5 -5
1532257217438838 -1 -3 -2 0 32 2 3 4
1532257217484730 0 1 -1 0 -10 -9 -1 -2
1532257217499675 -2 -2 -2 -3 0 1 1 -1
1532257217529595 -2 -1 -2 -5 14 -1 -1 -1
1532257217566496 -2 -1 -2 5 15 23 -8 -3
1532257217589447 1 -1 -1 2 -9 -7 -11 0
1532257217604395 0 -1 1 3 -10 -9 -4 -1
1532257217656256 -3 -2 -1 -6 -16 11 -4 -2
1532257217694155 -2 0 1 0 10 -4 8 -1
1532257217717094 -2 1 2 17 14 -33 -17 -3
1532257217747014 -3 -2 -3 -7 -9 71 -5 -4
1532257217791893 -2 -1 1 1 -8 -7 -1 0
1532257217806853 -3 0 -3 -4 -8 -40 -13 -6
1532257217828795 0 1 -2 3 -3 32 9 1
1532257217986373 2 -1 -1 4 5 23 -6 0

1532257218136971 -2 -1 1 3 3 16 4 0
1532257218271611 -1 -1 -1 -5 -5 7 -1 -1
1532257218376331 -1 -3 -1 0 -5 -36 3 -3
1532257218533910 6 -9 -1 2 12 30 17 2
1532257218586768 -10 -3 -3 -2 -1 -7 -7 -11
1532257218639627 -8 1 1 -2 -2 -4 -5 -7
1532257218706448 -24 -2 -2 -2 -2 -20 -15 -9
1532257218751327 2 1 0 -1 0 1 5 -2
1532257218819147 0 -1 -2 0 -2 5 -1 0
1532257218931845 -2 0 1 1 0 0 3 0
1532257219044544 6 0 -2 -2 0 -3 -2 3
1532257219104384 -3 2 -1 -2 -1 -1 0 0
1532257219202123 0 -3 -1 -2 -1 -4 1 -1
1532257219232042 -1 0 0 -1 -3 -1 15 1
1532257219253984 -1 -4 -5 -11 0 1 -4 -2
1532257219283904 0 -14 5 18 -1 -7 -2 0
1532257219306843 -8 25 -6 -3 5 5 5 -5
1532257219358704 -2 -2 1 3 24 -7 -4 0
1532257219374661 2 2 -7 -20 11 14 3 2
1532257219419541 -1 -9 -1 -3 0 -6 -1 1
1532257219441483 -3 -7 -4 -4 -6 0 -2 -2
1532257219464421 -2 -4 0 8 4 2 0 -1
1532257219479381 -2 -31 -3 -4 -8 -11 -5 0
1532257219509301 5 30 2 -3 -1 0 -1 -1
1532257219524261 -2 9 0 2 4 -2 -3 -2
1532257219539221 -1 6 0 -2 0 3 -1 -1
1532257219569141 2 5 -1 -7 -9 -6 -3 -11
1532257219599061 -4 -6 -1 2 -5 -2 2 2
1532257219643941 1 3 0 1 24 3 -3 -4
1532257219673861 -3 -5 -1 1 0 -1 -2 -8
1532257219688821 2 3 1 0 5 2 4 4
1532257219734698 -1 -2 -2 -4 -18 -3 0 -4
1532257219748661 -3 2 -4 -10 -25 -9 -3 -3
1532257219779578 -1 1 -2 -3 2 0 -2 -1
1532257219824458 -3 -18 -1 2 9 4 5 -6
1532257219861359 -3 -11 -1 0 3 3 1 -5
1532257219937158 -1 -5 -3 -6 -28 0 2 -14
1532257220041877 2 -3 -1 -1 -1 2 -3 11
1532257220101717 -3 -5 -7 -3 -8 0 -1 -4
1532257220131637 -2 -3 -2 -2 -4 0 -8 9
1532257220146597 -2 -4 -1 -7 -4 -13 1 -26
1532257220214415 -3 0 -1 1 3 -5 -11 -13
1532257220289216 -6 1 -1 0 3 5 -1 -12
1532257220319135 -10 -6 -4 -4 -7 -4 -7 2
1532257220349055 12 3 1 -1 -13 14 9 29
1532257220408895 -2 -6 5 4 0 9 40 17
1532257220431834 14 7 1 0 5 3 -8 30
1532257220461754 -16 -8 -8 -7 -20 2 7 -22
1532257220484718 3 2 5 7 -22 1 8 21
1532257220514613 -7 -15 1 -6 22 0 -38 -87
1532257220529573 13 6 6 13 -19 -4 -1 81
1532257220551514 -7 6 -2 -8 5 18 29 -6
1532257220568469 7 4 -1 2 -3 -5 7 17
1532257220604373 -7 2 -1 -4 1 3 7 -22
1532257220634293 -16 -5 -1 1 8 1 1 -89
1532257220679172 -5 0 -1 -1 -5 -4 -14 13
1532257220732031 -3 -11 -6 -7 -4 0 -1 -10
1532257220753973 7 -18 -5 -2 -18 -12 -7 -7
1532257220798853 -7 -9 -4 -3 2 -4 -23 4
1532257220821791 22 22 8 7 -22 -12 0 -6
1532257220866694 2 6 5 3 1 10 2 -20
1532257221016293 -10 -19 0 -5 -16 -5 -4 -33
1532257221099073 10 20 30 -1 3 3 7 9
1532257221158925 -7 -32 8 0 12 0 12 1
1532257221400269 -6 18 0 1 1 -1 -9 2
1532257221533909 -12 -24 -8 -1 2 33 22 -1
1532257221639627 -11 -12 -5 -22 3 3 -21 -2
1532257221669547 3 4 3 7 -5 -1 9 4
1532257221789227 4 -6 -3 -1 -1 -2 -19 4
1532257221878987 2 -1 1 4 4 -9 -30 0
1532257222021606 -4 -2 -2 -2 1 10 -6 -6
1532257222134305 0 -16 3 0 -7 2 6 4
1532257222156245 -1 8 1 -1 -9 -11 -4 0
1532257222232042 7 -38 -3 -2 -7 -9 -4 0
1532257222268946 6 -10 3 2 -2 2 1 3
1532257222321803 -4 -1 -1 3 10 1 0 -2
1532257222374661 2 7 3 -3 -20 -23 4 1
1532257222396603 2 6 -1 -2 -2 5 -5 -2
1532257222471403 6 13 1 -4 -4 -1 0 0
1532257222509302 9 13 -1 3 6 5 0 4
1532257222531242 -8 -11 -2 -6 3 8 9 -3
1532257222569142 -14 16 -2 -2 11 -2 -2 -2
1532257222599062 10 20 0 -4 -1 -15 -5 0
1532257222628981 -1 -9 -1 3 5 -1 5 -1
1532257222673861 -3 -7 -3 1 -9 2 -2 -1
1532257222703782 -4 -12 2 -3 4 6 4 0
1532257222764619 1 0 0 -1 -4 6 15 -2
1532257222809498 -4 -2 -1 -7 -13 -32 -23 -9
1532257222876320 -9 -16 -3 -2 -1 -3 -8 -4
1532257223018950 1 -4 -2 0 -1 -3 -10 -2
1532257223101718 6 12 -2 -6 -14 -2 0 0
1532257223131637 -9 2 -1 -4 1 -9 -8 -5
1532257223178512 2 0 3 6 -2 -3 1 2
1532257223364016 -3 -6 0 -2 1 -3 -9 -3
1532257223634294 -2 -1 1 0 2 2 0 -3
1532257223694133 -1 -2 -2 -1 -10 -71 -4 0
1532257223746991 1 2 0 0 -44 -13 2 -10
1532257223815808 -4 -3 -7 -5 -8 8 -5 9
1532257223874650 4 -3 0 -3 4 9 12 -2
1532257223896591 0 -4 -4 -11 -9 -4 -1 11
1532257223949450 16 4 1 -4 -10 1 14 -12
1532257224031231 -6 -5 -6 -19 -29 7 -1 21
1532257224099050 -11 -8 -7 -12 5 -1 -6 -6
1532257224250645 6 -4 3 4 -19 -7 31 8
1532257224339409 -17 -10 -5 -6 -47 -17 -24 -42
1532257224377306 14 -12 -1 -5 -21 -4 24 15
1532257224429168 26 0 -4 -7 10 0 -16 12
1532257224482026 4 -2 -3 2 0 -7 -6 16
1532257224766266 -9 -7 -2 -8 26 6 -4 5
1532257224849045 -2 10 -5 8 58 6 7 5
1532257224932823 -1 2 1 2 -2 26 2 -2
1532257225066463 -3 -4 -8 -16 8 -7 2 -2
1532257225089402 -1 22 -3 -6 9 9 4 0
1532257225126303 -3 -5 -4 -7 11 -31 -3 -3
1532257225149242 3 -9 13 4 -44 -50 -1 -1
1532257225194121 -1 -4 -3 -4 60 36 -2 0
1532257225209082 -1 9 -3 -12 -44 21 -7 -1
1532257225246981 1 -2 -1 -34 -113 -59 0 1
1532257225268921 -2 1 -2 0 3 -47 3 0
1532257225308815 0 -12 -8 -9 68 13 5 3
1532257225328762 0 -6 1 -1 -36 9 -4 -4
1532257225359694 -3 7 -3 13 -4 -27 1 5
1532257225381620 0 -1 3 -12 -40 46 4 3
1532257225411540 -1 -2 -12 -16 8 12 12 3
1532257225441460 2 10 8 2 2 17 2 2
1532257225457418 -1 -5 4 5 -2 -56 -8 -5
1532257225479359 -3 -2 -7 -12 -21 -38 -2 2
1532257225501302 -2 1 0 -3 -25 -24 1 -2
1532257225524239 -2 -6 -6 -1 -16 34 -5 -6
1532257225554159 0 -6 -1 2 -9 -23 -5 1
1532257225569120 0 -15 -2 0 23 8 -5 1
1532257225613999 -4 -1 0 -5 -10 26 -5 -3
1532257225628960 2 4 13 2 -7 19 2 12
1532257225651914 -4 5 1 -5 -9 -28 -8 -15
1532257225673839 1 -4 -1 -4 -1 -24 2 2
1532257225696778 -2 -3 -8 9 43 27 2 -2
1532257225711737 -1 -1 4 -2 -27 -13 -2 -4
1532257225734683 -2 3 -3 8 20 13 2 2
1532257225756618 0 -1 2 9 10 22 -1 3
1532257225779556 0 -4 -6 -7 27 12 3 3
1532257225801498 -3 6 3 3 8 -6 -5 -7
1532257225816458 1 -3 -1 8 39 -10 2 3
1532257225854357 2 5 3 1 -63 -20 5 1
1532257225906218 -2 -1 -3 -12 -6 -11 -1 0
1532257225922175 -2 -2 -1 0 4 20 -4 -3
1532257225944116 -2 -1 -4 -1 -30 -60 -1 -2
1532257225982014 -3 -2 -4 -4 13 -3 -2 -3
1532257226018930 0 1 -1 -5 -22 0 -4 -2
1532257226041855 -3 0 -1 1 -40 -2 1 -2
1532257226072773 -1 1 1 2 24 18 3 0
1532257226124634 -1 -3 4 11 8 11 -4 1
1532257226146575 0 -2 -5 0 11 7 1 -1
1532257226169513 0 -2 -2 -4 19 1 0 -3
1532257226229354 0 1 -2 2 29 14 14 2
1532257226244314 1 2 1 2 -8 -8 -1 -1
1532257226281215 0 -2 -1 -5 2 -13 -3 0
1532257226319114 0 1 -1 -4 -9 35 6 1
1532257226357012 -1 -2 -3 -9 -3 -6 -16 -3
1532257226386932 0 -3 -7 -12 26 21 1 -3
1532257226401909 -1 -4 -2 -7 -34 15 1 0
1532257226423834 -4 -4 -5 -11 -8 8 -1 -3
1532257226454753 -1 -1 0 4 0 15 -25 0
1532257226469710 0 -4 -3 1 -3 -42 1 -1
1532257226506612 -3 -3 -1 1 2 -3 10 -2

1532257226559471 -2 2 1 1 -4 -7 0 -1
1532257226574431 0 1 1 3 5 -2 -1 -3
1532257226619311 0 -1 1 0 0 8 11 2
1532257226798831 0 0 -2 -1 4 34 -16 -1
1532257227039188 23 2 -2 -2 -5 -29 -29 -3
1532257227128948 -29 -3 -2 0 2 12 -4 -12
1532257227430463 -4 -1 0 -2 0 -4 -12 -4
1532257227519225 -3 -1 0 -1 -1 0 3 -2
1532257227572085 -3 -4 -4 -9 -16 -6 3 -2
1532257227623946 0 -2 -1 1 -14 -10 -4 -2
1532257227661844 -1 -5 -4 -11 8 3 1 1
1532257227721684 -3 -3 -3 1 10 4 2 1
1532257227796484 -2 -1 -1 0 -3 -6 -1 -1
1532257227834383 2 -1 0 4 1 27 8 1
1532257227864302 0 -2 -3 -1 -5 -5 -2 -1
1532257227947082 -2 0 2 0 1 0 -3 -1
1532257227962042 1 3 0 2 1 -4 -2 0
1532257228058783 -2 1 2 -3 -3 0 -2 -3
1532257228119620 -1 1 0 -6 -20 1 0 0
1532257228186442 -2 0 -6 -10 12 6 6 3
1532257228231322 2 -1 2 5 7 5 9 -10
1532257228322086 1 12 -1 -1 2 -7 0 -2
1532257228373940 -5 -6 -6 -4 -13 -9 -2 -7
1532257228525535 -4 -4 -3 -11 -9 -2 1 5
1532257228561439 -1 -2 -1 -1 7 -8 -12 4
1532257228704057 -5 -6 -2 -3 -14 -11 -1 -4
1532257228778857 6 10 5 4 0 -3 9 14
1532257228876596 -3 -3 0 1 -3 9 -10 -3
1532257228951396 3 12 2 19 53 9 33 -1
1532257229034174 0 -1 -1 1 1 -2 8 -16
1532257229108975 7 2 -8 -6 -11 -1 -8 8
1532257229574729 12 -12 -16 2 8 2 102 44
1532257229724329 2 14 14 1 1 5 14 5
1532257229888889 -11 -18 -7 -12 -29 -61 -25 -13
1532257229911828 3 -9 3 13 55 15 1 1
1532257229972665 7 7 -4 -4 -6 -2 -19 0
1532257230016548 -8 -11 -6 -6 -34 2 11 -4
1532257230084367 -2 26 6 1 -21 -6 0 0
1532257230106308 -3 -15 -2 2 5 19 16 3
1532257230159183 -3 4 0 4 -20 -12 7 -2
1532257230204046 -3 22 9 9 19 2 7 2
1532257230256905 -3 2 -1 -5 11 4 9 0
1532257230331705 -8 11 0 0 -2 -9 -11 -2
1532257230354643 -3 -3 0 -4 -1 7 1 -1
1532257230391555 4 19 7 2 8 13 7 3
1532257230421465 -3 -13 -1 -3 -9 -12 -16 -5
1532257230496265 -10 -5 0 5 -7 -3 -10 -1
1532257230527182 -12 -16 0 -1 -22 -2 15 -1
1532257230557102 1 11 0 -2 5 -16 -21 -4
1532257230587022 -12 -24 -4 -2 7 3 -1 -2
1532257230623924 0 -6 -9 -8 -12 -9 -7 -2
1532257230676782 2 -19 -1 3 1 -7 3 0
1532257230744601 4 5 8 2 3 12 11 2
1532257230759561 1 -13 -2 -3 -3 0 -5 -3
1532257230834360 2 2 -2 1 8 -16 -24 -4
1532257230871261 4 12 3 9 27 5 3 4
1532257230925118 7 1 -2 -2 -1 3 14 3
1532257230983976 -6 -3 -2 -9 -10 -24 -13 -9
1532257231013881 -5 -10 -5 -4 3 8 7 1
1532257231066740 -5 -34 -2 2 0 -5 0 -1
1532257231081699 -3 1 2 1 -6 6 2 0
1532257231111619 2 4 -1 0 6 -21 -18 -5
1532257231141539 -6 2 -4 -3 -5 -27 -21 -5
1532257231164477 2 15 1 -2 0 -4 1 -1
1532257231224317 -1 -6 -2 4 4 2 0 2
1532257231239278 -1 10 -2 0 0 -5 -4 -1
1532257231261220 0 -15 -4 -3 -12 -20 -14 -4
1532257231307097 2 10 -1 -1 -2 24 34 7
1532257231351989 -5 -7 0 -3 -3 3 -9 -1
1532257231366937 4 -34 1 1 -1 13 9 1
1532257231403838 1 14 -3 -7 -13 -22 -11 0
1532257231448718 4 9 -1 1 11 0 -3 -2
1532257231471656 0 1 0 -2 0 0 -2 -1
1532257231516537 3 8 0 1 5 13 15 1
1532257231554436 3 30 -1 3 6 -1 -4 0
1532257231584355 -2 -3 -1 -4 -2 -4 -3 -1
1532257231697053 -3 -6 -3 -3 0 41 -23 -7
1532257231741934 -3 -4 1 0 -1 29 8 1
1532257231809753 -2 1 2 3 -4 0 11 1
1532257231854632 -1 -2 -3 0 2 26 -2 -3
1532257231921454 -3 -2 -1 -1 -11 11 3 10
1532257232004232 -1 -4 -1 3 12 -11 0 -9
1532257232049113 3 9 -2 -3 22 9 -11 -31
1532257232161811 5 3 0 -2 32 11 0 9
1532257232244590 -3 -10 -10 8 37 -4 -11 -18
1532257232349310 -17 -6 -6 -19 -63 -16 -22 -1
1532257232417129 4 28 7 7 -10 -14 -20 -34
1532257232536808 -6 -3 -2 -2 26 -5 -26 -39
1532257232566728 0 30 -2 -5 -12 -1 -5 -3
1532257232626568 -7 -8 5 -7 0 1 2 -34
1532257232641528 -3 -5 9 5 -19 -4 -12 10
1532257232686408 1 3 8 9 5 -6 0 -32
1532257232747259 7 8 3 -3 2 8 6 -1
1532257232881886 -5 3 -4 -10 -1 0 2 -7
1532257232949704 -1 -3 1 5 7 8 -1 1
1532257233076378 -2 0 -5 -8 -69 -24 -1 2
1532257233106286 -1 -11 -15 -7 -65 -117 -6 0
1532257233167122 1 0 -1 -3 53 48 -1 0
1532257233212003 -3 0 2 -7 23 -16 3 -2
1532257233226963 -2 2 5 1 -31 -46 -2 0
1532257233256883 0 4 1 -2 -50 -16 -2 -1
1532257233286802 5 -1 -9 2 16 70 5 -1
1532257233346642 5 -9 2 5 30 -1 10 5
1532257233399501 1 4 -8 -19 -69 -42 -2 -2
1532257233436403 -3 -32 3 -11 -35 4 0 -3
1532257233466323 0 6 1 8 -3 -10 -1 -2
1532257233496243 17 -10 -5 1 32 23 10 2
1532257233534142 -2 -7 -16 -9 17 7 0 1
1532257233549101 -2 -17 -9 -4 47 20 5 1
1532257233601960 -3 -24 -2 -14 47 0 -5 -1
1532257233616920 4 -3 -1 5 2 -11 3 4
1532257233646840 -10 -24 2 -9 -8 2 -3 -3
1532257233684738 -7 6 -10 -3 6 -6 -5 -6
1532257233714659 9 34 3 -5 2 4 -6 -2
1532257233736601 4 3 2 -7 -41 9 -2 -2
1532257233751560 -5 -11 -5 -1 8 5 4 -7
1532257233789458 -3 -22 9 -9 -41 -22 -4 0
1532257233804419 -3 6 -1 1 17 -3 -5 -3
1532257233819379 13 10 1 3 -24 -3 -2 -2
1532257233841320 1 0 -3 12 3 -3 0 -5
1532257233864258 -2 -2 2 -7 7 12 -3 0
1532257233902158 -4 -16 -11 -1 31 -11 0 0
1532257233932077 -3 5 5 8 -25 -20 -3 -1
1532257233947036 -1 0 -6 -11 28 11 -6 -2
1532257234006877 -1 -2 5 5 -12 -5 -4 -1
1532257234028818 -2 0 1 2 5 -14 11 -8
1532257234043779 0 0 -3 -2 -5 -21 3 4
1532257234066717 0 -2 -1 2 20 -12 -1 2
1532257234104616 0 0 -1 3 -9 28 4 1
1532257234171437 -3 -1 0 1 -8 -23 -1 -2
1532257234201374 -1 -1 -2 -6 -19 -22 -6 -5
1532257234307075 -1 -2 -1 1 13 2 -1 0
1532257234343976 -1 -2 0 1 3 5 -5 -1
1532257234358936 -3 -4 -4 -7 10 -9 -3 -3
1532257234403816 -1 -3 -1 -5 -2 1 -2 0
1532257234449693 -3 -6 0 -6 -4 23 5 1
1532257234471634 2 -1 0 7 -15 -14 8 2
1532257234516514 0 4 0 -4 -3 -55 -1 -2
1532257234644173 -2 3 -1 0 12 -12 -23 -5

1532257234831672 0 1 1 7 8 -7 6 1
1532257234974291 1 0 -3 -4 -3 8 -7 -1
1532257235064049 -1 -1 -3 -1 -1 1 -8 -1
1532257235289448 -1 -1 -1 -1 0 3 -1 -1
1532257235349287 -4 -1 0 -2 1 -1 -3 -1
1532257235528807 1 0 -1 -1 1 -1 -2 0
1532257235641506 -1 -1 0 -2 -2 -1 -1 -2
1532257235694365 -1 -1 -1 -1 0 1 0 -1
1532257235739245 -1 -3 -2 -1 0 0 1 1
1532257235784125 -1 0 -1 0 -3 -4 -2 -2
1532257235822024 1 0 0 2 2 1 1 0
1532257235896824 -1 -2 -3 -4 -6 -2 -1 -2
1532257235911783 1 -1 1 6 16 -1 0 0
1532257236001543 -1 -2 1 0 -3 -1 -2 2
1532257236046423 0 -1 -1 -6 -5 -1 -2 -1
1532257236167101 -2 1 0 -2 3 7 0 -1
1532257236361581 -3 -2 -1 4 -6 -1 -3 1
1532257236489239 -2 0 -1 3 -2 0 -2 0
1532257236504199 -1 -1 -2 3 -4 4 -1 2
1532257236534119 -2 -1 -4 -3 -2 -1 -3 -2
1532257236572018 -1 0 1 -8 -6 0 -2 0
1532257236608919 -2 -1 -3 3 -18 -1 -6 1
1532257236676738 -3 -2 -1 -5 -2 0 -6 -3
1532257236781458 -3 0 -1 -2 -10 -3 -1 -8
1532257236804396 1 -4 -7 -3 9 13 22 10
1532257236826337 -3 1 -1 0 -6 -23 -16 -12
1532257236856258 3 -1 2 -2 -4 -2 -6 -19
1532257236872215 6 6 -2 -1 -4 0 -3 -18
1532257236887175 -14 -1 2 2 3 2 4 -17
1532257236924076 2 4 -2 -2 -4 -4 33 35
1532257236947015 -2 -2 -5 -2 4 -1 -1 16
1532257236976934 -2 -2 -2 -1 -5 -16 -19 0
1532257237006854 -12 -13 -5 -7 -4 -16 -55 13
1532257237036775 3 -10 -2 -3 -6 -12 17 -26
1532257237066694 11 24 0 -3 1 19 8 -21
1532257237104594 -16 -24 -4 -13 4 6 51 -29
1532257237119553 -36 -10 -12 -11 32 -17 -10 -70
1532257237156467 -6 -63 -12 -9 -4 17 -44 40
1532257237172412 1 26 7 1 -31 -14 -19 21
1532257237188370 29 57 7 8 -20 16 77 8
1532257237224274 5 4 1 -4 8 10 36 -19
1532257237269154 -8 -1 -4 -10 -9 0 36 77
1532257237330988 0 -41 -4 0 12 -7 -10 -8
1532257237419751 10 -2 -1 4 0 5 52 8
1532257237449680 1 -15 -4 0 25 -4 -18 -14
1532257237479591 -13 -10 -4 7 -8 -3 -26 -21
1532257237509511 -13 -30 1 6 -3 -12 15 -60
1532257237531452 -6 -4 -7 -2 6 -5 -36 -36
1532257237584310 6 28 3 -5 -9 -12 -31 -12
1532257237629191 22 17 5 -10 -42 3 -16 76
1532257237659111 -3 -6 13 0 2 15 0 3
1532257237682049 -5 -47 -7 -18 13 -17 -22 23
1532257237697010 -14 -25 7 -2 9 -3 -10 0
1532257237748870 9 24 -14 9 3 13 127 4
1532257237786770 -3 19 -7 -12 -17 4 -94 -19
1532257237824668 -1 3 1 4 1 -14 -59 -18
1532257237884507 7 -2 -3 18 22 0 3 18
1532257237936369 -1 10 15 -1 2 8 1 6
1532257237974268 -1 -9 -8 -5 -2 -5 -15 -6
1532257237997208 -4 0 9 -3 -4 1 -29 3
1532257238108908 4 0 2 5 11 32 5 2
1532257238123867 -1 0 -3 -2 5 -11 -2 2
1532257238176726 -4 -5 -3 -6 -12 -7 -2 -4
1532257238244546 -12 3 3 -2 8 -47 -1 -4
1532257238417084 -16 -26 -13 -10 -22 0 10 -9
1532257238528785 31 4 1 3 -8 -49 -15 1
1532257238583638 37 4 -6 -6 -6 -14 -88 -11
1532257238694342 -8 -18 -6 -4 -5 -10 -10 -4
1532257238739222 7 16 0 6 16 -21 -8 -5
1532257238843942 -2 33 3 -7 -4 7 5 -9
1532257238896801 3 2 1 -1 -8 -5 10 1
1532257238934705 6 -2 -4 1 1 -16 -26 -6
1532257238964620 -6 -6 0 -1 6 16 10 -2
1532257238994540 2 15 3 1 4 -4 1 4
1532257239054379 -2 -21 -3 -2 4 -13 -18 -2
1532257239107238 15 15 2 0 2 10 -9 -5
1532257239137158 1 11 3 -1 5 7 -1 -2
1532257239203980 -10 -15 -5 -2 -3 1 -10 -5
1532257239263820 1 11 -2 -3 -11 3 27 2
1532257239309697 -5 -27 -5 0 4 -18 -11 -3
1532257239339617 2 4 2 2 4 9 22 -6
1532257239376519 6 -1 -1 -3 -2 -3 -1 -2
1532257239391478 -1 -6 1 -1 6 9 2 0
1532257239466278 -1 18 6 0 0 3 3 -1
1532257239489217 3 5 0 3 -2 0 -5 -1
1532257239519137 -8 -9 -5 -8 -12 -12 -6 -1
1532257239549056 -2 -2 -4 -3 -7 10 30 0
1532257239616876 -2 -3 1 0 -2 -5 -13 -1
1532257239638816 2 1 0 3 2 -2 -6 0
1532257239751521 1 0 -1 -1 -5 -61 -10 2
1532257239804374 -2 -1 0 1 6 3 4 -1
1532257239888150 2 2 3 4 0 2 0 2
1532257239955969 39 23 11 12 -3 4 21 44
1532257240284091 -10 -1 -6 -3 -3 -8 -6 2
1532257240351919 8 2 -1 3 14 2 -4 57
1532257240441670 -9 8 2 -4 6 -6 5 -46
1532257240471589 -3 -15 -4 -2 3 -5 10 20
1532257240546390 12 3 0 29 2 0 13 -40
1532257240561350 -10 -16 0 -15 15 -4 -53 -28
1532257240637147 -5 4 8 -2 -1 -1 9 -13
1532257240689009 3 -17 6 1 -2 2 1 4
1532257240718928 -3 -9 -14 -2 -5 0 3 -1
1532257240771787 10 5 6 18 -28 -52 0 3
1532257240824646 -2 -5 14 21 37 65 0 -4
1532257240936347 2 7 -8 -6 -14 11 -1 1
1532257240966267 17 20 -23 2 10 -18 12 5
1532257241027104 -5 3 0 -8 -2 3 7 5
1532257241108886 0 13 -8 -7 -24 7 13 1
1532257241138806 1 11 -6 1 -2 -76 3 1
1532257241229563 2 -56 -3 10 45 7 -2 -1
1532257241281424 0 8 7 -3 16 45 -3 -7
1532257241334282 -6 -26 5 -20 14 -60 -11 -11
1532257241394123 -3 -6 0 13 -128 17 -10 -24
1532257241506822 -5 -15 -3 -24 49 24 -4 6
1532257241626502 -1 -25 -6 -19 10 -23 -12 -3
1532257241664400 -1 -3 -1 -6 -38 24 2 1
1532257241799040 -5 8 -3 -5 -38 26 0 -18
1532257241858880 2 5 -2 -3 32 0 -12 3
1532257241919717 -2 1 -3 -21 -14 -1 -3 -2
1532257241971579 -2 1 -1 7 10 -11 -2 0
1532257241986539 -3 0 1 -2 -23 -17 -4 -2
1532257242016459 -2 0 -1 -5 5 10 -12 -2
1532257242091259 0 1 4 2 4 29 12 0
1532257242137136 -1 -4 -2 -2 13 11 -4 -2
1532257242167056 -1 -3 -8 -5 8 -12 -2 -3
1532257242188998 1 -1 0 -3 -4 3 -3 -1
1532257242279768 -2 -2 1 -9 -7 -6 2 2
1532257242339595 -2 0 -1 -2 4 10 0 -2
1532257242354555 -1 1 1 2 -2 5 -13 0
1532257242444314 -1 -3 -1 0 -1 17 0 -1
1532257242466256 0 -1 1 -1 1 2 4 1
