1532262579035227 3 4 11 29 8 -2 -1 1
1532262579177846 -1 -2 -2 -3 4 6 0 -1
1532262579193804 -3 -3 -3 1 11 8 7 0
1532262579225718 -2 -9 -2 -6 12 5 0 -3
1532262579249654 -2 3 -1 -5 2 22 -1 -1
1532262579300518 -4 -1 -2 -2 7 38 -3 -1
1532262579324456 -3 -2 2 3 10 -40 -8 -4
1532262579346395 -3 -4 2 -4 -14 -6 0 -1
1532262579360357 0 -8 -3 -2 -5 -13 6 -1
1532262579413217 0 -2 -3 -1 -1 7 -2 0
1532262579474054 -2 1 -1 -4 0 3 2 0
1532262579480038 1 2 -2 -1 -2 -9 0 0
1532262579502976 0 -3 0 0 1 -2 -3 -2
1532262579525915 -1 0 -4 1 1 -8 0 -1
1532262579539878 -1 1 -2 -6 -3 -4 -3 -1
1532262579563814 0 0 2 0 0 4 -1 0
1532262579587750 -1 -1 -1 0 0 0 -1 -2
1532262579602709 0 -4 -1 -1 -1 0 -1 1
1532262579623654 -2 0 1 3 1 1 -1 1
1532262579645595 -3 -2 -1 -4 -3 -1 0 -1
1532262579683494 -1 0 0 1 0 -5 -1 -3
1532262579714411 -2 2 2 3 1 5 -4 0
1532262579729371 0 -1 0 -2 0 2 3 1
1532262579751312 -2 -3 -2 -3 -1 0 6 0
1532262579766272 -2 -3 -3 -3 -1 -4 -4 -1
1532262579789211 0 1 0 0 -1 5 1 -2
1532262579811152 0 0 1 -1 -2 -12 -5 -2
1532262579858027 0 3 0 -1 0 25 5 2
1532262579900912 -2 -3 0 -4 -2 -4 -4 -3
1532262579924849 1 -2 1 0 -2 -10 0 2
1532262579961750 0 0 -1 -2 -2 -6 -4 -1
1532262580007627 1 0 1 2 3 9 0 0
1532262580043530 -2 -1 -6 -4 -2 7 1 -1
1532262580065472 0 1 0 -2 -3 -5 5 -2
1532262580089408 -5 -1 -3 -2 -2 -12 -2 -2
1532262580134289 -1 1 0 -2 1 7 -5 -2
1532262580203103 -2 -2 -1 -2 -1 0 -2 1
1532262580282891 -2 0 2 2 2 18 5 2
1532262580313808 -8 -3 -3 1 1 29 0 -2
1532262580329766 -3 -3 -1 1 0 3 4 0
1532262580404576 -1 1 1 -2 -1 6 -2 -1
1532262580411546 0 0 -1 -1 -1 -3 1 -1
1532262580480363 0 -1 0 -2 -1 14 1 2
1532262580539205 0 -2 -1 -3 -1 3 -3 0
1532262580614005 0 -3 -2 -2 -1 13 -4 -2
1532262580673845 -2 0 -2 -2 -1 -1 -2 0
1532262580726704 -1 -1 -2 0 0 36 3 0
1532262580750640 -1 -2 -1 0 -2 0 2 -2
1532262580867329 -1 -1 -1 1 1 -4 1 -1
1532262580891264 -1 -2 -3 -1 -2 3 3 -2
1532262580927168 2 0 -1 -1 -2 -12 -3 -3
1532262580952101 0 -2 -2 -2 -3 0 -2 -2
1532262580982022 0 0 -1 0 2 25 -7 -2
1532262581011941 1 -2 -1 -1 -1 -2 1 -2
1532262581034880 0 0 -2 -1 -1 -14 -3 -2
1532262581056821 0 -1 -1 -2 -1 -13 -2 -3
1532262581117659 -2 -1 -1 -1 0 6 -2 -2
1532262581124640 -1 -1 -2 -2 -1 -3 -8 -3
1532262581154571 0 -1 -1 -5 0 -4 -3 -1
1532262581176501 -1 -1 -3 -1 -3 7 -1 -1
1532262581213403 -1 -2 -1 0 -2 -7 -1 -1
1532262581244320 0 -2 -2 -5 3 38 0 -1
1532262581289200 -1 0 0 -2 -6 -8 -5 -1
1532262581335078 0 -5 -10 -44 -17 -20 -1 -1
1532262581365011 2 -2 -11 -2 10 28 13 4
1532262581384944 0 -3 -11 -3 -13 9 -3 15
1532262581402896 -2 -1 1 -16 -16 -14 -8 -4
1532262581429824 1 2 1 6 3 10 6 14
1532262581476698 -9 -2 0 -11 -17 -8 -33 -22
1532262581499637 8 0 3 5 -6 6 45 31
1532262581538543 -4 -2 2 -4 -1 0 2 16
1532262581550500 -4 -3 2 3 0 -3 -21 1
1532262581610341 6 -3 4 11 -6 1 2 32
1532262581630301 -6 -2 0 -5 -12 -22 4 -1
1532262581647243 -1 -7 -4 4 3 -24 -13 -9
1532262581670180 -4 -2 -2 -6 -12 9 -33 -7
1532262581694116 -4 -4 -1 -4 -6 -10 -2 17
1532262581730022 -7 -8 -4 -10 -19 -6 2 14
1532262581759941 2 -1 0 6 5 7 -10 -14
1532262581798837 -1 2 2 -3 0 -33 19 -26
1532262581813797 -2 -5 -4 -10 -4 11 -26 -5
1532262581866656 0 -2 -2 -6 -1 7 28 31
1532262581873637 -3 0 3 -10 2 -1 -35 12
1532262581925498 -2 -4 -4 -13 -13 -15 6 2
1532262581955418 -2 -4 -19 3 1 -8 0 9
1532262581993343 0 2 8 6 -3 20 4 5
1532262582045204 -2 -2 2 -11 -4 9 4 -14
1532262582060163 1 -1 -2 -6 -7 -19 3 -5
1532262582144936 -1 -2 -3 -5 1 -1 -5 -5
1532262582160895 -2 -1 -3 -2 0 -4 -33 -23
1532262582196798 6 3 3 7 -7 -13 -23 -14
1532262582219738 -4 -2 -2 -6 -4 4 -22 -13
1532262582240693 -3 -3 -3 -1 0 -5 3 4
1532262582271610 0 0 -2 1 -3 -6 -11 -7
1532262582445146 -3 6 -2 -2 -1 5 -5 8
1532262582459108 -1 2 -2 -14 -4 -1 0 8
1532262582481050 -1 -5 2 -16 -26 28 0 -6
1532262582532911 -1 -1 -4 18 19 7 1 15
1532262582563829 0 1 23 50 7 7 17 6
1532262582592751 0 -1 2 -6 -2 -2 -6 4
1532262582638629 1 2 1 -4 -3 -39 -6 6
1532262582691488 -4 -5 -7 -3 5 14 1 -12
1532262582864032 -3 -4 -3 -3 -5 -13 -12 -8
1532262582892955 0 -3 -2 -1 2 11 -1 -3
1532262582915893 -1 0 -2 2 -7 5 -3 -4
1532262582929855 -3 -1 -3 -5 -7 8 -6 -11
1532262582979722 -1 -5 -4 -4 1 0 9 -6
1532262582998672 0 -14 -7 -4 -2 9 -1 0
1532262583028592 -5 18 5 3 -2 5 -2 -19
1532262583060507 -14 -8 -5 -4 -1 -3 10 -8
1532262583083445 -4 -4 -4 -8 0 2 -4 -1
1532262583096410 3 -17 2 -2 3 -3 1 4
1532262583119349 16 10 -5 -1 21 -3 -9 -57
1532262583141291 2 -4 -9 -23 -20 -7 -8 -13
1532262583149269 -6 -7 0 -12 -8 1 2 6
1532262583205119 6 30 -7 0 4 -4 -3 15
1532262583238032 -9 -6 -4 -8 0 -3 -1 -1
1532262583270983 3 19 1 -9 -2 0 -2 2
1532262583289947 -9 3 2 3 -9 -4 4 2
1532262583321847 4 2 -3 -2 0 -1 3 -6
1532262583343789 -5 -17 1 16 -4 4 12 9
1532262583381687 1 14 -5 1 4 -4 5 -18
1532262583403628 -2 11 -3 -2 -3 4 8 9
1532262583449506 6 -17 0 3 0 4 -1 2
1532262583524305 -9 -28 -8 -6 -5 -4 -1 -8
1532262583550237 -3 16 6 1 -2 -2 10 -2
1532262583572177 -3 -19 -5 -2 -4 1 -3 4
1532262583602098 -4 -9 1 0 -1 0 -2 0
1532262583622060 -3 -3 1 1 -2 17 4 -5
1532262583643986 -2 5 -3 -1 -1 -1 -3 3
1532262583681885 2 23 6 1 2 0 7 10
1532262583703826 0 1 1 6 3 -7 -9 3
1532262583779623 -1 -40 -5 3 -1 0 1 3
1532262583893319 0 38 0 1 -2 -2 0 1
1532262583915260 -2 -13 0 -3 -2 -2 3 5
1532262583960141 -5 -2 -1 1 1 1 -7 0
1532262583974103 -1 4 -2 0 2 -1 5 -6
1532262583989064 1 25 3 -1 -2 0 1 -2
1532262584034940 -2 -22 -6 0 -1 0 5 0
1532262584070844 2 23 1 2 0 -5 -4 -17
1532262584132679 -2 -1 0 -4 -4 -4 -11 -4
1532262584153622 0 4 -3 -1 0 1 -4 5
1532262584163596 0 18 3 0 -1 -1 -3 -8
1532262584184540 0 -4 1 -1 -2 -3 2 4
1532262584207485 0 3 0 0 0 -2 -5 -4
1532262584212466 -2 -13 2 2 0 -2 -7 -5
1532262584304220 2 1 4 2 0 0 10 -7
1532262584365058 0 -10 -6 -5 -2 -6 -5 -1
1532262584432876 -4 21 3 -1 2 -2 -2 -5
1532262584447836 -1 -2 1 -1 -2 -23 -1 -4
1532262584482743 -2 1 2 0 9 4 -5 4
1532262584536599 -7 -1 0 -1 -6 0 0 -10
1532262584543580 3 13 0 -5 -39 -3 0 -1
1532262584582476 -13 -3 5 6 37 28 8 2
1532262584628354 1 -17 -5 0 6 14 1 -3
1532262584670242 -2 53 0 4 58 35 5 5
1532262584689196 -17 -31 -5 -4 -19 -7 -5 -5
1532262584712135 0 -6 -4 -5 -19 7 -6 -2
1532262584717121 0 -7 -6 -2 7 -25 0 -5
1532262584746039 -3 -11 -3 -4 -16 -20 -4 0
1532262584760999 1 3 3 5 31 24 2 1
1532262584782940 0 10 0 -7 -1 -2 1 0
1532262584829815 1 -4 -2 -5 -16 -33 -4 0
1532262584843777 14 5 1 8 27 -7 3 1
1532262584903617 -4 -3 3 2 -6 -4 -2 -2
1532262584925559 6 9 0 2 3 4 2 -2
1532262584949495 -5 7 8 3 6 23 0 -1
1532262584971436 0 -8 -2 -5 3 -8 -2 2
1532262585001356 -4 -78 -12 -3 43 8 2 -2
1532262585023306 -6 22 2 1 5 6 -2 3
1532262585046236 6 21 -1 -6 -34 8 -4 3
1532262585061196 -13 -27 -6 -3 -15 -3 -7 -9
1532262585099095 -3 -5 0 1 -65 -11 -5 -4
1532262585121036 4 4 3 5 0 -13 5 11
1532262585145969 3 -6 1 0 21 -1 5 -3
1532262585167911 2 19 9 11 10 0 6 -1
1532262585211794 -7 -8 0 3 -3 -27 -8 -2
1532262585235730 2 12 5 1 1 -7 -4 -2
1532262585247697 0 2 -4 -6 -4 -16 -2 -3
1532262585274626 1 11 0 -9 -2 -7 -5 -2
1532262585331473 -3 -5 -1 -3 -3 0 -7 -4
1532262585346434 -2 -31 -3 -4 3 7 -1 -1
1532262585369372 4 -15 0 -3 35 30 -6 2
1532262585390315 -2 9 0 4 -3 -27 2 -1
1532262585468108 6 12 2 0 2 6 6 4
1532262585481073 -10 -27 -1 0 -20 -14 -6 -5
1532262585512988 0 1 0 0 -22 -25 1 -1
1532262585527948 14 -6 4 -4 -17 -21 -4 -2
1532262585548892 -14 -15 -7 -11 -13 -25 -12 -18
1532262585571831 20 -12 -7 3 3 -2 1 5
1532262585599756 -16 -2 -4 -2 -6 10 8 6
1532262585623691 -12 -4 -5 3 -10 7 8 -2
1532262585647628 1 -11 2 -1 -35 -15 -12 0
1532262585660594 30 29 3 2 30 20 -6 -8
1532262585699489 -20 -3 -3 -5 -5 1 4 13
1532262585722429 -4 17 7 -7 22 1 -5 -10
1532262585743372 -40 -8 -1 -4 -11 19 -4 2
1532262585769317 10 -1 -2 -3 -6 0 -4 0
1532262585782268 7 -3 9 13 27 21 7 6
1532262585811191 -16 14 5 1 7 8 7 3
1532262585834129 8 -10 -19 -6 -17 -12 -3 -8
1532262585885990 0 -1 -1 -4 6 16 2 5
1532262585899953 -13 -6 -7 -7 -15 -11 -2 -10
1532262585931867 2 -9 0 1 -6 -6 1 0
1532262585948823 1 -1 -2 0 -2 6 2 3
1532262585970764 1 3 0 6 19 6 15 2
1532262586005670 5 14 1 -2 -3 3 -4 2
1532262586082464 -2 -31 -2 -1 -1 1 -34 1
1532262586105404 -14 -15 -2 -1 -2 9 -16 -12
1532262586282929 -3 -2 1 -2 -18 -26 -9 -2
1532262586515307 -4 15 -1 5 16 -26 -7 -2
1532262586667899 -2 -17 -9 -4 -27 -38 -5 8
1532262586682860 9 -1 -1 -11 -41 -44 -1 -7
1532262586748683 -11 5 2 -7 0 -4 3 5
1532262586770625 8 10 1 8 -3 -28 -4 -1
1532262586816506 -1 15 -13 -19 -3 6 -1 -13
1532262586856407 -25 -62 -5 -8 1 1 4 17
1532262586914241 -3 -6 -11 -5 -11 -8 -3 -9
1532262586923216 13 -20 -3 1 3 1 1 0
1532262586959121 -12 4 1 0 3 -9 -1 1
1532262586989041 -6 -10 -4 4 2 -9 -1 -6
1532262587018961 8 7 6 4 0 10 2 -1
1532262587070822 6 7 0 -2 0 1 -4 -6
1532262587132672 0 1 1 2 -7 -4 -3 1
1532262587153601 -1 3 2 -3 -8 -5 -1 0
1532262587191500 -3 -1 0 1 -8 -9 -2 -5
1532262587229398 -2 -1 0 1 2 6 2 1
1532262587265303 -1 2 -2 -2 -1 -9 7 -4
1532262587297225 -1 0 -3 -2 -7 1 2 -1
1532262587356059 -2 2 0 4 13 -1 -2 -3
1532262587374013 3 -4 -1 0 3 10 16 8
1532262587393974 -1 -6 0 2 24 46 0 -2
1532262587431856 -2 -1 -2 -6 1 -10 0 -3
1532262587444823 0 -3 0 0 -10 4 9 1
1532262587468768 1 -4 -3 -5 -20 -3 7 -1
1532262587551567 -3 -3 -1 -5 23 37 -2 -3
1532262587591460 -2 0 -3 -1 -29 -64 7 -2
1532262587611407 0 -3 1 1 7 -23 -5 1
1532262587634345 0 1 0 2 -10 -25 0 3
1532262587679253 -2 0 0 1 5 -5 0 -2
1532262587776992 -3 0 -1 0 -1 -7 2 1
1532262587813894 -1 0 -2 -1 -1 -7 -2 -3
1532262587827856 -1 0 1 -2 -9 -29 -4 0
1532262587873734 -1 -2 -2 0 0 7 -2 1
1532262587890689 -3 0 -1 -1 -2 20 5 -1
1532262587911632 0 -2 0 1 -1 2 7 1
1532262587956539 -4 -1 -3 -2 1 -1 3 1
1532262588023333 -2 0 -3 -2 -5 -4 4 -1
1532262588041286 -1 -2 -3 -2 0 7 7 2
1532262588046272 0 -2 -1 -3 -2 3 1 -1
1532262588067216 -3 0 0 0 -1 5 2 0
1532262588091152 0 -3 -1 -2 -1 2 0 -2
1532262588128054 0 0 -2 0 -2 2 -4 -2

1532262588166950 -3 -1 2 -1 -2 -26 1 -1
1532262588210833 -1 1 -1 -1 -2 -1 -3 0
1532262588224795 -3 0 0 0 1 -13 -4 -3
1532262588303584 0 -1 -1 -1 -1 -1 -6 -1
1532262588308571 -2 -2 -2 0 -1 -2 3 -1
1532262588367413 -2 -2 0 0 3 8 -1 0
1532262588454182 -2 0 -2 0 3 4 1 -2
1532262588543942 -1 1 -1 0 -3 -2 0 0
1532262588570870 2 -1 0 -1 -3 -1 1 0
1532262588609766 -1 1 0 0 -1 3 -12 -2
1532262588632704 0 0 -2 -2 -2 -2 -2 -2
1532262588753387 -2 -2 0 0 -1 -1 2 -3
1532262588775329 -2 -2 0 -2 0 1 0 0
1532262588889025 1 -1 -2 -1 -2 1 -1 -2
1532262588930913 -1 -2 -1 0 -1 -2 1 -4
1532262589075526 0 -1 -1 0 -1 -2 -3 -1
1532262589121404 1 -2 -1 -3 -3 0 1 0
1532262589165285 -1 0 -1 0 1 -2 -3 -2
1532262589216150 -2 -2 0 1 -2 1 0 -1
1532262589231110 -1 0 -1 1 -1 1 -1 -1
1532262589254049 0 -1 -2 -2 -2 2 -3 -1
1532262589275990 1 0 -1 -1 1 -4 -3 2
1532262589442553 -1 2 -2 0 1 0 -3 -1
1532262589470469 0 -2 -2 1 -1 0 1 -1
1532262589546267 -1 0 -1 -2 -1 2 2 -1
1532262589575190 0 -2 0 -2 -2 -1 -1 -1
1532262589602118 0 -2 -3 0 0 -2 -1 0
1532262589625056 0 -2 0 -1 0 3 -4 0
1532262589643009 0 -1 -2 -2 -1 -1 0 -1
1532262589689883 -2 -1 -2 1 -3 0 -2 -1
1532262589712821 -4 -2 -1 -1 0 -2 -3 -1
1532262589733765 -1 0 -1 0 -1 -3 -3 -1
1532262589756705 1 0 -1 0 0 3 4 1
1532262589778646 -3 -1 -2 0 0 -4 -4 -2
1532262589898326 -2 -3 -1 -2 -2 0 0 -1
1532262589998059 1 -1 1 2 0 -2 -3 -1
1532262590020001 -2 -3 -2 -1 -1 -4 1 0
1532262590115744 -1 0 -1 -2 -1 -3 -5 2
1532262590237418 -2 -1 0 2 1 2 1 -1
1532262590259360 -1 -1 -2 -1 -3 -2 1 1
1532262590298256 0 0 0 1 -1 -2 -5 -1
1532262590372059 -1 -3 -2 -1 0 3 -13 -4
1532262590407962 0 0 -2 -2 -2 -1 1 0
1532262590492736 -2 -1 -1 0 1 0 2 0
1532262590596459 -1 -3 -3 1 0 -5 2 0
1532262590657297 1 -1 -2 -1 -1 -1 -13 -3
1532262590830832 -2 1 0 -1 -1 -5 -3 -1
1532262590858757 0 0 0 1 -3 -5 5 0
1532262590941536 -2 1 -2 -2 -2 2 -4 -3
1532262590947521 -2 -2 -4 -3 -4 -5 5 3
1532262591033291 0 0 1 1 -1 3 -5 -4
1532262591071197 0 -3 -4 -3 -2 6 -1 -2
1532262591092133 -2 0 -1 0 -1 0 4 0
1532262591122054 0 -1 1 -1 2 -1 -2 1
1532262591158955 -1 -1 0 -2 -2 -2 2 1
1532262591194859 -1 -2 -3 -1 -2 -3 -2 -3
1532262591218795 -3 1 -1 -2 0 1 -1 -1
1532262591265670 0 -1 0 0 -1 -3 -5 -1
1532262591288608 -1 -1 0 -1 -3 2 2 -3
1532262591333495 -2 -1 -3 -3 -1 3 3 0
1532262591385349 -1 -1 -2 -2 -2 -2 -2 0
1532262591421253 1 -2 -1 -3 -1 -5 1 2
1532262591512010 -2 -1 -1 -2 1 -1 2 -2
1532262591562885 1 1 0 0 -1 1 3 -1
1532262591589810 0 0 0 -2 -1 1 0 0
1532262591684550 -5 -11 15 -8 -4 -7 -10 5
1532262591744389 -2 -4 -12 -5 -9 -6 -30 -13
1532262591781291 -7 -2 5 -5 16 -20 18 -58
1532262591817194 -10 -4 4 10 10 17 -24 1
1532262591863072 7 4 4 -2 -8 28 -8 33
1532262591939872 -14 -6 -6 -6 -18 1 -38 -31
1532262591947845 -13 -6 -4 -1 3 3 17 25
1532262591983749 0 -2 -1 -6 -9 -9 -39 10
1532262592006688 -3 5 8 8 -2 -14 26 -26
1532262592020651 -6 -13 1 3 -6 7 7 5
1532262592043589 7 1 -4 -1 6 59 26 -26
1532262592066529 -12 -39 -10 4 -1 -31 -2 -24
1532262592081488 10 3 3 -9 -2 13 -19 -6
1532262592128363 -2 -10 -8 -10 -8 -15 11 11
1532262592133349 -6 -10 -6 -6 5 12 33 51
1532262592172245 24 5 -12 -19 3 6 -7 37
1532262592186207 -4 -7 -7 8 -15 -12 23 9
1532262592231087 -8 9 2 -9 -2 -52 -15 30
1532262592246048 -8 5 2 -7 4 3 14 -9
1532262592298907 -9 3 -5 6 -6 -45 12 -4
1532262592335808 11 -3 5 0 -4 -29 17 25
1532262592418586 1 -2 -2 8 5 10 5 26
1532262592437535 -5 -1 1 6 -12 17 -37 -31
1532262592458479 -2 3 0 -2 4 4 -31 -11
1532262592495398 -9 -16 4 -1 -4 3 6 19
1532262592509343 -12 -5 -6 -7 -4 -37 -1 -11
1532262592531284 0 6 2 0 6 27 16 37
1532262592576165 -1 -4 -3 -2 -5 -7 -55 -6
1532262592599104 0 -9 -2 2 -5 -17 -4 -9
1532262592623056 -3 -12 -7 -9 -4 -33 -2 -6
1532262592637002 4 35 -4 -14 -1 -11 -20 -44
1532262592659941 3 -9 13 43 10 -10 -1 25
1532262592705823 2 3 -2 -4 -5 -24 -22 -21
1532262592719781 3 4 5 -8 -8 -9 26 16
1532262592748704 1 -2 -2 -29 -11 34 27 25
1532262592763663 0 0 8 8 5 -16 14 1
1532262592786602 -3 -10 0 19 -4 16 -4 -12
1532262592800564 0 -5 -11 -7 2 28 -3 13
1532262592823503 3 5 -1 -18 -26 -37 19 27
1532262592891322 -7 -5 2 8 1 -4 -15 -29
1532262592996043 1 1 0 -9 -1 2 9 23
1532262593014992 1 0 -2 -3 4 -11 -4 8
1532262593027958 -3 -1 -3 -2 -1 -3 -15 7
1532262593048901 1 3 3 -6 0 -5 -4 -15
1532262593071839 1 13 -4 -3 -6 24 -9 6
1532262593086799 -2 15 -5 -2 -4 1 16 26
1532262593108741 -5 -16 -2 -3 -3 -6 0 -10
1532262593131679 -2 -14 -2 6 -5 -5 13 -8
1532262593153620 4 13 11 19 3 -6 3 -9
1532262593183541 7 30 4 -1 -2 22 8 20
1532262593223438 -2 -16 -5 -8 -8 -42 -6 0
1532262593236400 -1 -1 9 14 -2 6 -14 -42
1532262593246373 -6 -18 -8 -18 -9 -20 -4 2
1532262593280282 -1 -47 -8 -14 -1 9 11 -9
1532262593303220 -6 7 1 -3 -2 16 -21 -41
1532262593326159 2 -6 -7 -11 -1 -1 2 11
1532262593340122 -1 6 4 3 1 5 12 -1
1532262593386997 1 0 -4 -2 1 -2 6 2
1532262593422903 -2 -5 -5 -3 0 -7 7 0
1532262593453818 1 4 3 3 -1 12 6 2
1532262593522634 0 -14 0 0 -3 2 -8 5
1532262593568511 -3 -6 -1 2 -2 -4 1 2
1532262593595439 -4 -40 5 -2 -49 4 3 19
1532262593626356 -12 -52 -3 4 7 4 -1 -3
1532262593663258 -2 17 0 2 21 1 -2 -2
1532262593701156 3 3 -2 2 11 4 9 16
1532262593709135 -4 -2 -5 -5 -1 -6 -7 -10
1532262593723098 1 54 5 1 -34 -1 1 7
1532262593776953 -1 -13 0 -2 4 -2 0 -1
1532262593798895 -1 35 0 -3 2 -3 -6 -12
1532262593813855 -3 -34 -4 -1 6 0 25 5
1532262593866713 4 -7 0 -1 0 -3 -8 4
1532262593888655 2 2 1 0 -2 -2 -15 2
1532262593902618 -2 4 0 -3 1 -1 -2 1
1532262593926554 -2 -19 -2 2 0 0 4 -3
1532262593949492 -1 4 -1 -3 2 0 -1 -3
1532262593986394 0 3 -2 0 -2 -1 3 -3
1532262594009332 -2 6 -2 2 -4 1 -9 -2
1532262594031273 -1 14 0 -1 -1 2 10 1
1532262594054212 0 -9 -3 -2 -2 0 6 3
1532262594076154 -1 -3 4 0 2 -3 -19 -2
1532262594129012 -3 -11 -7 -3 -5 27 17 9
1532262594142975 1 -3 -2 -2 1 -12 -1 1
1532262594256671 -3 7 3 7 1 -8 0 -18
1532262594345433 -2 -28 -13 1 2 0 0 -3
1532262594369370 -3 -5 -3 -4 -2 1 -6 -5
1532262594421231 -1 6 2 1 0 -3 12 1
1532262594443172 0 4 5 1 1 23 -12 8
1532262594511988 -2 5 -4 -2 -2 9 -3 0
1532262594556876 2 9 7 -1 -3 -4 8 -4
1532262594653609 -2 -9 0 0 -1 3 8 -5
1532262594691508 -3 -5 1 -4 -1 -1 17 9
1532262594751348 -1 -21 -1 0 -8 -9 1 1
1532262594774287 -1 1 -1 1 -2 -27 8 2
1532262594811189 1 -1 1 -1 -2 -3 -15 -1
1532262594857066 0 -1 -2 -1 1 7 10 2
1532262594909924 -1 -22 -2 -1 0 14 -4 -4
1532262594955802 -2 -1 2 3 8 -45 0 0
1532262594991705 0 2 1 0 5 -10 -7 1
1532262595051546 -11 -2 -1 2 64 35 -4 -34
1532262595074484 8 8 -1 0 17 20 8 3
1532262595149284 -1 13 3 2 75 28 2 3
1532262595187182 6 8 3 -1 -74 -38 3 49
1532262595224084 -25 8 0 4 36 -10 1 -26
1532262595291903 2 0 0 -6 -29 -7 3 -14
1532262595313855 4 -3 -4 -6 -8 -6 4 1
1532262595334788 -7 -4 -4 -8 -71 -37 -14 -33
1532262595404601 -11 -2 1 5 59 17 9 10
1532262595444498 3 -36 -1 1 -30 -22 -7 -11
1532262595463444 5 8 6 6 16 17 -2 -11
1532262595511329 -4 7 -2 -6 -39 -40 -3 10
1532262595533257 -1 -1 -6 -3 23 19 2 7
1532262595554202 6 -5 -5 -4 -12 -12 -2 -33
1532262595568163 -3 -7 -6 -10 -4 -9 -6 15
1532262595614042 5 -19 -2 0 -3 11 -13 3
1532262595634985 8 -2 -11 -9 26 1 3 15
1532262595713775 -6 -8 -3 -6 -29 11 6 -28
1532262595793561 8 -1 0 8 11 15 6 6
1532262595831460 6 2 1 2 11 6 8 9
1532262595867364 -6 -6 0 -3 -1 0 6 -7
1532262595975088 -14 -10 -8 -5 -10 -14 4 -15
1532262596017961 9 -30 -8 0 7 0 35 14
1532262596184516 -11 -11 6 7 -1 -1 -1 17
1532262596221435 11 -16 -6 -7 0 -2 1 15
1532262596253349 1 1 0 4 -4 5 9 3
1532262596289253 -12 -5 1 0 -1 2 -4 -4
1532262596416913 1 -2 1 -8 -5 -16 2 0
1532262596430875 -1 -8 -1 1 0 3 -10 2
1532262596459797 6 0 -1 3 -4 -13 -2 4
1532262596477749 -16 -3 2 11 -4 -6 -9 -9
1532262596514650 -1 19 31 11 4 -1 3 7
1532262596552549 1 -8 1 -2 -4 -6 -2 -6
1532262596588453 16 -1 -3 -2 -1 -2 2 -7
1532262596658266 0 -21 -13 -11 -14 -11 -6 0
1532262596679214 -14 24 8 -6 2 -3 -3 -3
1532262596716113 -41 -24 -15 -4 -2 2 -4 -19
1532262596730075 1 -29 -4 -5 0 -14 0 -5
1532262596739051 -9 -46 -10 -2 2 2 6 -4
1532262596822827 -7 -13 -3 8 -1 0 3 8
1532262596853744 -3 5 -2 -2 -2 0 -3 -4
1532262596872694 -4 -15 -5 1 -4 4 -2 -3
1532262596897665 -5 -6 -7 -2 -3 -9 1 -2
1532262596920604 2 -6 -1 -2 0 2 5 -12
1532262596926605 7 -18 -8 3 0 10 -2 -4
1532262596956508 -5 2 -3 -3 16 21 -9 -4
1532262596970471 1 -2 -1 4 8 14 3 1
1532262596994407 -1 0 4 -1 -18 -31 3 -3
1532262597030313 11 2 0 -3 -4 -6 -1 -2
1532262597054246 -3 -2 -1 -1 3 -24 -7 -2
1532262597076189 -4 1 0 0 0 4 -2 -3
1532262597107106 -2 -3 1 0 0 -5 -4 -1
1532262597136029 1 4 2 5 7 33 7 2
1532262597158967 1 4 1 -1 0 9 0 -1
1532262597196865 -4 -8 -5 -11 31 22 -9 -4
1532262597209831 -2 -5 -5 -3 -11 -27 2 1
1532262597233767 2 4 1 -3 3 -17 -6 1
1532262597239751 0 -3 -1 -3 -18 33 -5 -3
1532262597279645 -3 -2 -3 -9 -22 -36 -3 0
1532262597324540 -2 3 -2 -7 -42 -42 -14 0
1532262597339484 -7 -4 -1 -4 -50 6 -4 -1
1532262597353447 -1 1 -4 2 14 34 11 2
1532262597398327 -3 -2 -1 1 5 -12 -6 -2
1532262597406305 0 -3 -3 -1 3 5 1 -2
1532262597451186 1 0 0 3 0 -1 3 0
1532262597473127 -1 -1 -1 -2 -5 -6 -2 0
1532262597518007 1 -1 0 -2 -2 -5 -2 1
1532262597532967 -5 -3 -3 -2 7 -15 -5 -2
1532262597556903 0 -1 -5 1 15 19 2 0
1532262597592807 -4 -4 -7 -8 -1 2 -2 -3
1532262597638684 -1 -1 -2 -1 12 -2 -1 0

1532262597667606 -1 -4 -1 -10 -8 3 0 0
1532262597685559 -6 -5 -20 3 16 -2 -9 -11
1532262597708498 -1 3 -6 23 24 11 7 -3
1532262597737420 -3 1 27 -10 -15 -3 8 5
1532262597772327 3 3 0 -3 -25 0 14 0
1532262597796263 2 3 -3 -17 -21 -4 10 1
1532262597826183 -6 -9 -32 -27 -2 1 -13 1
1532262597887020 4 -42 -7 15 41 16 -6 -12
1532262597893005 -3 0 -10 -10 31 12 0 5
1532262597939879 -4 7 1 5 -33 18 10 -8
1532262597952844 -6 -81 -13 3 23 -15 8 6
1532262598006700 -7 26 6 -20 -26 -7 -1 -12
1532262598012684 0 14 -4 -22 -67 -15 4 1
1532262598036620 2 24 0 -3 55 0 -12 2
1532262598072524 0 -1 3 11 -5 -4 -3 3
1532262598081503 0 21 3 -10 -1 -1 10 3
1532262598119399 0 -7 3 19 -7 -5 11 4
1532262598132370 0 6 4 5 -16 0 0 0
1532262598149319 -3 3 1 -6 26 -12 -6 -3
1532262598179238 -1 0 2 7 9 -8 -9 -13
1532262598197191 4 4 -7 0 42 -3 -3 9
1532262598216140 3 1 -8 -45 4 -3 5 -1
1532262598253041 -2 -4 -15 -31 -1 -7 -3 5
1532262598276978 0 -5 -2 -6 -19 2 5 3
1532262598321857 -1 -1 -4 2 -16 2 0 -3
1532262598358759 0 -8 3 12 -3 -3 1 -1
1532262598381697 1 1 2 9 10 4 1 0
1532262598418599 -2 4 -1 -3 0 0 2 3
1532262598441538 -3 -2 1 3 1 1 0 -2
1532262598487415 0 -8 -1 1 -2 -2 -1 2
1532262598503372 -1 4 -1 -4 -3 0 0 -1
1532262598538299 -1 1 -2 -5 -4 -3 -1 -1
1532262598557250 -4 2 -1 -1 -3 -8 -2 0
1532262598608114 -1 -2 -3 -2 29 23 -4 -3
1532262598635041 2 2 -2 -8 4 -54 1 -2
1532262598703857 -7 -7 -2 -5 -5 -2 -4 -5
1532262598726797 -1 -3 2 5 17 27 2 1
1532262598748738 -6 -5 -4 -2 -65 13 -8 0
1532262598770685 -1 1 2 -1 -2 7 1 -13
1532262598780653 6 -1 -5 -4 -16 -40 1 16
1532262598832513 -1 -3 2 3 24 11 5 -1
1532262598839525 -5 -3 -3 -2 -27 -30 -7 -3
1532262598862457 0 0 -1 -3 -2 -10 -5 -3
1532262598884398 -3 0 -1 -4 -6 -17 -5 -3
1532262598900372 -1 -1 -1 1 -5 -2 0 -2
1532262598923294 14 -4 -3 -2 -5 -7 0 7
1532262598959198 0 -3 -2 -1 0 6 4 -1
1532262598981139 -4 1 0 -2 0 0 3 -3
1532262599004077 -1 -1 -1 -2 -2 7 -1 0
1532262599019038 0 -1 -1 -1 1 11 4 -1
1532262599041976 -12 0 -2 1 -1 -1 0 -9
1532262599054942 0 -1 1 -1 1 0 -1 1
1532262599086857 -1 0 -1 -2 -4 -11 -6 -2
1532262599116777 3 -3 -2 0 0 1 -2 -2
1532262599122761 0 -1 -2 0 -2 -6 -1 -1
1532262599145700 -1 -1 -1 -1 -2 -1 -1 -2
1532262599184595 -2 -2 -3 -2 0 -2 -4 -2
1532262599213518 0 0 -3 -2 -3 -1 -1 -2
1532262599220499 -1 -1 -1 -1 -1 -5 -5 -1
1532262599326217 -1 -2 -2 -1 -1 5 2 -1
1532262599381070 1 0 -1 0 0 -1 -1 0
1532262599419969 0 0 -1 -1 -3 -3 0 0
1532262599430937 -1 -2 -2 0 -1 -3 2 1
1532262599446893 -1 -1 -1 -1 -1 -1 -2 -2
1532262599475817 -2 -2 -1 -3 -3 -1 0 -1
1532262599633396 -2 0 -2 -3 -1 -4 -1 0
1532262599664312 -2 -2 0 -2 -2 -6 -6 1
1532262599695230 -1 -1 -2 -1 0 0 1 0
1532262599702211 -5 -3 -2 0 -3 -4 -3 1
1532262599738115 0 -1 -1 -1 0 -7 0 0
1532262599761053 1 -1 -2 -1 0 -1 0 -2
1532262599836851 -1 -2 0 -2 0 -4 -3 -2
1532262599926611 0 -1 0 -1 -2 -3 -8 -2
1532262599950547 -2 0 -1 -1 -1 -1 2 2
1532262600115107 0 -1 0 -1 -1 -1 0 -2
1532262600167973 0 -1 -1 0 -2 -6 1 -3
1532262600227806 0 -1 -1 -2 -2 0 1 1
1532262600249747 -4 -2 -3 -1 0 4 -1 8
1532262600309587 2 -1 -1 -2 -2 -6 -1 -3
1532262600361448 -3 0 0 0 0 -4 -4 -2
1532262600481127 -4 -3 -1 -1 -2 2 -2 -1
1532262600511048 -2 -2 -2 -2 -2 -6 -7 -4
1532262600608787 -2 -1 -2 0 0 0 2 -2
1532262600646686 -2 -1 -2 -2 -2 1 -3 0
1532262600669624 0 1 -2 -2 -2 1 -5 0
1532262600791299 0 -1 -2 -3 -2 7 6 1
1532262600818227 -6 -3 2 1 1 -1 -4 -3
1532262601014702 1 0 -1 -2 -1 -3 -2 -2
1532262601098478 2 -1 -3 -2 -1 -3 -3 -1
1532262601149341 0 -1 -1 -2 0 13 -3 -1
1532262601352805 1 1 6 -3 -7 -13 -2 -1
1532262601358781 2 -2 -16 -7 5 10 -4 -1
1532262601426600 16 3 4 3 -3 4 16 24
1532262601449538 -3 0 -1 3 7 9 -3 28
1532262601501400 5 -2 -3 1 -10 -16 -18 13
1532262601516360 -1 -6 4 6 -4 14 -13 1
1532262601616094 -4 -2 -5 -7 -9 -16 18 5
1532262601638035 5 2 2 -2 -4 3 -1 -46
1532262601657982 29 5 1 -15 11 -2 -2 -92
1532262601688898 -15 -1 -2 5 -6 -18 7 8
1532262601733778 -10 -7 -8 -2 14 -9 -27 7
1532262601756738 8 -3 7 -1 2 14 82 26
1532262601915292 -13 -1 1 -7 6 -8 -7 -12
1532262601931251 8 3 -1 -8 -3 -20 28 22
1532262601973161 -24 -3 0 2 -2 -4 -41 -60
1532262602012034 9 -1 -4 -5 -8 -15 2 -47
1532262602033976 -5 0 -1 0 13 13 22 69
1532262602087832 -6 -2 -9 -17 -37 -29 -5 -10
1532262602162632 8 -26 -7 -20 -11 -4 12 24
1532262602171608 14 -43 -38 -18 -5 9 -10 -4
1532262602205517 -15 19 -19 -8 0 31 5 -8
1532262602251395 1 12 26 34 9 30 -35 -21
1532262602274333 -6 -12 -10 4 -2 6 13 46
1532262602311234 -3 -11 3 5 -5 -21 16 11
1532262602371074 -11 -3 -4 2 0 4 -55 -55
1532262602485784 3 12 2 1 2 3 35 4
1532262602506712 -2 0 -2 2 -2 -13 -21 -29
1532262602591493 -4 -13 -2 -3 1 4 3 -39
1532262602655314 -1 1 0 -2 -2 2 1 8
1532262602673276 0 -7 -2 -5 -4 -18 -5 -2
1532262602685246 2 43 -7 0 1 9 -10 -6
1532262602731112 1 -13 -14 -4 -1 -9 2 -2
1532262602754049 13 -6 -1 -4 6 0 -3 10
1532262602791949 -9 -3 -4 -5 8 1 0 -9
1532262602804924 -8 -15 10 4 17 8 7 12
1532262602881709 -1 15 6 4 -18 -7 -4 -5
1532262602904647 4 26 -6 -7 -4 -2 0 0
1532262602956509 1 12 0 5 9 -1 -3 -3
1532262603062226 -2 31 6 1 3 4 -14 -3
1532262603114087 3 -4 7 7 26 47 13 38
1532262603135031 10 -4 1 13 4 7 -6 -7
1532262603164951 2 -10 2 -7 -6 -13 -3 0
1532262603210829 4 -3 -11 -8 -28 -20 -11 3
1532262603302583 -5 -10 -5 1 -6 -1 2 1
1532262603354445 -7 -27 3 -4 -6 1 13 2
1532262603422263 2 -16 6 2 2 -5 6 -7
1532262603459165 -1 39 2 5 -3 -9 2 3
1532262603466145 -5 -26 -6 3 -2 -12 15 -4
1532262603490087 -3 -9 -1 -6 0 -5 -19 -11
1532262603504045 -1 -14 1 1 -2 -2 5 -1
1532262603533964 3 20 10 4 3 3 11 23
1532262603572860 1 10 1 4 -1 -4 11 10
1532262603593805 8 33 3 1 3 14 -47 1
1532262603631703 -1 1 -2 -2 -4 -2 9 1
1532262603653645 -1 -1 5 -4 -5 -1 7 -13
1532262603692540 0 38 -7 -5 -4 3 1 12
1532262603728445 -4 18 -5 -10 -4 -1 16 -29
1532262603765346 -1 -27 4 2 -2 -2 -11 -35
1532262603791277 -4 -44 1 4 -1 1 -4 13
1532262603825186 1 10 2 2 -2 -9 2 3
1532262603848125 -3 10 2 3 1 -6 -1 -17
1532262603878044 -1 17 -4 0 0 2 -8 -8
1532262603907965 0 0 -2 -1 0 2 6 7
1532262603930903 -3 -13 -1 -1 0 -6 -6 2
1532262603953842 -5 -59 -14 -1 -6 -12 -3 -4
1532262603976781 -1 5 -2 1 2 12 -6 -11
1532262604028642 2 9 2 -1 2 12 1 -3
1532262604043602 0 9 -4 1 -1 14 -1 5
1532262604089480 -3 4 0 -1 -4 -41 -10 -5
1532262604111421 -1 5 -2 -4 14 -10 6 -2
1532262604156302 16 9 5 2 6 7 4 -4
1532262604194199 2 9 3 -7 -34 -3 11 24
1532262604230103 -9 -28 -1 -6 10 -29 -4 -8
1532262604277975 1 -15 2 15 27 46 6 4
1532262604308893 24 7 2 2 11 -17 4 6
1532262604314876 -49 11 5 -1 -1 -20 -6 -5
1532262604343798 11 0 6 0 -25 -39 -2 -22
1532262604390673 -3 23 -6 -17 -15 -41 -17 -17
1532262604413618 -1 -10 1 7 7 16 -4 6
1532262604470460 -10 7 3 3 8 35 4 -22
1532262604628039 -8 6 0 -7 -28 -8 4 -9
1532262604675910 -4 1 -1 -2 17 13 -5 -29
1532262604709820 -13 14 -3 -2 -25 -2 3 5
1532262604733756 3 -2 8 18 17 16 -14 8
1532262604757692 1 -2 1 1 17 -1 -8 -27
1532262604794594 -85 -21 -7 2 -3 -13 20 24
1532262604870391 34 -2 1 -1 -42 -55 -15 0
1532262604908290 9 -3 -2 -7 -24 -25 -2 -3
1532262604967132 -5 -7 -2 -2 11 14 -4 -5
1532262604982092 -7 -14 -7 -23 1 2 -3 29
1532262604996055 13 14 -9 -7 -13 -8 20 -35
1532262605025975 -8 0 -3 0 27 17 -10 13
1532262605033953 -2 7 5 6 1 0 5 -4
1532262605063874 6 7 2 4 -48 -39 -22 -3
1532262605093794 -40 7 -2 -4 0 4 8 -19
1532262605222449 2 -3 -2 -2 1 -2 10 8
1532262605246386 -1 2 0 2 4 8 -14 -41
1532262605319190 4 21 2 -7 2 -11 -6 1
1532262605364071 2 12 -4 4 -2 3 -16 -28
1532262605394988 -5 42 13 2 9 10 9 -4
1532262605424908 3 -18 0 -5 0 12 -1 -1
1532262605462807 2 14 3 3 -4 -10 -2 -3
1532262605485746 -2 43 0 -7 -11 -8 -5 -5
1532262605499708 5 18 9 2 11 14 -1 12
1532262605523654 5 -18 2 46 4 -27 2 0
1532262605604427 -4 3 -6 -20 -1 2 10 -13
1532262605648310 -1 -16 -10 15 -10 -28 -16 -3
1532262605710145 1 -5 4 6 6 -12 11 2
1532262605777964 3 5 19 16 0 27 1 -10
1532262605810876 1 3 2 15 -12 6 -2 2
1532262605821847 13 2 -16 -18 2 -5 4 25
1532262605842791 -15 3 -19 -10 0 2 0 -7
1532262605883682 5 16 4 -1 8 11 -2 5
1532262605905623 -3 -14 -13 0 -4 -1 4 5
1532262605942524 -3 -5 19 20 5 14 2 -13
1532262605972444 6 -4 -4 -6 19 11 -3 -28
1532262606008348 -5 7 5 8 5 -6 -20 19
1532262606035276 0 1 -1 4 1 -20 4 5
1532262606055223 -14 -12 -3 -3 -3 -6 -1 -47
1532262606075169 -6 -5 4 26 7 -5 -3 -3
1532262606122060 -8 -4 -3 -6 3 -7 5 4
1532262606143985 -11 -4 -2 -1 0 1 4 8
1532262606181884 1 2 -1 -10 -5 3 0 -1
1532262606256684 2 -3 -2 -4 -29 -61 5 -4
1532262606271643 -2 -1 -2 -2 -9 -21 -10 -2
1532262606303558 -10 10 0 -5 -4 7 -12 -4
1532262606339462 1 0 2 -1 -6 -79 -14 -5
1532262606360406 0 -1 -4 -2 -39 -14 1 -6
1532262606398305 -1 -6 -2 -1 -89 -23 -2 -1
1532262606421243 -2 -7 -7 -4 13 -26 -10 -6
1532262606466124 -4 0 -1 1 21 -34 -2 2
1532262606489063 -3 -4 -6 -2 21 39 7 -6
1532262606594786 -16 -2 -1 -4 35 11 -5 -25
1532262606616720 6 -1 -1 1 15 -16 -5 9
1532262606698502 -3 -1 -2 -2 -5 1 -2 0
1532262606766321 18 -2 -2 -3 -2 0 -1 0
1532262606813196 -4 -1 1 0 2 -1 -1 0

1532262606827158 -3 0 -1 -2 -2 -10 -6 -2
1532262606833142 7 -2 -3 -3 -4 -4 -9 -9
1532262606879019 -4 0 0 -1 -2 -1 3 1
1532262606888425 -2 -2 0 2 -2 1 -4 -2
1532262606917349 2 -1 -2 -2 -1 -16 -17 -3
1532262606938293 1 -2 -2 -1 5 13 9 7
1532262606961233 16 -2 -2 -3 -2 -12 0 3
1532262606983213 -8 -1 0 0 -4 1 -4 -4
1532262606998175 -1 -2 -1 0 1 7 -6 1
1532262607021113 -4 0 -1 0 26 -2 -13 -2
1532262607051033 -1 0 0 1 -2 -3 -3 -3
1532262607102894 -3 0 -1 0 -6 1 1 -2
1532262607140793 8 -1 -2 -3 -9 -4 -1 2
1532262607171710 -8 1 0 0 4 1 1 -5
1532262607185673 0 -3 -2 0 1 -4 7 1
1532262607260487 -1 -2 -1 0 1 -1 -3 1
1532262607284423 -1 0 -1 -2 2 6 0 -1
1532262607336285 1 -1 -1 0 -2 7 7 4
1532262607355234 -11 -2 -1 -1 -2 -2 -4 -7
1532262607375181 -2 1 0 0 -2 1 5 -4
1532262607420061 2 0 -1 -1 0 -6 -11 -2
1532262607427042 -5 0 0 -2 0 -1 -3 -1
1532262607464185 -2 0 -1 0 -4 -4 3 -4
1532262607478147 -3 -1 0 0 -2 -4 -9 0
1532262607501086 13 -2 -2 -3 0 -1 1 2
1532262607524052 -3 -1 -1 -3 -1 -5 -3 -1
1532262607545992 -2 -1 0 -2 -2 2 -1 -4
1532262607567934 -2 0 -2 0 0 0 -2 -2
1532262607606829 -2 -1 -2 -3 -1 -2 3 1
1532262607628771 1 0 0 -2 1 11 3 1
1532262607651710 -4 -2 -1 0 0 -2 -1 7
1532262607657693 0 1 0 -1 -3 -6 7 -5
1532262607717534 -3 -2 0 0 -1 0 -2 -2
1532262607763411 0 0 -2 -2 -2 0 -2 -1
1532262607823250 11 -1 -1 0 0 -1 -6 -1
1532262607942931 -5 -2 -1 0 0 -2 2 -4
1532262607988808 0 0 -1 -1 0 2 0 -3
1532262608033688 -1 -1 -2 -2 0 2 1 -1
1532262608064606 0 -1 1 -1 0 4 -1 -1
1532262608086547 -2 0 -2 0 -1 -1 -2 -1
1532262608100510 0 -1 0 -2 -1 -3 -4 -1
1532262608139405 1 -2 1 -1 -1 -4 3 32
1532262608185283 -2 -1 -4 -4 -2 2 3 -4
1532262608206227 -4 -1 1 -1 -1 -4 0 -1
1532262608237153 2 0 2 0 -1 -2 1 -10
1532262608255096 1 1 -3 -2 -4 -6 1 0
1532262608280030 2 -1 0 0 -1 -1 -4 -4
1532262608311944 -3 -1 -2 1 0 -4 -3 -5
1532262608363806 -1 -2 -2 -2 -2 -1 -4 0
1532262608393725 2 -2 -1 -2 -2 2 0 0
1532262608431624 0 0 0 -1 -1 -4 0 -2
1532262608453565 1 0 -2 -2 0 2 -1 -3
1532262608476504 1 0 -3 1 -1 1 -1 -2
1532262608589214 0 0 -1 -1 0 -1 -7 -4
1532262608627101 -1 -1 -2 -2 0 -2 -5 0
1532262608686941 0 -2 -1 -1 -1 -5 -2 0
1532262608768723 0 -1 -1 -1 -1 7 8 6
1532262608859480 -13 1 0 -2 -1 -14 4 6
1532262608903363 0 -1 -1 -2 1 -2 -1 -1
1532262608963203 0 0 -2 -1 -1 2 1 -1
1532262608987148 1 -3 0 0 0 4 4 -2
1532262609061938 -1 0 0 -1 -1 -4 -12 -2
1532262609114797 -1 -2 0 0 -1 0 1 1
1532262609188600 -2 -1 -1 0 -3 -6 1 1
1532262609279357 4 0 -2 -2 -3 8 0 -6
1532262609362136 -6 -1 -1 0 -1 -9 5 0
1532262609428957 -1 0 -4 -3 -1 -18 -4 -1
1532262609488797 -1 0 -2 -1 -2 -1 7 -1
1532262609736136 -4 -5 -6 -3 -2 8 -3 -3
1532262609872771 -1 -4 5 20 -11 -14 -6 -4
1532262609910669 -2 -6 -13 -5 11 -5 11 7
1532262609945576 -1 -3 -4 -12 0 12 41 37
1532262610014391 9 4 3 7 4 -8 -48 7
1532262610037330 -8 -4 -8 -10 -7 -21 32 2
1532262610172968 -2 1 1 -1 -1 -1 11 -11
1532262610194909 1 2 -3 -1 -2 -18 -31 -11
1532262610231810 -7 -1 -7 -19 7 -19 -42 -43
1532262610254752 0 1 1 -1 2 -20 26 40
1532262610291650 -8 -10 -9 -11 -9 -10 14 11
1532262610315586 -21 -5 14 11 7 5 -52 -28
1532262610351503 11 10 3 16 4 38 17 5
1532262610365453 0 -7 0 4 -2 -26 -54 -5
1532262610419309 7 -2 2 3 -2 10 8 52
1532262610488125 -7 -1 1 4 -2 -23 10 -5
1532262610510066 -3 -2 0 1 -3 28 -25 1
1532262610561941 -16 -2 -2 -4 -8 -7 24 -7
1532262610591847 -4 -3 -3 -1 2 0 -2 9
1532262610636728 3 -3 0 4 3 8 18 3
1532262610658669 -5 -2 0 3 -1 1 22 11
1532262610681607 11 -2 -4 -7 -1 -16 -17 14
1532262610718509 -3 12 2 1 0 -19 19 -2
1532262610742445 -1 -14 -12 -2 0 6 1 9
1532262610767378 -7 31 4 2 -4 2 -22 -61
1532262610788329 -2 -13 -7 -8 1 19 9 -21
1532262610839186 -5 -8 9 -12 7 19 -2 13
1532262610868109 -2 -4 4 -1 8 -6 23 27
1532262610927949 -1 1 7 -2 -11 -15 -18 -10
1532262610973837 1 -4 -3 2 2 -5 -15 6
1532262611028694 0 14 -2 5 1 -7 3 -14
1532262611080541 0 -6 1 4 2 11 12 -7
1532262611086525 -2 -3 -7 -9 -7 5 2 -27
1532262611116445 -1 -9 1 -3 -3 -11 -8 -7
1532262611140381 -3 3 3 11 12 12 8 -13
1532262611168306 -3 -11 -2 0 1 -17 4 0
1532262611319901 1 33 -7 -3 -4 -9 5 -1
1532262611342838 1 -13 1 3 -6 1 4 8
1532262611357799 -2 -20 -1 0 9 -5 -1 2
1532262611371762 -2 1 -11 -22 14 15 -7 -8
1532262611393703 -2 4 -8 -1 4 4 -1 6
1532262611416642 1 4 -6 -9 -36 -21 -2 -6
1532262611445565 -1 -36 -4 -1 5 4 12 5
1532262611471495 -5 -17 1 -10 15 0 -5 -10
1532262611476482 -4 3 4 3 16 7 -21 -29
1532262611530338 1 -29 0 -4 8 9 9 5
1532262611553276 -2 18 -4 1 11 1 1 4
1532262611581202 -1 -2 -4 -5 0 13 42 4
1532262611604140 3 1 7 12 7 -2 -10 -1
1532262611649020 0 -23 -1 -8 0 -8 -16 1
1532262611686919 -6 21 3 6 -7 -5 -12 -16
1532262611708860 -8 -11 -14 -9 -10 -21 65 -4
1532262611730802 0 -7 1 -6 -5 14 -22 1
1532262611744764 0 -10 1 2 0 22 1 2
1532262611845495 -2 -12 -5 -3 2 -2 -9 4
1532262611874418 -1 -6 5 9 3 -6 0 7
1532262611905335 0 -15 -2 0 -2 2 -5 3
1532262611934258 0 -21 -5 -5 -1 -6 -12 -1
1532262611956199 0 4 -3 -11 -3 2 8 7
1532262611970162 -2 50 2 7 -1 -4 -3 1
1532262611994097 0 -7 -6 -1 0 -1 -2 1
1532262612017036 -2 -11 -5 -5 -1 5 4 3
1532262612046956 -1 -11 -1 0 -1 -6 -14 7
1532262612067900 1 1 0 -3 -2 2 4 -6
1532262612087846 0 36 7 -4 -4 -6 16 7
1532262612106796 -3 10 0 1 -1 -4 -11 3
1532262612115773 -2 -35 -2 4 0 2 -1 2
1532262612158658 0 3 1 -1 -1 4 -15 -8
1532262612181596 2 0 4 1 -1 -6 11 2
1532262612210519 -1 -12 -3 1 0 -7 6 -13
1532262612256396 4 31 7 5 -1 1 5 2
1532262612315239 0 -22 -4 -11 -3 -4 -13 6
1532262612368098 -2 4 -4 -2 -3 -4 3 10
1532262612430932 3 16 -2 0 -2 -3 -4 1
1532262612452872 0 23 -7 4 0 1 3 -15
1532262612518703 -2 -1 -2 -6 -1 -1 1 2
1532262612579532 1 13 1 1 0 -1 -14 -2
1532262612601474 -4 8 6 6 0 -3 0 -9
1532262612660316 -1 -6 -1 -1 -2 -1 -4 6
1532262612715170 -1 -21 -1 2 0 1 -3 -5
1532262612773024 0 -9 1 4 24 34 1 -1
1532262612796951 6 -6 -5 -1 10 -11 -4 -3
1532262612818892 -10 5 4 4 -13 -21 -1 -14
1532262612871751 -3 3 -1 -2 -5 -34 -7 0
1532262612901671 12 16 5 -7 -80 -31 2 7
1532262612952535 4 -1 -5 -11 43 11 8 -2
1532262613015366 -4 -23 -4 -1 -20 -22 -2 -11
1532262613029329 -2 -47 0 -5 -19 8 0 -16
1532262613036311 -2 -12 0 -2 -25 -25 4 40
1532262613059249 -17 6 0 5 24 4 -6 -1
1532262613089169 -14 -10 -1 2 -13 -8 -7 -21
1532262613163969 0 -4 0 2 8 15 12 -7
1532262613227804 3 4 -2 -2 -6 -12 -2 -12
1532262613247745 7 7 9 7 17 16 4 -1
1532262613261708 -10 -11 2 -4 -9 -16 -5 -5
1532262613312571 11 0 -1 -4 -14 10 -9 -15
1532262613335511 4 -8 -1 1 -11 1 -13 1
1532262613366428 3 -6 -3 -9 -6 -21 -8 0
1532262613419287 10 15 6 -1 2 8 -6 6
1532262613441228 5 -2 2 4 -7 25 4 6
1532262613486108 -4 -4 -3 5 20 15 10 22
1532262613520017 14 7 2 1 2 9 -16 8
1532262613575868 13 -2 -2 -3 1 0 -4 -7
1532262613598807 -10 6 0 -2 -2 -6 7 -16
1532262613632716 -4 -26 -2 1 -7 -7 5 -7
1532262613680588 -4 -18 4 3 3 -1 -5 -2
1532262613705528 11 9 -8 -6 -1 1 6 -13
1532262613740428 -1 35 1 -7 -8 -5 -11 -7
1532262613794284 16 -42 3 1 -6 -12 0 1
1532262613826198 21 9 0 6 3 2 0 10
1532262613839164 3 21 10 5 0 -1 -3 -52
1532262613920945 -1 0 2 -9 -2 -2 -7 0
1532262613943884 0 2 -4 -11 -3 0 -11 0
1532262613995745 -17 -2 -5 0 1 -2 5 -6
1532262614103469 0 0 7 -7 -1 -4 -1 -3
1532262614124401 8 0 -4 6 2 2 -2 4
1532262614142353 3 0 1 -1 1 3 3 0
1532262614161302 1 0 -5 -9 3 -2 -6 -1
1532262614184241 -2 18 9 2 -1 -3 4 -3
1532262614243084 -2 -9 -2 -2 2 -8 -8 -3
1532262614350796 0 -2 -2 -1 0 0 3 0
1532262614402657 -1 -6 0 9 0 2 0 -1
1532262614460503 -3 8 -3 -4 4 -2 -3 -1
1532262614483441 -1 11 3 0 -3 -1 -2 1
1532262614679916 0 1 0 -7 -2 -2 2 0
1532262614700859 -11 -4 -2 -4 -3 -1 -3 2
1532262614723798 0 -4 3 -5 -4 -28 -13 -4
1532262614798598 -3 -5 0 0 16 7 5 -4
1532262614881377 5 3 -2 14 1 17 7 2
1532262614938231 -4 0 1 -1 14 -2 -8 -1
1532262614964164 -6 1 0 -1 4 -14 -5 -5
1532262615001056 3 -3 -1 -3 -1 -7 1 10
1532262615068875 2 -1 2 1 1 1 3 4
1532262615083835 0 -3 -3 -1 2 3 -6 -1
1532262615136694 6 -2 -1 0 0 0 -6 -4
1532262615183568 -1 -3 0 -1 -2 -7 -17 -3

1532262615277318 2 7 12 5 8 14 4 0
1532262615301254 -3 -2 -5 -6 2 -4 -1 -1
1532262615386027 -3 -4 -8 -11 -52 -10 -5 -3
1532262615489749 2 -12 10 28 3 2 1 8
1532262615564390 -12 -5 -5 0 -18 -3 -4 -2
1532262615586331 8 -14 5 56 4 2 0 3
1532262615646171 -12 -23 -10 -16 -18 -20 2 -1
1532262615729947 2 3 4 8 -6 20 -8 -3
1532262615779814 8 34 -3 7 -7 -5 6 6
1532262615826725 -5 2 -10 -28 4 -2 2 -2
1532262615909504 -1 5 4 -5 -16 -6 0 -1
1532262615961364 -3 -1 -1 -8 -5 -5 1 0
1532262615993280 -1 -3 -2 -1 8 -5 -3 -4
1532262616035169 -2 -6 -1 -8 -7 0 -3 0
1532262616109968 -18 7 5 2 8 -1 0 -6
1532262616230657 -1 -5 -3 -2 0 7 0 -2
1532262616338356 4 0 -1 -1 -4 4 2 -3
1532262616449061 -17 -12 -4 -3 -10 -44 4 -1
1532262616530568 2 0 -4 -3 -12 -12 5 1
1532262616599651 -1 -2 -2 -2 -6 -5 2 -1
1532262616681443 -3 0 0 0 -2 -25 -2 -5
1532262616741273 -1 -1 0 -2 -3 -3 10 1
1532262616854969 10 6 -2 1 -2 -6 -4 0
1532262616876910 -9 -5 -3 -3 0 4 2 11
1532262616902840 6 -2 -2 1 0 5 -6 -1
1532262616928771 -2 0 -3 -2 1 12 4 -5
1532262616951710 -8 -1 -1 -3 -2 5 3 -3
1532262617019529 12 0 -1 0 -1 4 -1 9
1532262617064409 0 -1 -2 -2 -2 -6 -1 -2
1532262617094328 -6 1 -1 0 -1 7 4 -9
1532262617125246 -2 -1 -1 -2 1 -10 3 8
1532262617147188 2 0 -2 -2 -2 -1 -3 -3
1532262617169136 -6 0 1 -1 -1 -6 -6 1
1532262617207028 1 -4 -2 -2 -3 -9 5 6
1532262617265870 -2 -2 -1 0 2 6 -1 -1
1532262617296787 1 -2 0 -1 -4 -16 -3 0
1532262617356628 -2 -4 0 0 -1 -5 -2 -3
1532262617370590 -4 -1 -1 -3 -3 0 0 -4
1532262617440404 -4 1 -2 -2 -1 -4 1 -5
1532262617455363 0 0 -1 1 -1 -2 -5 1
1532262617469325 -2 -1 -2 -1 -2 -13 -2 0
1532262617491267 6 -2 -1 -1 -1 0 -7 -3
1532262617529166 0 -2 0 -1 1 -4 6 0
1532262617582024 3 -3 -3 -2 0 3 -5 2
1532262617589006 -4 -2 -1 0 0 1 4 0
1532262617627906 -2 -1 -2 -1 1 5 2 -1
1532262617649843 4 -2 -2 -2 -3 -2 -5 2
1532262617673780 -4 -2 0 0 -1 -1 -6 -5
1532262617715667 -4 0 0 -1 -1 -5 7 -4
1532262617769523 3 -2 -2 0 0 2 -2 -1
1532262617791464 -6 0 -1 -2 -1 10 -4 -2
1532262617874244 -5 -1 -1 -1 -2 4 0 -3
1532262617934083 2 -1 0 0 -3 -11 -9 1
1532262617940078 -6 -1 -3 0 -1 3 3 1
1532262618031822 -3 1 -1 0 0 -3 -4 -1
1532262618128563 21 -2 -3 -3 -2 -8 -4 -6
1532262618152499 -7 0 -1 -2 2 4 -8 -14
1532262618198377 -4 -1 -2 -1 1 0 -2 -4
1532262618249241 -10 0 1 -1 -1 1 1 -9
1532262618288137 -7 -3 -1 -2 -2 -4 -5 -6
1532262618367922 -4 -1 1 0 -1 -1 -2 -6
1532262618413800 3 1 -1 0 -1 -3 1 8
1532262618458684 -7 0 -1 -2 1 3 -1 -3
1532262618496579 3 -1 -4 -2 -2 1 2 -1
1532262618570382 -9 -1 0 0 1 0 0 -8
1532262618608280 17 -2 1 -1 -2 1 2 6
1532262618631218 -9 -1 -1 -2 0 0 -2 -3
1532262618683081 -1 -2 -1 0 6 15 2 -3
1532262618708014 -7 1 1 1 0 0 1 -7
1532262618727960 -12 -1 1 0 0 21 -3 -9
1532262618742920 2 -2 -1 -2 -1 1 3 -1
1532262618773856 3 1 -1 0 -4 -13 -4 6
1532262618803758 0 -1 -2 -2 -1 -4 -3 -5
1532262618841656 3 -1 0 1 -2 -14 -8 0
1532262618856619 1 -2 -2 -1 -4 -4 5 3
1532262618894515 18 -1 -1 -3 -4 -21 -4 -4
1532262618907481 -4 0 -3 -2 -1 5 -4 -3
1532262618961337 -4 -1 0 0 -1 0 -4 -1
1532262618984278 0 -3 -2 0 3 18 0 0
1532262619030152 3 -5 -3 -2 1 3 -6 -1
1532262619117917 -1 -3 -4 -5 -37 12 -2 -29
1532262619149832 -7 -1 5 -1 9 -7 4 7
1532262619177758 15 3 -3 -42 -22 7 37 55
1532262619195727 -4 -1 4 17 -19 -8 -62 -4
1532262619218648 -3 -3 -6 -10 2 4 14 23
1532262619240589 -5 -3 4 8 -1 -8 -1 -18
1532262619313395 -3 3 3 -5 15 1 -16 -28
1532262619413128 3 -4 4 12 9 9 25 30
1532262619428088 6 5 4 -5 4 -2 -8 27
1532262619435070 2 -5 -4 6 -1 -3 -12 -13
1532262619463992 17 4 -1 -3 -1 21 -22 65
1532262619494910 1 0 0 0 -2 0 -8 9
1532262619516863 -13 1 4 9 9 20 18 -8
1532262619546771 19 3 -4 -7 3 -9 -4 21
1532262619575694 -7 1 0 -8 -12 9 15 -8
1532262619629549 -4 5 5 12 0 1 43 7
1532262619675427 2 -1 0 -11 4 18 18 -5
1532262619697368 -3 -5 -8 -11 -4 -5 -18 -10
1532262619734270 -1 -9 0 6 15 2 -16 -5
1532262619764195 -1 -4 -1 -10 -4 -16 -9 -21
1532262619787128 2 7 -2 -3 -7 7 7 8
1532262619801090 -1 -1 0 -1 -1 9 -12 3
1532262619817047 11 -1 1 -1 -2 -8 5 18
1532262619838989 -9 -15 -3 -3 -6 -2 20 -37
1532262619882872 -2 -13 -4 -5 -2 -2 3 6
1532262619908807 1 11 2 -5 -9 -58 35 23
1532262619967645 -2 2 -1 -2 -2 6 3 0
1532262619990584 -3 -2 -1 5 7 12 -32 -18
1532262619996568 0 -4 -2 -2 -5 -32 -7 1
1532262620072378 -1 -39 -5 5 0 -10 -4 8
1532262620086327 -5 6 -2 -5 2 3 5 -23
1532262620101287 9 8 -3 -12 1 -25 -6 30
1532262620118243 -29 -55 -9 -1 -4 18 2 -40
1532262620141181 5 -6 -5 -1 -2 -12 -25 -5
1532262620160131 1 4 -8 -29 -6 26 8 16
1532262620184066 4 17 5 -11 -6 -13 -8 2
1532262620230946 -4 -7 -4 -14 -7 -10 -30 -25
1532262620273840 -1 4 -1 -10 14 -10 -8 -2
1532262620296766 3 2 7 13 2 -5 -9 -10
1532262620341645 1 -1 0 -7 -4 20 24 17
1532262620386525 1 0 1 4 3 13 -16 -3
1532262620423434 -2 -3 -1 1 2 -1 6 -5
1532262620478280 1 -2 1 -1 -1 6 -7 -11
1532262620506214 -1 -2 -4 -3 -2 0 19 6
1532262620544103 1 2 3 -5 -5 8 6 15
1532262620582002 -2 2 1 7 9 24 1 -4
1532262620596962 1 -1 -1 -2 -4 -7 -13 0
1532262620618904 1 4 4 3 0 -7 -18 6
1532262620632866 1 2 -1 -1 1 4 -5 -19
1532262620641842 3 -5 -7 -4 -8 -18 7 7
1532262620687730 1 -11 0 3 -2 -7 3 0
1532262620692707 0 0 -8 -10 -1 -6 1 2
1532262620715645 -2 -3 -5 -15 -3 -2 4 -6
1532262620731602 8 84 14 -7 4 1 -6 -9
1532262620752547 -18 -32 7 -4 10 1 -8 -21
1532262620775485 1 -32 -7 -1 6 -1 1 -2
1532262620799421 1 13 6 15 -19 0 -2 1
1532262620836322 8 -6 -11 -7 -63 -12 -3 2
1532262620858264 -4 -1 3 0 12 -3 9 1
1532262620904141 1 -7 -8 0 19 5 -2 -7
1532262620926082 0 23 7 12 2 -1 -4 2
1532262620964978 -4 -24 -12 8 5 1 -4 3
1532262620993907 5 35 4 -6 -6 -1 -1 2
1532262621039784 -3 -11 -7 6 -1 -1 -4 -4
1532262621062723 -7 -26 -1 1 -1 -3 -4 4
1532262621077683 -1 -17 3 -4 -8 -11 3 -1
1532262621098627 0 -13 4 9 14 54 -58 -5
1532262621120568 0 -13 -2 -2 1 11 -10 -11
1532262621158466 -3 -9 -1 -1 -2 3 2 -1
1532262621182403 -2 6 0 1 -2 -4 12 -9
1532262621249224 -2 -30 1 3 4 -1 -3 0
1532262621264184 -1 -11 -9 -4 -3 0 18 -8
1532262621297096 -2 -38 -6 4 -1 -11 5 3
1532262621360926 0 28 6 0 4 8 -23 -15
1532262621398823 2 12 14 10 1 -1 3 4
1532262621435726 -1 -16 1 -3 1 -5 7 4
1532262621480606 0 5 -5 -6 1 9 -9 -2
1532262621496563 -3 -12 -3 0 -3 1 5 1
1532262621518504 -2 2 -1 -4 -2 0 2 0
1532262621540445 0 8 4 0 -2 -17 2 -2
1532262621556402 0 0 0 0 1 1 1 1
1532262621594301 -1 6 -2 -5 -1 3 9 -3
1532262621609261 -4 -2 -1 -1 -2 -2 11 3
1532262621638184 0 0 -1 2 2 -4 -3 3
1532262621698023 1 17 3 -1 2 6 -9 -2
1532262621767838 0 5 3 1 3 -5 4 2
1532262621803741 0 7 0 2 0 -2 5 0
1532262621840656 1 49 6 3 -4 -4 9 -3
1532262621878541 -2 -18 0 -1 0 2 -3 -1
1532262621938381 -4 -7 -4 -5 -9 10 -3 -2
1532262621977277 -9 -3 1 1 -30 -7 -1 -6
1532262622044098 -15 2 0 -2 -4 53 -2 -3
1532262622058061 -26 -3 -4 4 2 -4 3 -3
1532262622103938 8 -3 -1 -7 -18 -3 -1 1
1532262622186717 -8 -4 -4 -6 -29 -25 3 46
1532262622238579 -2 -15 -6 -3 -3 22 -2 7
1532262622260519 5 5 3 4 9 -3 3 -11
1532262622298419 -2 -3 7 5 -7 3 -1 -8
1532262622343298 -4 -9 -10 -23 -47 -34 -7 -11
1532262622382194 4 3 0 -3 34 23 -13 1
1532262622406131 3 1 -2 -3 -50 -11 5 4
1532262622449015 -5 4 -8 -8 -3 1 -7 -4
1532262622568696 -2 6 5 -3 -10 -12 -21 0
1532262622613576 4 -15 -3 2 20 4 -2 -18
1532262622660451 12 5 1 -2 -4 2 -24 3
1532262622706327 8 -5 6 3 8 5 -10 3
1532262622764173 6 7 3 4 0 -1 0 -4
1532262622860915 3 -47 1 -1 4 11 5 2
1532262622897815 -3 -4 -3 2 -4 -3 1 1
1532262622995554 1 -2 1 3 3 -3 -8 -8
1532262623064384 2 2 -4 -2 2 -10 -8 1
1532262623111245 -2 3 -7 8 -6 -14 1 -4
1532262623148146 -3 -1 1 -13 7 14 -5 -3
1532262623213970 -1 -10 6 19 -7 -18 -14 -1
1532262623228931 3 25 23 26 3 -14 9 2
1532262623281790 2 93 47 32 6 11 0 -1
1532262623326670 -1 -15 -8 -7 1 -12 3 -1
1532262623340631 1 14 0 -2 1 11 2 -1
1532262623364576 -1 -19 -8 -8 -1 2 -6 -2
1532262623387506 0 -7 -2 -2 -2 -3 -3 6
1532262623400472 -6 -36 -7 -5 -2 -17 -1 -4
1532262623446349 1 50 6 -3 0 6 -7 0
1532262623460311 2 -2 1 2 2 1 -1 -8
1532262623484248 -3 -2 -3 -3 -6 -5 -4 -3
1532262623505192 -1 -4 -3 0 11 12 2 -4
1532262623520151 -1 -6 -7 -7 -4 -3 -1 0
1532262623576002 -1 -4 -9 -10 2 7 -1 -2
1532262623604925 -1 2 1 1 -2 -5 -2 -1
1532262623609912 -1 -3 -3 -5 2 4 -1 0
1532262623671746 -1 0 0 2 -10 -27 -1 -2
1532262623685708 -1 -1 -1 -1 2 14 6 -2
1532262623716626 0 1 3 5 -1 2 -1 -1
1532262623754525 -3 -3 -3 0 -10 -24 -2 1
1532262623783448 -1 1 0 0 4 0 -1 -1
1532262623820349 -3 1 -1 -4 -4 -6 -11 -4
1532262623835309 0 0 1 1 2 15 2 1
1532262623880189 -1 4 3 8 -3 -2 7 -1
1532262623903127 -1 -5 -2 -6 22 31 2 -2
1532262623927063 -1 -5 -1 -6 -33 -26 -4 -2
1532262623950002 -3 -4 -2 -3 34 39 -3 -1
1532262623962967 1 1 -4 -12 -24 -5 1 2
1532262623986903 -3 -1 -4 -7 -9 -57 -9 -2
1532262624008845 11 4 -2 0 11 35 9 0
1532262624032780 -12 0 1 2 5 -16 -5 5
1532262624070679 -3 -2 -3 1 15 28 -9 -17
1532262624093626 8 -1 0 -5 -12 -8 -6 2
1532262624114562 -1 1 -1 0 -3 3 1 16
1532262624129521 -1 -3 0 1 -5 -46 -5 7
1532262624166423 0 -3 -2 1 11 22 4 -3
1532262624189363 2 0 0 1 -5 -2 -12 8
1532262624234242 -2 -2 -4 0 -3 3 6 2
1532262624271143 0 -4 -2 -1 -1 9 7 -1
1532262624302061 -3 -3 0 -2 0 9 3 3
1532262624368882 -1 0 -4 -1 -2 -7 2 2
1532262624378855 -1 0 0 0 -1 2 -2 -4
1532262624451660 -5 -1 1 -2 -3 -7 4 1

1532262624556380 -1 -1 -2 1 -1 -1 -1 0
1532262624610246 1 -1 -3 -1 -3 3 -1 2
1532262624649132 -3 -3 -2 -1 -1 -3 -8 0
1532262624669079 -3 -1 0 0 1 6 0 -2
1532262624683079 0 -2 -4 0 -1 -4 -5 -3
1532262624707031 1 0 -1 -1 -1 -2 1 1
1532262624728810 -1 -1 0 -1 -3 4 4 2
1532262624742772 0 -1 -1 -2 -1 8 7 -2
1532262624788650 -3 -1 -1 -2 0 1 0 -2
1532262624802612 -2 -2 -2 -1 -2 1 -2 -1
1532262624833530 -3 -3 -1 -4 1 0 -7 0
1532262624858465 -1 0 -2 -1 0 -1 -1 4
1532262624895364 -2 1 -1 1 -1 -1 -2 -4
1532262624908329 0 0 0 1 -2 -4 0 -3
1532262624955204 -1 -2 -2 -2 -1 -1 -2 0
1532262624975151 0 -1 -1 -1 0 9 1 -2
1532262624993103 7 -2 -1 -1 -1 -4 0 3
1532262625029007 -7 0 -1 -1 0 -1 0 -2
1532262625051959 -4 -2 -1 -1 0 -5 -11 -1
1532262625073887 2 0 -1 -1 -2 -4 2 -2
1532262625089844 -4 -1 -1 -1 -1 -1 4 1
1532262625111786 1 -2 0 0 -1 4 8 -4
1532262625157664 16 -1 -1 -2 1 3 2 2
1532262625202542 1 -1 0 -1 0 0 -4 -2
1532262625225484 -4 -1 -1 0 -3 -2 1 0
1532262625269364 -1 0 -1 -2 -2 -5 -2 0
1532262625291305 -2 0 -2 -1 -2 -5 -1 1
1532262625351145 -2 -1 -3 -2 0 4 -1 -2
1532262625403007 -1 -1 -2 -1 -3 0 0 8
1532262625449881 1 -1 -1 0 -2 1 2 -3
1532262625510719 -1 -1 0 -1 -2 -3 2 -3
1532262625517700 -2 -1 -1 0 -1 0 5 -2
1532262625545625 0 -1 0 0 1 0 3 0
1532262625599481 -1 -1 0 0 -1 3 -2 -4
1532262625605465 0 -2 -1 -1 -1 -2 0 1
1532262625673284 -2 -1 0 -1 -2 3 5 -1
1532262625779999 1 0 -1 -2 -1 -4 0 -1
1532262625794958 -3 -3 -2 -2 -1 -1 -2 -2
1532262625838841 -2 -1 -2 -2 -1 0 -14 -4
1532262625876740 -2 0 0 -1 -1 -3 2 -1
1532262625891699 -4 -2 -1 -1 -1 3 0 -2
1532262625913641 -2 -2 -1 0 -1 -4 -1 2
1532262625973481 -1 0 -1 -2 0 -3 -8 -3
1532262625980463 0 -1 -1 -2 -1 -1 -4 -2
1532262626059253 -1 -2 0 0 -1 -2 -1 2
1532262626108121 -2 -2 0 1 0 -7 0 -5
1532262626176936 -2 -3 -1 -3 -1 -2 5 2
1532262626191897 1 1 0 0 1 -2 -14 0
1532262626213839 2 -1 -1 0 -1 9 11 1
1532262626288639 1 1 -2 -2 -1 -1 0 -3
1532262626318558 -1 -1 -1 -1 -2 5 3 -3
1532262626371424 -2 -1 0 0 -4 -5 2 -2
1532262626416311 -1 -4 -2 -1 -3 -6 2 2
1532262626454210 0 -1 0 -1 0 -10 0 -1
1532262626522029 -1 -1 -1 -1 1 8 -13 -6
1532262626590853 -2 1 -1 0 0 10 5 2
1532262626619768 -2 -3 -1 -2 -2 4 5 0
1532262626694586 -1 -1 1 -1 0 1 -4 0
1532262626724502 -2 -1 0 1 -1 4 8 -5
1532262626822226 0 0 -1 0 0 -4 -2 -4
1532262626868103 1 -2 -3 -2 -1 0 0 0
1532262626898023 1 0 0 -1 1 4 8 -1
1532262626924951 -2 -1 -1 -1 -1 0 0 0
1532262626956865 -1 -1 -1 -2 -1 -5 -6 1
1532262627008727 -2 -2 -2 0 -1 0 4 -2
1532262627031666 1 -3 -1 -1 0 8 -8 0
1532262627100481 0 -1 -3 -1 -1 -2 -1 -2
1532262627146359 -8 -2 -2 -2 -3 -3 1 2
1532262627151346 0 -2 -1 -1 -3 -2 -3 -2
1532262627196226 1 -1 -3 -1 -3 -5 -7 -3
1532262627234124 -1 -2 -2 -2 -2 4 -1 -3
1532262627285986 -3 -1 -1 -2 -3 -3 -1 -1
1532262627361782 -3 -15 -3 -6 12 7 0 5
1532262627378738 7 -21 -9 4 -12 -4 2 -1
1532262627382728 4 27 -1 -5 5 14 3 32
1532262627421623 -1 -11 -5 1 -40 5 -4 0
1532262627436583 -1 3 14 18 19 -15 2 -4
1532262627450545 -3 -10 -10 -6 18 12 -3 6
1532262627510385 5 0 -2 -2 -2 6 6 4
1532262627540306 1 3 -5 -2 -14 -1 17 -3
1532262627564241 1 6 1 0 -1 1 -18 -53
1532262627624081 17 4 -1 3 12 -1 16 43
1532262627660984 1 -6 -11 -13 -7 -7 17 25
1532262627729799 -6 0 1 0 -1 -51 -11 -46
1532262627737778 -17 -7 -5 -5 -8 -4 7 -14
1532262627758722 3 3 1 4 5 -12 28 24
1532262627773682 -6 -11 -7 -9 -8 3 -3 -4
1532262627796621 -5 3 4 1 -21 0 -2 -37
1532262627818562 -4 -8 2 -2 11 14 21 -55
1532262627856461 3 7 -1 3 11 -21 -45 0
1532262627862444 -4 -2 -6 -9 -1 1 30 18
1532262627900343 -5 0 -1 -2 4 1 6 29
1532262627931260 -2 1 -4 -2 1 23 -6 -4
1532262627969159 8 2 1 2 -5 -8 0 12
1532262627986114 -1 3 3 -6 -8 -13 -28 -55
1532262628015051 1 0 0 9 -3 1 -12 48
1532262628074876 -8 1 0 1 -5 -1 -52 -29
1532262628158665 -2 3 22 15 -2 -71 22 -4
1532262628238454 -5 -1 -3 0 -16 31 1 -19
1532262628292294 -3 -8 -2 -1 11 16 -13 -15
1532262628337191 0 -2 -2 1 4 15 -13 -18
1532262628358119 -3 0 -2 2 2 2 -27 -18
1532262628419954 -2 0 -2 -4 20 22 7 -9
1532262628440897 2 8 -2 -3 1 0 -18 -33
1532262628465831 -4 -4 -3 1 0 -10 -39 1
1532262628502732 -6 -18 -2 -8 -15 -23 9 16
1532262628547612 7 34 3 -3 3 -1 8 10
1532262628562572 -4 -2 -3 -1 -1 18 -3 -10
1532262628598476 -6 -12 1 11 -7 -37 -40 0
1532262628620417 2 -13 -1 -1 -5 8 36 3
1532262628636384 -5 37 -9 -10 2 22 -37 -46
1532262628698210 3 1 5 -12 -2 -35 20 14
1532262628704194 -4 -8 -2 12 2 12 38 0
1532262628741094 -9 -1 17 30 7 -9 12 -31
1532262628760044 2 2 -10 -17 0 17 26 35
1532262628777995 0 -2 1 9 9 7 9 -1
1532262628815894 1 -11 -1 -7 -7 -23 -8 -4
1532262628975468 -3 -1 0 -2 -4 38 7 6
1532262628995415 -3 3 -3 -4 1 20 -11 -9
1532262629050268 -4 17 -6 -1 -3 -9 10 -3
1532262629055254 -2 -5 1 -4 -11 -17 -16 -10
1532262629101131 -2 -13 3 -1 1 2 -8 -15
1532262629126065 -5 6 7 3 1 -3 -2 -2
1532262629160971 -4 12 1 -4 1 31 5 4
1532262629198870 0 13 -5 -5 -4 11 24 -32
1532262629257713 -1 -2 1 0 -1 44 -5 0
1532262629310571 -3 -17 -2 3 -1 -13 -8 -8
1532262629386381 0 -15 -9 -3 0 10 -3 5
1532262629461169 -7 -22 -2 0 11 6 -7 -6
1532262629557911 6 25 -4 -4 -11 -15 -3 -6
1532262629582844 -6 5 0 -7 2 -8 -1 -7
1532262629640689 -7 16 2 -3 -5 -2 17 22
1532262629663628 -2 -31 -4 -4 -9 -5 15 18
1532262629724465 4 16 9 -2 7 3 26 15
1532262629806258 -5 -36 -7 -3 -5 -7 -41 -21
1532262629858108 -2 -44 -7 -2 -1 -3 6 2
1532262629912961 -3 -5 0 0 -1 -2 -23 -10
1532262629940887 -6 -15 0 3 -14 -1 -5 -25
1532262629963825 0 -6 1 -3 4 2 -4 15
1532262630060566 1 7 2 -2 2 6 9 14
1532262630084502 1 -9 1 4 6 5 -7 16
1532262630106459 0 13 1 4 -1 -4 -1 7
1532262630144342 1 1 5 2 -1 -3 12 2
1532262630158305 -1 7 0 -2 -4 -3 -9 -2
1532262630189222 1 -19 -1 -1 -9 -11 -27 31
1532262630211164 2 68 6 -1 1 5 9 -5
1532262630233104 1 8 -3 -4 -4 -2 -4 -10
1532262630264022 -2 -11 1 4 1 -3 -17 3
1532262630300924 0 19 -8 -1 -3 2 2 4
1532262630331840 -1 -2 5 3 1 0 3 -5
1532262630338822 -1 -4 -2 0 2 -1 -15 -37
1532262630405644 -1 9 1 -5 -2 -3 -1 7
1532262630429579 -3 -8 0 -2 -1 0 -25 -53
1532262630474459 1 9 -4 2 -3 -8 -1 12
1532262630495404 -4 5 3 -3 -1 -1 -1 -22
1532262630534300 -2 -6 -5 2 -3 -3 -3 9
1532262630564220 4 11 0 -3 0 7 -11 4
1532262630586160 2 -6 -1 -2 -4 2 -8 19
1532262630617079 1 0 2 0 0 8 9 9
1532262630668940 -2 -59 -3 0 1 2 16 -1
1532262630690881 -5 -10 2 -3 6 6 10 -22
1532262630708833 1 -11 -2 1 2 -1 -37 -13
1532262630773672 1 15 -2 0 -2 -1 -6 13
1532262630811558 1 0 -2 -4 1 0 1 -7
1532262630817542 -4 -6 0 -2 -3 1 15 -3
1532262630840480 0 28 -1 1 -5 -2 12 19
1532262630886358 2 10 -1 -1 -2 0 -1 14
1532262630915280 -2 0 -1 -1 -3 -5 -11 -6
1532262630963152 2 3 2 0 1 5 -8 -6
1532262630986091 -1 6 1 -1 0 20 1 -1
1532262631007036 -4 -17 -1 1 -3 -7 -6 -2
1532262631051916 -3 -5 -3 -1 2 7 -1 -1
1532262631079841 0 4 3 5 0 -3 -23 -9
1532262631149655 2 -5 1 -3 -37 -8 8 2
1532262631194544 0 -6 -1 -1 28 45 10 -2
1532262631209494 -6 4 3 5 25 14 4 -9
1532262631262353 -3 -13 -1 -2 -24 -25 -11 -4
1532262631306236 -22 -10 -8 -5 4 -24 0 14
1532262631367073 -16 2 0 1 -32 -9 2 2
1532262631425915 4 -6 -3 -8 -17 -1 -3 2
1532262631448854 6 9 1 0 -41 8 1 4
1532262631495729 25 -6 -7 -8 28 6 -3 -16
1532262631509692 0 6 -4 5 3 7 -7 -3
1532262631538613 -2 -2 2 0 16 -11 -10 -1
1532262631560555 -4 -3 -4 -8 -7 -3 0 -4
1532262631598453 2 -10 -3 -2 -20 -19 0 27
1532262631612422 4 1 1 -4 -64 -16 -11 1
1532262631638347 2 -7 2 -3 -3 1 -6 -15
1532262631650315 -5 4 -3 0 51 13 -6 -5
1532262631689212 -3 35 -2 -6 -9 -17 1 -10
1532262631703173 -1 -49 -6 -1 -15 -35 -2 -4
1532262631726113 -12 -15 -3 -4 -53 10 -9 6
1532262631749052 0 2 -5 -10 17 7 7 5
1532262631771990 -4 4 1 3 2 30 23 -1
1532262631801909 -2 -4 1 -2 25 -14 -7 5
1532262631830834 3 2 -2 -1 -1 6 2 9
1532262631863744 -1 7 6 -4 39 11 7 1
1532262631877707 -4 -23 -9 -2 -12 0 -13 0
1532262631929569 3 -6 -2 3 -15 14 8 10
1532262631942533 -9 -1 -5 -12 -8 3 0 -10
1532262632012347 -1 4 3 6 4 -5 -1 -4
1532262632162945 -6 -7 -1 1 7 -6 -18 -6
1532262632206826 2 18 -1 -1 -1 1 4 -7
1532262632273648 10 8 -11 -3 -8 -1 9 -10
1532262632355430 -3 22 5 -4 2 4 7 -3
1532262632425255 0 2 1 15 2 -3 -8 -2
1532262632441200 8 -3 3 2 -4 -2 -2 7
1532262632460149 4 4 7 20 -3 2 2 -1
1532262632499046 -7 2 5 3 -18 -9 2 0
1532262632507025 0 -3 -13 -17 6 -2 -1 -2
1532262632543925 0 -4 -6 -2 -4 -2 -15 -3
1532262632580827 -11 -4 1 1 -45 -17 -12 -22
1532262632604763 -7 -1 -5 9 19 4 4 7
1532262632629696 6 2 1 -19 27 5 3 2
1532262632651638 3 -2 -12 -12 8 9 -2 -1
1532262632694523 -5 -18 -3 8 2 2 6 1
1532262632722448 2 3 -5 -13 2 -5 4 -2
1532262632769323 14 3 -1 0 -4 -10 -1 -3
1532262632791264 -4 -7 -5 -5 -3 -5 -1 -9
1532262632805227 -2 1 -4 -1 5 10 1 0
1532262632829176 -2 -17 -4 -6 -10 -5 0 1
1532262632852102 1 10 3 8 7 2 0 -2
1532262632865067 -7 -2 -3 0 3 -3 -1 -2
1532262632903963 -4 11 4 -2 -6 -1 5 0
1532262632911941 0 30 10 8 6 1 0 4
1532262632949840 -1 0 -7 -6 -4 -8 -2 6
1532262632971781 2 -5 -3 -1 14 20 -1 -4
1532262632993722 0 -2 -2 -3 -7 -7 3 3
1532262633031621 -3 -1 -1 0 2 -12 -1 0
1532262633045583 0 0 0 -3 -8 -25 -5 0
1532262633069519 1 -1 -1 1 -3 22 1 -2
1532262633105424 6 1 0 0 -1 3 5 -1
1532262633114405 3 0 2 2 2 7 -8 -2
1532262633151301 1 2 0 1 6 6 0 1
1532262633181221 0 -2 -2 -3 -10 -21 -5 -1
1532262633211141 4 5 -1 6 18 51 10 5
1532262633234080 2 7 2 -1 10 53 11 3
1532262633255024 -1 0 1 13 -12 14 7 1
1532262633284944 0 1 -4 7 -14 17 5 2
1532262633308880 2 3 0 -8 -9 2 2 -1
1532262633331819 -3 2 -4 -13 -5 -13 1 -4
1532262633344783 -2 -3 -2 -2 9 -12 1 -1
1532262633368720 -1 -4 1 10 2 -19 -1 0
1532262633398640 -1 -2 -3 0 -17 -42 -6 -1
1532262633413601 -4 -4 -1 3 46 2 -3 -1
1532262633442522 0 -1 0 -1 -25 3 -1 -1
1532262633460474 2 0 -2 -6 -12 -2 0 -1
1532262633511338 0 0 2 -1 -43 -1 -2 -1
1532262633540278 -1 -2 0 -1 -3 1 2 -1
1532262633571178 2 2 -3 -3 20 37 3 2
1532262633608079 0 2 0 5 9 -2 -3 -2
1532262633632015 0 -1 -2 -1 5 10 4 -2
1532262633693850 -5 0 4 0 -46 -4 -1 0

1532262633727760 -4 -5 -1 1 9 -19 -5 -3
1532262633758677 -2 -3 -1 5 15 23 3 -3
1532262633773638 -3 -2 -2 -4 -8 -22 -1 2
1532262633796576 10 3 2 1 7 8 3 0
1532262633834475 0 0 -2 -2 -5 -5 -3 -3
1532262633848467 1 -1 -1 0 -1 -5 -7 0
1532262633871397 -7 -3 -4 -2 -6 19 0 6
1532262633907318 -3 1 2 1 0 3 -8 5
1532262633955186 20 0 0 -1 1 -4 -8 4
1532262634009043 -3 -3 -2 -2 3 26 8 -4
1532262634036967 4 -1 -1 1 -6 11 -6 2
1532262634105783 -5 1 0 0 3 0 -2 -1
1532262634113762 1 -1 -3 -5 -4 -27 -3 -5
1532262634133708 4 -3 -3 -3 -2 6 -2 0
1532262634147671 -6 -3 -1 -3 -4 -12 5 1
1532262634178588 -2 -1 -2 -2 -2 -3 4 1
1532262634207708 0 2 -1 0 -4 -47 -2 3
1532262634255580 1 -1 -1 -1 0 13 0 -3
1532262634277521 -4 -3 -1 1 -1 -4 2 0
1532262634314425 2 0 -1 -2 -2 6 1 1
1532262634329383 -1 -2 0 -1 -1 0 -3 -7
1532262634351324 -1 0 -2 -3 -1 -1 -4 -10
1532262634434102 -1 -1 -2 -1 -3 1 -1 0
1532262634493943 24 -2 -2 -3 0 0 2 9
1532262634516881 -6 0 0 0 -2 -4 -2 -5
1532262634544807 -4 -2 -3 -1 1 2 -2 -2
1532262634591682 -7 0 1 0 1 -3 2 -2
1532262634599660 5 0 -3 -2 0 11 0 -10
1532262634658503 -5 1 -1 1 -1 1 2 1
1532262634674460 -2 0 -2 -1 -1 -5 -4 1
1532262634696402 -4 -2 -1 -1 0 1 -3 1
1532262634711362 -1 -1 -1 -1 -1 0 0 5
1532262634734300 0 -2 -2 -1 -2 -2 0 -5
1532262634780178 -1 0 -2 -1 -2 -3 -1 -2
1532262634803117 -2 -1 1 -2 -3 5 3 1
1532262634825058 -1 -2 0 -1 0 -2 0 0
1532262634830044 -1 -1 0 -2 0 -1 -1 -1
1532262634915815 -2 -1 0 0 -1 -2 0 -2
1532262634922795 -1 0 -2 -1 -1 0 0 -1
1532262634936758 0 0 2 3 1 0 0 -2
1532262634953724 1 -1 -2 -1 -1 0 -1 2
1532262634973660 -1 -1 -1 0 -1 -1 -1 -1
1532262634996598 -2 -2 -2 -1 -1 0 -1 0
1532262635010561 -1 -4 -4 -2 -2 -3 -2 -2
1532262635041479 0 2 2 3 1 1 -1 1
1532262635063421 0 -2 -2 -1 -1 0 -1 -1
1532262635085361 -1 0 -1 0 -1 -3 -1 0
1532262635101319 0 1 0 1 0 0 -1 0
1532262635130242 -1 -2 -1 -1 -1 0 -4 -2
1532262635155174 -1 0 -1 -1 -2 0 -2 1
1532262635176119 -2 0 1 2 -1 -1 -1 -2
1532262635192081 -1 -2 -1 -3 -1 0 5 -1
1532262635214017 1 -1 -2 -1 -1 -1 2 1
1532262635249922 1 0 0 -2 -1 0 0 -1
1532262635266877 -1 1 -1 0 1 0 1 -4
1532262635296795 -2 -2 -2 -1 -2 1 -3 -1
1532262635318737 -2 -2 -1 0 2 3 4 0
1532262635334708 0 1 1 -3 -3 -4 -5 0
1532262635356661 -1 -3 -1 -1 0 -1 0 -1
1532262635378577 0 -5 -5 -1 -1 -1 1 1
1532262635439430 0 2 -1 -1 -1 0 3 -2
1532262635470342 0 -2 -1 1 1 20 4 -1
1532262635500252 2 4 2 0 0 -49 -9 1
1532262635536156 4 0 0 0 2 10 3 -9
1532262635558097 1 7 -1 -2 -2 26 6 4
1532262635573068 -3 -2 -2 -2 0 -3 -6 -3
1532262635603974 -6 -2 1 5 0 -4 -6 -6
1532262635642870 1 -4 -3 -3 -4 15 3 6
1532262635678775 -2 0 -1 -2 0 -6 -1 -1
1532262635700716 -2 -1 -2 -2 0 1 -3 -2
1532262635775515 -3 -1 -3 -1 -2 6 4 -1
1532262635858294 -2 -2 1 1 0 11 1 -1
1532262635896193 -1 0 2 1 0 6 3 -3
1532262635904172 -2 -3 -3 0 0 5 -1 1
1532262636024848 -1 -1 -2 -1 -1 -4 0 -2
1532262636063745 -1 -3 -2 -1 -3 -4 0 1
1532262636112614 -2 1 0 0 -2 -3 -2 -1
1532262636195392 -2 -3 -1 -1 -3 2 6 -2
1532262636323052 0 0 0 0 -3 -6 -5 0
1532262636375911 0 -1 -1 -1 -2 0 3 -1
1532262636511547 -1 -1 -1 0 -1 -2 -5 -1
1532262636610284 -1 -2 0 -2 -1 -3 -2 -1
1532262636661148 -2 -1 -2 -1 -2 1 1 0
1532262636835681 1 -3 -15 -20 0 -3 -1 -1
1532262636856625 -6 -8 -12 -36 -29 -5 -2 -3
1532262636878566 0 0 10 -5 -23 -11 -61 -9
1532262636902502 4 3 -8 0 13 4 20 9
1532262636923446 -8 -5 -14 -4 2 -9 1 -20
1532262636961345 -1 -1 -5 1 -3 -14 6 5
1532262636991264 1 -2 -3 2 -16 8 0 -4
1532262637006241 -2 1 4 -7 -58 1 4 -1
1532262637028166 1 0 2 11 1 13 36 -2
1532262637111942 -2 -1 -2 -4 -1 8 17 -1
1532262637157820 0 -3 -1 6 6 -10 0 -2
1532262637201702 -7 -2 -3 -1 2 -8 -6 -16
1532262637224649 -8 -4 -1 -3 1 -10 -58 -32
1532262637238604 10 5 0 -5 -7 5 42 71
1532262637261541 -1 1 -3 -1 0 -5 7 48
1532262637283483 -12 -4 -3 -7 -6 21 -103 -23
1532262637337340 -2 -1 2 -1 -1 -5 48 30
1532262637359280 2 3 -1 10 3 3 6 27
1532262637382219 4 -10 -12 -7 0 13 2 6
1532262637404160 -1 9 25 24 16 -7 35 -56
1532262637436076 1 -2 -14 -9 -3 35 9 22
1532262637448043 3 -4 -20 5 2 20 9 38
1532262637477963 -3 4 20 77 17 3 16 -42
1532262637561739 0 0 4 -30 5 10 21 -5
1532262637607616 -1 0 8 -13 -6 -12 47 -29
1532262637658481 3 4 1 1 -8 15 -39 -11
1532262637682417 -3 1 6 5 5 16 12 5
1532262637691393 3 -1 -2 -10 -6 -15 12 9
1532262637712337 -1 -1 -5 -12 -6 -15 10 15
1532262637741259 -1 37 2 0 4 10 19 58
1532262637764198 5 -19 0 -1 0 -3 1 -5
1532262637778160 -1 -7 1 0 9 3 15 -10
1532262637817056 -2 -42 -4 -8 -1 4 -1 -4
1532262637838000 3 -16 5 -2 2 37 17 58
1532262637875899 -5 -10 -9 7 -7 -9 -19 9
1532262637914802 2 13 -4 4 5 14 41 -11
1532262637935739 -2 -5 -11 -13 -10 8 2 8
1532262637960673 2 5 -15 9 6 -36 -23 -5
1532262637988597 -1 38 2 7 -5 17 5 -6
1532262638040459 -4 4 3 1 20 20 5 18
1532262638064395 1 -12 -1 19 18 4 -12 24
1532262638107280 1 0 5 13 6 -1 37 10
1532262638185073 -5 -1 -1 12 -9 0 -8 -20
1532262638253888 -3 1 -3 -7 -10 -15 -23 -35
1532262638275830 -2 4 -4 4 -3 -14 9 10
1532262638304752 -2 0 -2 -2 10 0 2 0
1532262638326693 0 4 -2 -6 -3 4 2 -10
1532262638340657 -1 -31 -10 -6 -7 -11 2 6
1532262638385536 -7 -16 4 -3 -8 -12 -21 -37
1532262638411483 1 66 15 0 -6 -6 -6 -4
1532262638431413 -1 0 -2 -1 3 -1 -1 2
1532262638453355 -1 -21 10 4 7 3 14 -5
1532262638494245 -4 -15 -11 -16 -11 3 1 -17
1532262638507211 1 -44 0 31 4 10 2 -4
1532262638537131 5 13 22 77 12 -14 26 -25
1532262638543115 -8 30 -10 -17 -14 -39 -42 -22
1532262638567051 -2 1 -2 -3 1 5 6 23
1532262638588994 0 -3 -5 -1 5 7 -7 11
1532262638656826 4 4 7 -9 -3 -6 0 4
1532262638686730 -4 -1 1 11 9 -6 -4 -2
1532262638747568 -3 11 -5 -5 1 0 -12 -10
1532262638808405 -1 -15 -14 0 5 0 -1 -2
1532262638880213 -1 7 4 1 -2 0 -2 -4
1532262638904150 -3 -2 -1 0 -2 -24 -6 -7
1532262638926090 -1 -7 -3 -1 0 20 -6 -3
1532262638951028 0 14 -1 2 -2 -8 -1 -3
1532262639022832 -2 -8 2 0 2 1 -3 1
1532262639032805 -5 2 1 -4 -6 5 -19 -10
1532262639083670 -2 29 3 2 -2 -1 -22 1
1532262639113590 1 -23 -1 -1 -1 0 4 -2
1532262639143510 -1 -7 -9 -3 2 7 1 6
1532262639166448 -2 -14 4 4 3 6 0 0
1532262639210331 2 8 -3 -3 -4 11 -10 -2
1532262639243243 1 -5 -3 4 -6 -13 -1 -3
1532262639250224 -1 2 -2 -1 -6 -13 -3 -2
1532262639281142 -6 27 7 4 -5 -3 -17 -26
1532262639309067 -2 14 1 1 -1 0 10 13
1532262639346966 2 4 -4 -3 0 2 3 4
1532262639413786 1 18 6 1 0 2 -4 -5
1532262639436726 -1 4 2 0 -5 -3 6 -3
1532262639573359 0 -5 -1 -1 -1 -4 -1 6
1532262639588320 -2 15 1 -3 -5 -3 0 -3
1532262639623243 1 32 3 0 0 3 7 5
1532262639632203 0 9 -3 0 1 4 4 -1
1532262639669104 -5 -16 0 3 0 -2 4 -5
1532262639692042 3 -1 1 -3 0 0 3 -1
1532262639712986 -1 -11 -2 -1 0 -1 -3 -1
1532262639730939 -4 -32 -1 -1 -1 -3 -3 1
1532262639788783 0 -16 -2 -2 -1 -3 0 9
1532262639802746 -2 10 -1 -2 0 1 2 -1
1532262639863584 0 1 -2 -1 1 3 2 8
1532262639902480 2 2 -7 -3 -1 -3 -4 1
1532262639969301 -3 -4 1 -3 -4 3 -1 -5
1532262639999221 -1 38 3 -2 -4 -3 2 0
1532262640052080 0 5 0 -3 -2 -1 -5 -8
1532262640134858 1 13 3 -7 -1 -1 0 4
1532262640162784 1 -9 0 4 0 3 0 3
1532262640200683 -2 -9 -3 3 -5 -5 -5 6
1532262640212650 -1 4 1 1 -1 0 2 -2
1532262640245563 2 5 2 0 -2 1 -4 -2
1532262640269499 -2 1 -3 0 -1 11 -3 0
1532262640329339 -1 12 -1 -2 -3 -1 -2 -2
1532262640421107 -2 -1 1 -1 0 -5 -3 -1
1532262640501877 6 -1 -6 -2 46 31 -5 -12
1532262640553739 11 0 1 -1 -9 -9 0 10
1532262640631530 3 18 0 -7 -45 -43 -7 -1
1532262640726276 -3 -18 -2 -6 -18 -1 -7 -5
1532262640767168 -16 -23 -4 12 38 11 2 36
1532262640773158 -1 37 -2 -12 -17 -12 0 -1
1532262640794096 21 -21 -6 -7 28 5 -2 8
1532262640815040 -8 -7 0 -3 -5 20 2 -7
1532262640832992 -13 -11 2 6 53 23 -4 -8
1532262640892831 10 -11 2 3 43 33 3 12
1532262640943696 -1 15 3 -9 -59 -14 -1 -2
1532262640967631 3 3 -2 6 -12 -5 2 2
1532262640974613 0 -3 -1 0 1 -13 -5 -4
1532262641012511 4 8 0 2 -15 -12 8 12
1532262641033456 -2 -9 -5 3 13 10 -3 -9
1532262641072351 -3 -6 0 0 26 10 4 -11
1532262641093295 -18 1 2 -3 -4 -23 -7 -38
1532262641139173 0 0 0 7 42 17 -7 2
1532262641154134 9 0 0 -10 -61 -27 -2 -4
1532262641184052 -4 -16 -4 -8 14 8 0 7
1532262641229962 -2 4 6 4 6 13 2 7
1532262641250906 3 4 -1 1 -7 -10 -7 6
1532262641296784 12 -6 -4 -1 0 6 -7 0
1532262641334682 -3 -10 -5 -3 -9 -10 10 -8
1532262641371584 -3 5 -3 0 1 2 -7 -11
1532262641394522 -2 3 -3 -2 -2 -4 -5 -11
1532262641492261 -3 10 -1 -4 -4 -9 -11 -15
1532262641505226 17 -34 -7 -2 -1 -5 -3 -14
1532262641551103 7 -5 -3 2 8 13 7 6
1532262641576038 -6 -48 -3 -6 -1 -1 -5 -14
1532262641647845 -16 37 -1 -4 -4 7 4 -8
1532262641678772 0 -23 -2 0 4 13 4 7
1532262641723642 2 -3 -7 -2 -2 -14 -6 4
1532262641783482 25 -12 -11 -8 -8 -9 -1 5
1532262641790464 -1 0 2 -6 -5 -18 -3 3
1532262641891194 2 -3 -5 -5 -5 12 -5 6
1532262641911147 1 3 24 -1 4 8 -3 -7
1532262641935076 -4 1 -3 -5 0 0 -1 -1
1532262642045781 7 -2 7 3 -1 -18 -6 -4
1532262642123573 19 -2 9 6 6 11 -1 1
1532262642152495 -5 -8 -12 -12 -11 -9 -4 -4
1532262642168470 -7 -20 -12 -1 14 21 0 -14
1532262642196378 -10 -6 -6 -4 -4 -4 1 6
1532262642210340 0 -4 -2 2 2 0 -1 10
1532262642241258 -1 -31 -1 2 -1 -1 1 -6
1532262642264197 -3 0 -10 -6 2 6 -2 -4
1532262642317055 2 -6 -1 -1 2 6 1 -1
1532262642354954 1 4 -5 -3 1 7 1 4
1532262642385872 0 -2 -2 -3 -2 -1 1 -11
1532262642413796 -9 2 2 1 -2 12 4 4
1532262642443716 3 2 1 -2 -12 -20 -4 -2
1532262642473653 2 1 -1 -2 -12 -23 -4 -2
1532262642510538 2 0 -2 -2 -5 -6 -4 -3
1532262642564394 -2 -2 1 0 0 4 -10 -1
1532262642617252 1 3 0 1 0 -1 4 2
1532262642655151 0 -1 -4 0 25 -49 -21 -1
1532262642676095 -2 3 0 1 12 47 11 -1
1532262642709007 4 5 6 3 -2 2 -1 0
1532262642766852 2 8 7 5 12 -45 -20 3
1532262642780815 11 1 -3 -5 -9 0 -5 -10
1532262642840655 -7 2 -1 0 -5 -8 -7 5
1532262642926425 11 1 -1 0 15 15 -3 0
1532262642941385 -1 0 -2 -2 -9 -2 0 10
1532262642965322 14 -2 -1 -3 -10 0 -7 -2
1532262643021172 11 0 -2 2 -14 10 8 6
1532262643043114 -6 -3 1 3 6 -6 1 -5

1532262643103951 0 -2 0 2 0 2 2 -10
1532262643148830 -1 0 -3 0 3 3 4 1
1532262643215652 -3 0 1 1 6 -12 -16 -2
1532262643313391 -6 -1 -3 -2 -2 -17 1 -4
1532262643485930 -4 0 -1 -2 -1 19 1 -6
1532262643508869 0 -1 -1 -2 -3 -2 -9 3
1532262643560741 -3 -1 0 0 1 32 -9 -9
1532262643598206 -3 -2 -3 -2 1 -10 -12 -3
1532262643695945 0 -2 -2 -1 0 13 1 6
1532262643741822 1 0 -2 -3 -3 -6 -9 -6
1532262643793683 -2 1 0 0 1 0 -16 -1
1532262643815624 -1 -1 -1 0 0 -4 15 3
1532262643898403 2 0 0 -1 -2 -16 -9 -3
1532262643960293 13 -1 -1 0 0 1 11 10
1532262644005172 0 -2 -1 -1 1 -1 -1 -1
1532262644044068 0 1 1 1 1 8 2 -2
1532262644051050 22 -3 -2 -3 -2 3 -4 21
1532262644078974 -7 -4 -2 -1 0 -7 -13 -6
1532262644115876 -2 -2 -1 -1 0 4 -8 -3
1532262644161753 -4 0 0 0 -3 -4 10 -5
1532262644206656 -3 -1 -2 -1 0 -2 0 0
1532262644306372 1 1 -1 0 -2 -5 0 -2
1532262644378175 -5 0 -3 -1 1 2 0 -4
1532262644401113 -42 -37 -2 2 -2 -10 -1 -6
1532262644438014 31 33 1 -3 -2 -18 -13 1
1532262644474916 14 20 0 -3 1 52 20 1
1532262644498852 3 5 -2 -4 2 18 -13 -6
1532262644560686 -8 0 0 1 -3 30 6 -7
1532262644565673 -2 -2 1 0 -2 -22 -12 -4
1532262644588612 0 4 -1 -1 -3 27 11 3
1532262644627508 16 -2 -2 1 -1 -29 -3 0
1532262644658425 6 0 -1 -1 0 -35 -7 1
1532262644680376 4 -2 -1 0 2 -13 -3 -1
1532262644702308 -6 -3 1 -2 -2 -6 -2 1
1532262644724249 -2 -3 -1 -1 -3 8 -4 -4
1532262644738211 1 0 -2 -2 0 -11 -5 -2
1532262644761150 -6 -1 -2 -2 -3 -37 2 -1
1532262644784089 2 1 0 -2 -2 -2 -2 -3
1532262644829967 -1 -2 -1 1 1 17 -2 -1
1532262644845924 2 0 1 -3 -2 6 -2 1
1532262644857891 -5 -2 -2 0 1 21 6 -2
1532262644903769 -2 0 0 1 0 4 2 0
1532262644926708 -2 -1 1 -2 -4 -12 -11 -4
1532262645046388 -1 -2 -2 0 0 29 -6 -2
1532262645084286 -2 0 -1 -2 -4 -12 3 -1
1532262645153102 -2 1 0 2 0 -6 -4 0
1532262645204964 -3 0 0 0 -1 22 -3 -1
1532262645217929 1 2 -1 -1 -3 2 0 0
1532262645263806 -1 0 -2 0 0 -17 1 2
1532262645301705 1 -2 -1 -1 -1 2 2 1
1532262645361545 -2 -2 -1 -1 1 10 -2 -2
1532262645407422 -2 -1 -1 0 1 5 -6 -1
1532262645459284 -2 -2 1 0 -2 1 -5 -4
1532262645482222 0 -2 -3 -1 0 -9 -2 -1
1532262645542063 -2 -1 -2 -1 -4 -9 -1 -2
1532262645586950 -2 -1 -1 -2 1 -7 -18 -3
1532262645623844 -2 -1 -1 -2 0 -4 -4 0
1532262645652766 -1 -3 0 -1 -4 -1 0 -2
1532262645670718 1 -2 0 -1 -2 -6 0 -2
1532262645737540 -1 0 -1 -1 -3 -20 -6 -1
1532262645777433 1 1 0 0 -2 -11 0 1
1532262645811342 -3 -1 0 1 -2 -14 -1 -1
1532262645834281 1 3 -4 -2 -1 4 2 -2
1532262645903097 -1 0 0 0 -1 -5 -3 -1
1532262645923043 -3 0 0 1 -1 7 0 0
1532262646045732 -2 0 -1 2 -1 2 9 2
1532262646103560 0 -1 -1 -2 -2 -9 -5 -3
1532262646126499 0 0 -2 0 -2 1 4 1
1532262646216259 -2 1 -1 -1 1 8 1 -1
1532262646313998 1 -2 -2 -1 -2 -17 -2 -1
1532262646365859 -5 0 -5 -4 23 -5 -4 -7
1532262646388798 4 0 6 11 70 21 8 5
1532262646427694 -5 -1 -5 -2 11 5 0 -5
1532262646515459 -3 1 -3 -5 -19 -3 -1 0
1532262646540393 -1 4 -2 9 10 9 1 -1
1532262646560340 -3 1 -2 -11 -3 0 2 1
1532262646583278 3 19 -4 4 32 44 8 -4
1532262646606226 2 5 3 2 -7 -7 0 4
1532262646643118 -5 -5 7 6 18 14 3 1
1532262646667053 -9 -7 -1 2 -7 -19 5 8
1532262646688995 4 -6 4 4 -4 -3 5 2
1532262646709939 -3 -2 -6 -14 -7 0 0 0
1532262646727892 -3 2 1 2 -6 1 0 2
1532262646750829 -8 -2 4 7 -1 -6 2 2
1532262646769779 -1 -3 -4 -4 11 26 -1 -2
1532262646808676 -9 -1 5 39 -5 -40 -14 -38
1532262646823643 -4 -1 3 8 9 4 -13 -6
1532262646830616 -5 -7 -5 -10 -17 -19 -12 -19
1532262646869513 9 0 0 -1 1 -22 30 34
1532262646882477 -8 -3 -5 -2 -6 19 -8 -13
1532262646891454 2 4 -4 -3 2 -22 -28 -8
1532262646928356 -2 -1 3 -3 -9 -48 -80 -18
1532262646935336 -2 -2 -2 -1 10 -10 -12 9
1532262646966253 -5 1 3 4 1 13 5 8
1532262646989192 17 -8 5 -2 -10 25 9 -5
1532262647012131 -8 7 4 -7 -48 -19 -15 -49
1532262647101907 -1 -1 -7 14 15 13 62 -18
1532262647130825 -10 -3 0 18 10 -11 7 -10
1532262647162729 -2 1 -2 3 5 25 -41 14
1532262647191651 19 -8 -3 -1 -2 -60 -1 -5
1532262647208606 25 -7 -4 -3 -3 -2 24 -8
1532262647251504 4 3 0 -6 7 16 -8 7
1532262647266451 22 7 3 1 1 -16 -25 -25
1532262647303353 -14 -2 2 2 6 39 -29 9
1532262647335267 0 -3 -1 5 11 32 28 20
1532262647380147 -16 1 2 -5 -1 -10 19 -1
1532262647404083 1 14 4 -5 3 4 14 2
1532262647438989 13 -6 -3 -3 9 15 37 73
1532262647453949 -24 5 -4 -5 7 12 19 -9
1532262647482873 -1 5 7 -5 5 -15 21 98
1532262647505811 -1 -21 -11 -17 -10 -4 3 3
1532262647536728 -7 -3 0 -11 -8 1 -38 -45
1532262647551688 -8 -4 -9 -16 11 -39 -19 31
1532262647588589 -2 19 -2 0 -5 -26 -12 -20
1532262647627485 -5 -17 -4 8 14 18 14 19
1532262647658403 16 -9 -2 2 4 5 2 25
1532262647678350 8 -22 -11 -5 -13 -10 12 11
1532262647709266 -7 -14 -4 -2 -9 13 -7 -1
1532262647731208 -14 -10 -11 -12 -12 -8 11 -6
1532262647746168 -14 13 -11 -6 -13 -20 -23 -47
1532262647769106 -2 -16 5 -4 10 41 18 -3
1532262647813987 2 5 1 -2 7 -39 3 5
1532262647829945 11 -8 0 4 -5 3 2 9
1532262647873826 -1 -7 -4 -6 -6 -33 11 30
1532262647890781 14 -8 2 0 0 30 -4 28
1532262647936659 -3 0 1 1 14 30 -10 -40
1532262647957603 -5 6 -5 -4 -13 -14 34 21
1532262647964584 -5 37 4 1 5 19 19 14
1532262647980541 1 -7 0 0 5 -3 -13 -5
1532262648016445 -3 36 -3 -9 -9 5 3 -8
1532262648039384 0 -27 -4 -6 8 16 -3 -8
1532262648070302 -4 -12 -7 -9 -12 -25 -1 -1
1532262648098227 13 -8 6 5 1 13 5 3
1532262648131138 -7 3 -2 2 2 4 -13 -19
1532262648152083 -6 5 3 -3 -1 -23 -9 -13
1532262648173027 0 -12 -6 3 1 -1 15 15
1532262648182003 0 10 -11 2 -5 8 -11 -5
1532262648210926 -1 -5 4 21 1 -3 25 2
1532262648235858 -1 -6 -2 -13 -15 22 2 -4
1532262648271762 -3 -7 -9 -25 -16 4 -8 -4
1532262648331602 1 -4 8 5 3 36 18 9
1532262648421362 0 -36 -11 -1 2 -6 -4 8
1532262648475219 2 6 5 1 -1 -11 6 15
1532262648536056 -3 14 0 -2 -3 -11 6 0
1532262648550019 41 -51 -4 1 -1 -3 -5 15
1532262648571960 3 -5 -2 1 20 -5 -21 3
1532262648593902 -1 -40 -4 -4 18 -4 7 -3
1532262648608861 1 -8 1 0 -24 -1 1 -1
1532262648644766 -5 2 -1 -5 -3 -6 -8 -8
1532262648657732 1 1 2 2 16 5 2 0
1532262648721561 -2 -35 -11 -7 -3 -2 18 2
1532262648752477 -8 -5 -6 -3 -4 0 -5 -21
1532262648757464 -1 6 -1 -4 -3 -2 2 2
1532262648775431 2 7 -1 -2 -8 -7 -7 3
1532262648796360 -3 -41 -9 0 2 -1 5 -2
1532262648813314 0 -1 -1 -2 0 2 10 4
1532262648871160 -3 1 -5 -1 -6 4 -2 6
1532262648915043 -2 2 -1 -1 -2 -4 2 9
1532262648932999 0 5 1 2 0 3 5 10
1532262648968914 2 3 0 -1 0 0 0 10
1532262649021757 -1 -1 1 0 2 6 4 9
1532262649043699 1 3 -2 -4 -1 -1 3 10
1532262649057661 0 -13 0 -1 3 0 3 13
1532262649134457 -4 -2 0 -1 0 2 -3 6
1532262649147422 0 1 0 0 -1 -1 15 -3
1532262649292595 2 10 1 -1 3 2 3 -13
1532262649327502 1 2 -3 -2 -2 2 6 8
1532262649350440 -3 -9 -1 2 -1 2 -2 2
1532262649396318 0 7 -3 -4 0 0 2 0
1532262649417262 0 45 4 -1 3 -1 8 3
1532262649463140 -2 14 0 -3 -1 1 -18 3
1532262649502035 2 10 1 0 -2 -2 -13 -7
1532262649553896 -1 -5 -3 -4 -2 0 -4 -1
1532262649622723 1 -9 -4 -5 -3 0 -1 4
1532262649704493 -4 13 -4 3 -3 -3 -4 -5
1532262649779293 -2 2 -3 -2 -1 -4 -4 -1
1532262649839134 -2 8 4 0 -3 4 5 0
1532262649884014 -1 7 -1 0 -4 -3 -1 -2
1532262649935875 -2 2 1 2 0 -3 -2 -3
1532262649981774 -3 -1 0 -3 -5 -4 -10 -5
1532262650318872 -1 9 -2 1 1 -2 0 2
1532262650408633 -2 -2 0 -5 2 9 -1 3
1532262650424590 -1 -5 -2 0 -1 -3 -2 0
1532262650447529 0 8 -5 -7 -5 0 0 -2
1532262650536291 -22 -4 -3 2 10 38 -3 -6
1532262650612089 28 14 0 -11 -48 -78 -12 -22
1532262650663950 1 -56 -4 -5 -40 -16 -1 1
1532262650770665 0 12 2 5 26 13 3 4
1532262650798590 -1 4 4 17 -10 -23 -5 -12
1532262650821528 -7 -3 -6 -11 1 7 -3 -1
1532262650835491 -3 -6 -11 -5 29 7 -6 -11
1532262650883363 9 -9 -4 3 -16 -37 0 12
1532262650896329 -6 5 13 8 -27 -1 1 -5
1532262650935224 2 -21 0 -4 -18 0 0 -10
1532262650957166 9 6 -2 -9 -28 -11 -6 -8
1532262651003043 -7 -1 2 -4 -13 -10 -3 -3
1532262651046926 -5 -10 1 -1 -4 -15 -8 2
1532262651098788 4 -3 5 -5 0 1 11 6
1532262651280301 8 -5 -1 0 5 13 -3 6
1532262651292269 10 -10 -6 -8 -1 -5 -1 -16
1532262651377043 21 48 4 0 9 12 -2 -7
1532262651421924 3 -12 -10 -9 0 -1 -1 4
1532262651443865 5 15 1 0 3 8 -2 8
1532262651488745 -13 4 -2 -6 -4 12 -3 -4
1532262651593464 -17 -6 0 -4 2 -2 0 6
1532262651609422 -3 -5 -8 -11 -4 -12 -7 -9
1532262651646322 -8 3 0 -2 -1 -8 -4 -11
1532262651661283 6 -3 -3 -3 2 -3 -2 -1
1532262651714142 6 1 5 6 1 7 1 4
1532262651738078 4 -5 1 3 2 -3 1 2
1532262651819859 -3 -3 -5 18 1 -7 4 -1
1532262651841805 1 13 -5 -4 -2 -16 -4 -9
1532262651902638 8 -6 -14 5 1 6 1 5
1532262651910621 -20 6 9 5 -2 1 2 12
1532262651939539 0 -27 5 -10 -5 -12 -9 -9
1532262651961480 -3 -9 -16 5 4 7 -2 -8
1532262651975443 -26 -22 -7 -11 -5 -2 3 -2
1532262652014339 1 -4 8 1 3 -3 -1 -1
1532262652028302 -2 -8 0 -4 -1 3 -2 -2
1532262652044259 -1 45 3 -3 -1 -2 -2 -4
1532262652060217 -1 -24 -5 -9 -4 7 -3 0
1532262652097118 7 5 7 11 1 -2 3 -6
1532262652135016 1 27 -5 -3 -1 3 -2 -3
1532262652157960 0 12 -1 -5 -1 -9 0 1
1532262652201838 -6 -14 -3 -1 -1 0 -3 -1
1532262652237741 0 2 -1 -2 -5 -7 0 -4
1532262652261678 -1 -3 -3 -2 -1 3 -1 1
1532262652306564 1 0 -2 0 2 3 0 -3
1532262652321524 -3 -3 -2 -1 2 9 0 0
1532262652343465 -2 -4 -2 1 0 -5 -4 -1
1532262652350446 1 3 2 2 -1 5 4 0
1532262652389342 -1 -1 4 16 -3 3 5 0
1532262652411284 1 0 2 5 -10 12 11 2
1532262652464142 1 1 0 -1 22 13 -3 -1
1532262652478105 0 2 -5 -16 -14 2 -2 0
1532262652485087 1 -2 -1 -1 3 -33 0 0
1532262652531961 -2 -1 -4 -12 -35 25 0 2
1532262652545924 0 -5 1 8 40 22 6 2
1532262652587812 -2 -1 -2 0 21 37 3 2
1532262652607775 -2 0 0 -5 -6 -42 -16 -5
1532262652646655 -3 -4 -1 1 36 2 3 -1
1532262652650644 0 -1 0 0 -16 -20 -9 -4
1532262652688543 0 -2 -2 -2 -8 -2 -3 -2
1532262652771321 -1 1 -1 -1 4 11 0 0
1532262652794259 -3 -1 1 0 -4 -6 0 -4
1532262652831161 -3 -2 -1 -1 9 11 -3 -2
1532262652891002 0 0 -1 0 -4 20 0 -1

1532262652957823 4 0 0 -2 -8 -53 0 17
1532262652988740 -11 -1 0 -1 -8 9 6 -6
1532262653003699 -21 -2 -2 -1 -6 -48 -15 -28
1532262653017663 -5 -1 -1 1 44 7 -2 -3
1532262653064537 2 0 -1 -1 1 7 -3 5
1532262653094457 2 -2 -4 -3 -9 6 -14 -3
1532262653139337 7 1 3 1 -4 17 -2 -2
1532262653170255 -1 0 -1 -4 -6 15 0 -12
1532262653191199 5 -2 0 1 13 13 7 4
1532262653208152 -11 -1 -2 -1 -4 -4 0 -29
1532262653238100 -2 -3 -1 -1 -4 -12 -2 0
1532262653258046 -4 -4 -3 -1 -5 -44 8 -7
1532262653303938 -3 -1 0 1 2 16 -11 -3
1532262653326862 -2 0 -1 -1 2 13 -5 -12
1532262653385704 6 1 -1 0 -3 -6 -5 1
1532262653453523 -7 -3 -1 -1 0 1 3 -11
1532262653471475 9 -2 0 0 0 5 3 -1
1532262653508377 -10 1 0 -2 -3 -5 -3 -6
1532262653512382 0 -2 -3 -4 0 5 -14 4
1532262653529321 18 0 0 0 -2 -3 4 -6
1532262653581182 -21 -2 -1 0 -1 1 -11 1
1532262653604120 7 -1 -2 -2 -2 -2 -1 1
1532262653627060 -3 0 1 -1 -2 -1 -4 -3
1532262653641022 5 0 -2 -3 0 3 0 4
1532262653654985 5 0 -3 -2 -1 0 -5 -10
1532262653693881 3 0 -2 -2 -4 -5 14 -2
1532262653700862 5 -1 -1 1 0 -3 -2 0
1532262653723801 -15 -2 0 -2 1 1 -3 -3
1532262653746740 -5 -1 -1 1 0 4 -4 -3
1532262653784643 4 0 -1 -2 -1 5 -9 -1
1532262653822537 -3 -2 -1 -2 -3 -3 3 -1
1532262653844478 4 -1 -1 0 0 2 0 -2
1532262653866420 22 -2 -4 -2 -2 -4 -3 -9
1532262653926259 -4 1 -1 2 1 -1 -4 -6
1532262653949198 -11 0 -1 0 1 -6 -3 -1
1532262653970142 1 0 0 -1 -1 -2 -3 2
1532262653988094 3 -2 0 -2 -1 0 -3 -2
1532262654053918 -5 0 -3 -4 -2 -3 -2 0
1532262654083838 -5 0 -1 2 2 2 1 -3
1532262654129716 -1 1 -1 0 0 1 -1 2
1532262654166616 -9 0 -3 0 -1 -1 2 -6
1532262654204515 -5 -2 -3 0 -3 -2 1 -3
1532262654249410 1 0 -2 1 0 1 0 0
1532262654271337 12 -2 -1 -1 -1 -3 1 9
1532262654287294 -3 -3 -2 -4 -1 -4 3 2
1532262654309235 1 -2 2 1 0 0 1 -1
1532262654332174 -5 -2 2 1 2 -2 2 6
1532262654338157 8 1 -2 -1 2 2 1 9
1532262654369075 -6 -1 0 0 0 -1 -2 -6
1532262654383038 3 0 -1 1 -2 1 2 17
1532262654406974 -1 -1 0 -1 -1 -1 -1 -2
1532262654428915 1 1 0 0 0 2 -3 -7
1532262654443876 -9 -2 0 -3 0 0 0 -5
1532262654449858 0 -4 0 0 1 2 0 5
1532262654502718 -3 -2 0 -1 -1 1 2 25
1532262654521667 -5 -4 -3 -3 -1 2 4 16
1532262654550590 3 -2 -2 -1 -1 -2 0 -31
1532262654564565 1 0 1 -1 -1 1 -6 10
1532262654593475 -3 -1 -1 -1 -1 -1 0 -3
1532262654618409 -2 -1 -2 -1 -1 0 2 2
1532262654654313 4 3 1 0 -1 -4 5 5
1532262654683235 0 0 1 0 1 6 -2 0
1532262654706174 -1 -3 -2 -1 -1 -5 3 2
1532262654729112 0 0 -2 -2 -1 1 -5 0
1532262654783966 0 -2 0 2 1 10 4 2
1532262654787969 -4 -2 -2 -2 -4 -2 2 1
1532262654813886 0 1 1 3 2 0 6 -1
1532262654851785 -1 -2 -3 -1 -2 -5 -7 -4
1532262654877715 -8 -1 0 -1 -2 -1 -6 -6
1532262654954510 -2 -1 -1 -2 -1 1 -1 -1
1532262654969470 0 -1 -1 -2 -3 -2 -3 -1
1532262655029310 6 0 -1 0 -1 -3 -5 8
1532262655074190 2 -1 -2 -1 0 2 0 -10
1532262655126051 7 -2 -2 -4 -3 -11 -6 -6
1532262655193870 9 -2 -2 -2 -2 -1 1 0
1532262655245731 -2 0 -1 -2 -2 -1 -21 -7
1532262655306568 3 0 -2 0 -1 -10 -3 -5
1532262655396328 1 -1 -3 -3 -3 -3 -7 1
1532262655430238 -1 -1 -3 0 0 -2 0 3
1532262655450184 -2 -2 -1 5 0 2 0 -7
1532262655472126 1 -2 -2 -4 -3 2 -4 -4
1532262655493070 -3 -1 -2 -3 -3 4 4 6
1532262655531966 -5 -1 -1 -3 -1 -1 -4 -4
1532262655591806 0 -1 0 -2 0 -3 -2 -5
1532262655605769 -10 -2 -2 0 -2 -11 -2 -5
1532262655651646 1 -1 -1 -1 -3 0 -6 2
1532262655672590 -4 -1 -2 -1 -2 -5 -5 -7
1532262655727443 1 0 0 0 0 7 2 -1
1532262655748387 1 0 -1 -1 0 4 4 -1
1532262655816209 -2 -3 -1 -3 -1 2 -3 7
1532262655845128 -1 -1 -3 -2 -3 -1 2 -3
1532262655914942 -4 1 0 0 0 1 0 -7
1532262656003704 -4 -2 -2 0 -2 0 6 -6
1532262656013678 -4 0 0 -1 -1 7 -11 0
1532262656058557 1 -3 0 1 -47 -3 -2 -1
1532262656138344 0 1 3 -3 -5 6 2 0
1532262656194195 -1 -6 10 4 13 28 2 0
1532262656237080 -2 1 -4 -10 -6 -16 1 2
1532262656281960 -3 -7 -2 -3 21 7 -1 -2
1532262656333822 4 0 3 2 -7 1 2 -12
1532262656348781 -3 -2 3 -3 1 7 20 11
1532262656393661 -18 -11 -8 -14 -45 -16 -61 -52
1532262656416600 -3 -2 -6 -4 -9 -17 -47 -18
1532262656506360 0 -5 -3 0 -8 18 -5 28
1532262656532291 -11 -7 -3 -4 -17 -32 -50 -37
1532262656560215 2 4 4 1 -16 16 8 11
1532262656671917 -9 -4 -4 -4 -15 21 2 -43
1532262656707821 10 3 -4 -8 4 8 7 50
1532262656838484 -3 -2 -3 -10 -9 -11 -41 3
1532262656875389 -12 0 3 -1 10 10 25 -38
1532262657008028 -7 -3 -5 -4 -3 -4 -19 -6
1532262657060877 4 13 2 1 20 -13 -2 -59
1532262657069861 -2 -3 0 3 22 18 14 7
1532262657092809 -3 -3 0 -4 4 -5 11 -34
1532262657097778 -2 -9 0 0 12 -7 -41 41
1532262657143655 1 -9 1 -1 -2 -6 -6 4
1532262657150637 -6 -7 -4 2 15 -4 -21 27
1532262657173575 4 0 -5 -8 -6 -4 35 17
1532262657204493 0 -4 2 9 -12 4 29 10
1532262657226438 -4 -3 -3 -7 -9 0 24 15
1532262657249373 10 6 -1 -4 -6 4 9 86
1532262657293255 -1 -5 -9 -11 10 8 -20 -5
1532262657324172 2 1 -2 -13 -16 -4 21 -2
1532262657338143 1 0 -1 20 -1 10 -2 -9
1532262657377034 -2 -7 -7 -16 -1 -10 -8 -10
1532262657405954 -4 -5 -13 -19 5 11 1 -7
1532262657435874 1 4 0 -15 -28 -6 -7 29
1532262657473773 2 2 -5 -7 4 33 14 19
1532262657511672 -2 -6 -12 -4 -6 2 14 -13
1532262657533613 2 2 2 7 9 17 -17 -19
1532262657555554 -5 -4 -2 1 -1 -22 -20 -37
1532262657586471 -2 10 -3 -3 3 16 -1 -7
1532262657609410 -5 -4 1 -1 1 1 -1 5
1532262657698173 -2 2 -1 -3 -1 19 13 -7
1532262657714130 3 -1 -2 0 5 -10 -18 -30
1532262657750034 -1 -3 1 2 0 1 13 35
1532262657787933 1 3 0 -2 2 13 23 18
1532262657809874 -5 -20 -9 -16 -8 -1 -8 -17
1532262657872731 4 -19 2 13 3 15 -5 5
1532262657894648 1 0 3 0 0 33 -16 -15
1532262657918593 -2 6 8 -1 -1 0 3 16
1532262657938530 -6 20 -2 -9 -1 -13 20 7
1532262657976429 -1 9 1 21 3 -7 1 -2
1532262657990403 1 8 1 -7 0 2 -13 -58
1532262658013330 -1 4 15 24 3 0 10 16
1532262658036269 -2 -7 -23 -27 -3 -42 1 9
1532262658111069 1 -1 -2 24 8 9 10 13
1532262658156946 3 2 -1 -16 -3 -3 6 20
1532262658201827 -2 -17 -7 -10 4 1 -3 -4
1532262658223767 -2 -2 -3 3 0 6 -5 5
1532262658252690 -3 6 5 6 -2 -4 -9 -6
1532262658299565 -3 -11 -3 -4 -2 -4 3 -2
1532262658480082 0 2 -2 -3 -3 1 0 -1
1532262658525959 -1 -3 -2 0 -3 -7 -2 -1
1532262658547900 2 -8 -1 6 0 0 3 -1
1532262658575826 -2 2 -3 -7 -5 -3 -1 3
1532262658598764 -5 5 -2 4 -5 1 7 7
1532262658635666 0 3 5 2 4 1 3 -1
1532262658666583 0 8 -2 -3 -1 1 1 0
1532262658681543 0 5 -1 -6 -4 -2 7 -2
1532262658719442 -1 2 -2 3 1 1 5 9
1532262658779282 -2 -3 -4 -1 -3 -4 -9 -3
1532262658793245 -2 10 -2 -1 1 -1 0 1
1532262658839122 -2 -15 0 0 -1 1 7 1
1532262658853084 -1 0 -2 -2 -3 -5 4 -4
1532262658898962 0 6 -1 0 0 7 -1 -1
1532262658935863 -3 11 0 -1 -1 3 -3 3
1532262658988722 -3 1 -2 2 -4 2 -1 3
1532262659002684 -2 -17 -2 -5 -1 2 2 2
1532262659041580 -1 0 -1 -5 1 1 -2 4
1532262659079489 0 13 4 -3 4 -3 1 -4
1532262659101421 -3 -5 0 2 -1 -1 8 -3
1532262659139319 0 -3 -1 1 -2 -2 2 -3
1532262659161277 -1 -11 -1 -3 -2 0 1 -1
1532262659176220 -1 -12 0 5 -2 -2 -4 1
1532262659207139 3 16 -5 -1 -2 0 -5 -1
1532262659222112 -2 -10 -2 1 -1 1 -2 -2
1532262659244039 0 20 -5 -5 -1 0 6 -1
1532262659258999 -3 -6 0 1 -1 -1 0 -2
1532262659281937 -3 -31 -3 -2 -4 0 -2 -5
1532262659295901 -1 -32 1 7 0 -2 -4 3
1532262659326818 1 24 4 0 -3 1 -1 -1
1532262659341778 0 0 1 -1 0 -3 -3 -4
1532262659355740 1 2 -1 -3 1 -2 -5 0
1532262659401618 -2 2 -1 -1 -2 0 2 -1
1532262659415581 1 8 -2 0 -4 -6 3 0
1532262659475420 0 -7 -2 -1 -1 3 1 5
1532262659499356 -1 0 1 0 0 0 -1 -1
1532262659535260 -1 -3 0 -1 -1 -2 -3 -4
1532262659544236 -2 9 0 -4 2 -2 -8 -9
1532262659604077 -3 -31 -7 3 -2 -2 0 -1
1532262659641975 0 5 -2 -2 0 0 1 5
1532262659654940 -2 8 -1 -3 -2 -1 -5 -7
1532262659701815 -1 -13 0 -1 0 -1 -3 -3
1532262659714780 -3 0 -1 -1 -3 -1 1 -1
1532262659739714 0 4 0 -1 0 1 1 1
1532262659761655 0 2 -2 -2 -2 -1 0 1
1532262659837452 2 17 -2 -4 -1 3 -1 2
1532262659844434 -1 -12 -2 8 -6 -20 -3 -1
1532262659881335 0 1 -1 -2 24 -14 -3 -1
1532262659911255 -5 -7 0 -1 -14 2 -2 -2
1532262659941175 -4 1 0 3 7 -3 0 6
1532262659964114 -4 -3 -1 -3 5 -4 -4 -7
1532262659979074 3 2 4 0 -17 3 1 -2
1532262660024951 -10 -9 -2 -2 -2 0 -4 -13
1532262660076812 10 7 3 -7 -20 -16 1 13
1532262660167570 -4 -2 -1 8 43 -6 1 -3
1532262660189511 -6 -6 3 8 2 2 4 0
1532262660217436 -2 -2 4 -1 54 38 -2 -5
1532262660226412 3 -18 -4 0 -3 5 -2 0
1532262660264311 -7 -4 -5 -1 9 0 -1 -5
1532262660277276 -4 4 0 5 9 10 2 7
1532262660287250 9 -19 -5 -10 -15 -9 -1 2
1532262660324151 4 -5 -2 -13 -13 -17 4 8
1532262660413911 -5 2 -2 1 -8 -10 -5 -4
1532262660438844 -3 10 12 7 -15 -13 1 0
1532262660457794 -2 -4 -5 -8 -12 -12 -12 -5
1532262660481729 21 2 4 6 6 -9 11 0
1532262660517633 -6 -4 -1 0 5 0 20 -1
1532262660541570 0 -2 -3 -2 -2 -4 6 1
1532262660564508 -9 1 2 1 -15 -1 -2 -12
1532262660586449 -1 0 -2 4 5 -5 -3 -6
1532262660609388 6 11 -3 -7 0 -2 0 7
1532262660676209 -4 -1 -4 0 1 -3 13 2
1532262660691169 0 -39 -2 2 7 9 10 2
1532262660723098 -1 -26 -2 1 -4 -1 -1 -1
1532262660744028 1 -8 2 0 -8 -31 -1 3
1532262660803868 -1 0 1 -3 -7 -8 -8 -15
1532262660854732 3 -13 -2 2 25 41 0 0
1532262660886646 -5 -1 -3 -2 -3 7 -8 -11
1532262660923548 -10 -4 6 7 23 30 -7 -23
1532262660937510 -5 0 -1 -6 -19 -2 2 -7
1532262660955463 4 -1 3 2 3 -7 -7 8
1532262660978401 2 -4 -2 -1 -1 -6 -8 -3
1532262661007324 2 -3 8 0 -7 0 0 5
1532262661044225 -4 -1 0 7 -8 -21 -6 -2
1532262661066167 -3 -3 1 10 4 18 5 1
1532262661081131 1 0 0 3 -7 -6 1 0
1532262661104065 -2 -4 0 -3 0 0 3 0
1532262661141964 -2 -2 -28 -16 -6 -6 -4 -2
1532262661148945 -3 -11 -9 2 -4 0 -2 -3
1532262661315500 -1 -4 -5 -1 6 8 -1 -1
1532262661321484 0 -7 -2 5 6 25 -2 -1
1532262661344423 -1 -11 1 -1 2 -6 -1 -1
1532262661374342 -2 -2 -3 -4 -7 -20 -9 -5
1532262661419222 -3 0 -9 -4 -7 7 -3 -2
1532262661427201 1 7 0 -1 -2 -8 3 -5
1532262661486044 -4 -7 3 4 -2 -6 3 -1
1532262661508982 -2 -27 1 -4 -7 -2 2 0
1532262661559846 0 3 1 -4 0 2 4 1
1532262661606722 -1 -12 -3 1 -1 8 14 2
1532262661620684 -1 -15 0 2 -5 1 -2 0
1532262661680524 0 3 -1 5 -2 -3 -2 -1
1532262661697479 -3 -6 -2 -2 -5 -10 1 -1
1532262661780256 -1 -3 -2 3 0 0 0 -2
1532262661788253 0 0 -1 -2 -7 1 1 0
1532262661823143 1 0 2 1 3 2 -4 -1
1532262661847079 -9 -1 -2 -2 -1 20 -1 6
1532262661891958 4 0 0 -2 5 23 -2 -1
1532262661928860 4 6 4 -8 -54 -71 1 -1
1532262661995681 -2 -3 -5 -1 20 20 -5 -3
1532262662057516 3 1 -1 4 -21 15 5 2
1532262662070481 2 -1 -2 -1 23 2 8 -7
1532262662133312 -14 4 1 -1 -14 -14 14 -4
1532262662169217 -3 0 -1 2 0 -4 -1 -7
1532262662207117 0 -3 -3 -2 -2 17 -10 -11
1532262662243020 0 0 0 1 6 1 4 3
1532262662266956 7 0 0 -2 -7 -34 -6 9
1532262662351733 13 -1 -3 -1 -3 12 8 10
1532262662371690 -3 1 0 -2 -1 -9 -12 19

1532262662401596 -4 -2 -2 1 3 1 3 8
1532262662469413 -9 1 -1 1 5 2 -5 -3
1532262662482379 4 1 -2 0 -28 -14 -1 -12
1532262662553205 20 -5 -2 -2 -5 -30 20 -26
1532262662574149 4 2 1 -1 -7 3 -11 20
1532262662612048 2 -2 0 2 7 18 0 20
1532262662656927 1 -1 -1 -2 -4 -47 -18 -6
1532262662685851 -5 1 1 -1 -3 -29 16 -9
1532262662722751 -5 -1 -1 -1 0 3 -4 4
1532262662820490 13 -2 -4 0 -5 -10 10 4
1532262662911248 8 -3 0 -3 -1 17 11 12
1532262662949147 0 0 -3 -2 -1 2 0 -3
1532262662993029 -3 -1 0 0 -1 4 -6 3
1532262663031925 -10 -1 0 0 -1 -1 11 2
1532262663052869 4 -2 0 1 0 9 -1 6
1532262663130661 19 2 1 3 0 -4 3 -4
1532262663151605 -3 -1 0 1 0 8 -2 -7
1532262663211445 0 -4 -3 -2 -2 -3 2 6
1532262663286246 0 0 0 -2 -1 0 -3 -2
1532262663377002 -1 -1 0 -1 -2 5 2 -2
1532262663571482 8 -1 -1 -2 -1 2 0 4
1532262663631322 0 -1 -1 0 -2 -1 -1 -2
1532262663645284 -4 -2 -1 -2 1 3 5 14
1532262663714105 5 -1 -2 -1 0 -1 -1 1
1532262663760975 -1 -1 -2 -1 0 -1 5 0
1532262663773941 7 0 0 0 -1 0 3 11
1532262663796880 -4 0 -1 -1 -2 -1 2 -5
1532262663833781 3 0 -1 -1 -2 0 -4 -2
1532262663848741 1 -2 -3 -1 -1 -2 4 -9
1532262663894627 -1 0 -1 -3 0 1 -2 1
1532262663916560 -8 -4 -1 -2 -1 -6 -9 -70
1532262663931520 22 -2 -2 0 -1 -1 2 21
1532262663961439 -5 0 -1 0 -1 0 0 4
1532262663976400 -3 -1 1 0 -1 -2 3 11
1532262663999338 -4 -1 0 -1 -1 4 -1 5
1532262664052203 -6 -1 -1 0 -1 -1 -4 -67
1532262664074138 4 0 -2 -2 -3 0 1 -8
1532262664133977 -4 -1 -1 -4 -2 -3 0 0
1532262664147941 9 -2 -1 0 0 3 3 3
1532262664193818 9 0 -2 -3 -1 -2 -3 0
1532262664253658 -6 1 -1 -1 -3 -1 -2 1
1532262664306517 -9 -2 -3 0 0 -1 0 0
1532262664335439 0 0 -1 -1 -1 3 4 -2
1532262664367354 2 -3 -2 0 0 0 1 9
1532262664396277 -2 -1 -1 -1 -1 -8 4 -3
1532262664471077 -2 0 0 -1 -1 -3 12 -4
1532262664585770 -2 1 -3 -3 -3 -5 0 14
1532262664616687 0 -1 0 -2 2 7 -11 -9
1532262664643615 -3 -2 -2 -1 -1 -2 3 -1
1532262664695477 6 -2 -1 -1 0 -3 2 -3
1532262664733375 -5 -1 -2 0 -3 -5 1 1
1532262664756327 -3 -1 0 0 0 1 -10 -1
1532262664833109 1 -2 0 -2 -1 -2 0 11
1532262664846074 -3 0 0 1 -1 -3 -7 13
1532262664973733 -13 0 1 1 1 -2 -5 -5
1532262664995674 -2 0 -5 -1 -2 -4 -4 -13
1532262665019609 -6 -3 -1 -3 -3 -5 0 -5
1532262665055514 1 0 -1 -1 -3 2 -3 17
1532262665086431 -6 1 -3 -1 -2 -2 -3 -10
1532262665116351 6 -1 1 -1 -1 -4 -3 -10
1532262665147268 -8 -3 -1 -1 -1 -9 -4 -26
1532262665178185 -2 0 1 -1 -1 -12 -4 8
1532262665191151 0 0 0 -1 0 14 2 4
1532262665236030 5 0 -2 -2 -1 -6 1 8
1532262665249994 -1 -2 -1 -1 0 4 -2 -8
1532262665273930 1 0 0 0 0 -3 0 13
1532262665296869 1 -2 -2 -2 -1 0 -3 -2
1532262665309834 10 -1 -1 1 -2 -3 -3 -1
1532262665370670 -2 0 -2 0 0 -6 -6 -1
1532262665393610 -1 -1 -1 -2 -13 -16 -5 0
1532262665431508 -1 -1 -2 -2 4 -9 -1 -2
1532262665453450 -2 -2 -3 -4 8 22 7 1
1532262665476388 0 3 -3 0 8 5 -1 -1
1532262665498330 -5 7 28 15 -12 -60 -9 -8
1532262665521268 -1 -4 -12 -2 -9 0 -9 -1
1532262665536228 8 48 44 28 -16 -12 -6 -42
1532262665589087 -1 -8 -11 9 1 1 5 12
1532262665596068 -3 -8 -9 -15 -17 -5 -14 11
1532262665672867 4 1 0 3 23 25 16 24
1532262665722740 -15 -2 2 15 31 4 -29 -14
1532262665755642 -4 -3 -6 -12 -12 -13 55 -11
1532262665800522 -14 -6 -3 0 12 7 -20 -1
1532262665821465 -3 -3 1 0 -4 -7 24 -24
1532262665866348 1 -1 -3 -3 -3 11 -13 45
1532262665914217 3 -3 3 5 4 -5 2 15
1532262665958100 -6 -3 -7 -19 -7 -9 -11 -6
1532262665979045 5 -5 -10 -16 -7 1 -64 -53
1532262666002981 -7 1 1 3 1 -2 -5 -28
1532262666017940 3 1 1 0 -19 -14 11 14
1532262666053845 1 -5 -2 -11 7 4 0 21
1532262666075785 -2 -2 -6 -15 -2 8 -8 10
1532262666113685 -2 -10 -16 -35 -17 -50 -11 28
1532262666301183 3 -1 -2 -3 -3 -2 6 16
1532262666312155 5 2 0 0 -6 -1 46 38
1532262666392938 6 3 0 5 1 12 -1 22
1532262666415876 -2 -6 -5 4 6 -23 -21 -4
1532262666436820 -4 -5 -5 -16 -2 -1 22 4
1532262666460759 4 -5 0 -7 -19 -14 -33 10
1532262666465743 -4 -6 -8 -9 -5 15 -8 -18
1532262666542538 6 -19 -4 -9 2 -1 -16 10
1532262666563481 -5 -9 -6 2 6 -13 -43 -12
1532262666586420 -5 -15 -14 -14 -9 -36 18 6
1532262666609359 -4 -4 0 -12 6 -14 -31 -37
1532262666639279 0 12 -3 12 9 7 7 5
1532262666661220 3 12 17 21 0 -13 30 7
1532262666721060 -3 5 12 -15 2 16 -1 30
1532262666758959 1 2 8 -7 -2 1 13 37
1532262666788878 2 1 -1 -2 15 -12 13 15
1532262666840740 4 -6 1 5 1 -7 -7 15
1532262666909556 -2 -3 0 -3 5 -2 -3 1
1532262666956431 3 8 4 5 -2 1 -9 26
1532262666975397 -3 13 3 0 -1 -17 -22 -33
1532262667015273 -5 1 -2 -9 -6 8 -10 -4
1532262667062149 -4 -6 -3 -3 -10 -16 -10 -46
1532262667098052 2 -4 -4 -3 2 10 7 -3
1532262667143942 4 -1 1 10 4 2 17 15
1532262667148916 -2 15 -1 -6 5 -17 24 20
1532262667169860 1 -16 -4 -12 -7 1 -8 13
1532262667201774 -4 6 -4 0 -1 12 -10 9
1532262667223716 -5 4 -3 -3 -8 1 17 -7
1532262667238676 7 12 -6 2 2 -36 -18 17
1532262667261615 -2 -1 10 17 5 22 -14 -10
1532262667331428 -3 0 7 6 5 7 0 -8
1532262667353370 -3 4 -4 1 2 -13 4 8
1532262667420190 -2 -6 3 -5 -6 10 -1 -8
1532262667464072 -3 -6 4 5 3 -6 -13 2
1532262667479033 -2 -4 -3 -8 -2 13 4 -4
1532262667514937 -2 -7 -6 2 3 -3 9 -14
1532262667540868 -3 -5 -10 -8 -2 -6 1 0
1532262667546851 -2 -3 -1 -10 1 7 -8 -5
1532262667584750 1 -11 -7 0 -1 21 -1 4
1532262667606692 1 -9 -4 -4 -5 0 -13 0
1532262667622649 2 -4 1 0 -2 3 -9 5
1532262667697449 -1 3 -3 -1 -2 -3 -2 2
1532262667736345 0 -10 3 4 1 9 2 -1
1532262667757289 9 -2 -4 -4 -5 18 -2 -1
1532262667803169 2 -7 -1 1 3 5 -3 1
1532262667810148 -4 -3 -2 -2 -33 5 -1 -3
1532262667831092 0 -1 0 -5 -4 3 3 8
1532262667879961 -4 27 3 6 24 -15 -5 -2
1532262667923843 -10 5 1 0 6 -5 -5 7
1532262667944788 -6 6 -2 -4 -10 -6 3 0
1532262667972713 -2 -1 -2 -2 -8 -18 -10 -4
1532262668004628 0 -6 5 8 -6 3 -7 -1
1532262668041529 -4 14 -6 -6 -8 -3 18 0
1532262668080424 -1 -3 -4 -2 6 0 -5 -4
1532262668131289 -2 -7 -2 1 6 0 -6 -6
1532262668148244 -3 -8 -3 -7 -8 -1 2 5
1532262668192127 1 2 3 -5 -7 -7 5 -4
1532262668238003 -1 0 3 3 -6 -2 -3 0
1532262668288868 2 56 4 -1 1 -3 -5 0
1532262668311806 -1 -9 0 -1 -1 -12 -8 -10
1532262668378627 7 7 2 -3 6 14 9 6
1532262668440462 -2 17 5 9 0 8 -7 -1
1532262668446446 -1 -10 -4 -4 0 8 -7 -16
1532262668514265 -2 -15 -5 1 -2 -2 9 6
1532262668581086 2 -4 0 2 4 1 -3 0
1532262668626964 2 20 1 -5 -1 3 3 0
1532262668663865 -1 12 -2 -6 -8 -2 -3 4
1532262668791523 -1 -7 0 -2 -1 0 -2 2
1532262668844382 0 7 -2 -3 -7 -1 -10 3
1532262668911203 -6 -16 1 -1 -1 -3 -11 -19
1532262668927161 -1 7 -1 1 -1 -6 -2 -3
1532262668972041 1 2 -2 0 -4 -8 -18 -13
1532262669000963 -1 -1 0 0 -6 -7 1 -2
1532262669054819 -4 -5 -2 -2 1 -1 -2 1
1532262669059806 -1 21 -2 -3 -3 0 3 8
1532262669166520 -4 -21 -3 0 -2 -2 6 -3
1532262669204419 1 -1 -1 0 -1 -1 -3 -7
1532262669240324 -2 -31 -5 -1 -1 0 -1 0
1532262669287197 -2 -5 -6 -2 -3 -1 -2 -6
1532262669360003 -2 -11 0 3 -2 -1 1 -3
1532262669414856 -2 -10 1 1 0 -1 0 -5
1532262669466718 -1 -4 -4 -2 2 5 2 2
1532262669488659 1 6 1 -1 -2 -1 3 6
1532262669526558 -1 -2 0 -1 -2 -3 -11 -10
1532262669669177 -2 2 3 -1 -2 1 -3 2
1532262669707080 -1 -4 1 -3 -1 -2 -4 1
1532262669788856 -1 -5 -2 -3 0 -6 6 -8
1532262669850691 0 3 -3 -2 1 -1 1 -2
1532262669877619 0 3 -2 2 -2 3 -1 1
1532262669976355 16 3 4 1 -4 -35 1 3
1532262670148908 4 -14 -1 -6 -4 -2 6 -4
1532262670245648 -4 0 5 16 35 13 -2 -2
1532262670314464 4 -2 -9 -13 -17 -8 -2 10
1532262670360342 -14 -10 -8 -14 -7 -12 -23 -10
1532262670429159 -2 3 -1 0 -3 -3 5 1
1532262670449110 -5 5 -5 -3 -1 -4 -11 -5
1532262670492987 -5 -1 0 0 -3 -4 2 -1
1532262670510940 -10 -9 -5 0 1 -7 -3 2
1532262670532881 4 1 3 -1 0 -1 0 1
1532262670620646 -3 0 -2 -1 -1 -1 -4 -1
1532262670669515 -2 3 -1 -1 -8 -8 -5 -2
1532262670719381 -5 -20 -1 3 1 -1 -1 -1
1532262670794181 3 -11 2 9 0 -3 -2 -2
1532262670809142 3 9 0 -1 0 -2 -3 -2
1532262670868981 -6 4 0 -1 -3 -1 -3 0
1532262670904886 0 1 -3 -8 -3 1 -3 0
1532262670951761 4 -4 -4 -6 0 2 -3 2
1532262671020576 5 1 5 8 0 0 -2 3
1532262671040524 -1 -3 0 2 -3 -2 -1 -4
1532262671050505 1 3 -7 -5 1 0 -1 -1
1532262671073436 2 -5 17 -9 1 -2 1 0
1532262671140260 -2 11 7 13 0 -4 -3 -10
1532262671155216 1 6 -8 10 -2 -2 -3 -1
1532262671161201 -6 -30 -19 -8 -7 -5 0 1
1532262671184139 -1 -2 10 -7 -4 -2 1 2
1532262671209073 0 -15 -9 -2 -6 -2 3 0
1532262671228035 3 10 27 5 0 2 3 -1
1532262671246971 -3 -10 -9 2 -1 -4 -7 3
1532262671292848 -6 -8 -18 -21 -8 -9 -4 -4
1532262671310801 0 5 -10 -20 -3 1 -5 -6
1532262671335735 -2 -7 -9 -8 -3 -5 -3 -12
1532262671355680 12 -6 -8 -7 -1 -2 1 16
1532262671373633 3 20 11 -4 -3 0 2 7
1532262671409536 -6 5 3 -4 -1 -4 -6 -7
1532262671431478 8 73 9 -6 -1 -1 1 1
1532262671468378 5 -15 -6 -1 -2 0 1 -6
1532262671475360 -3 -13 -14 -7 0 -1 -3 -8
1532262671493312 -6 -9 -1 2 -1 -3 1 -2
1532262671528219 -4 -3 6 0 0 1 -4 -5
1532262671546172 -1 6 -3 0 2 1 1 2
1532262671582075 0 14 -1 -3 -1 4 -2 0
1532262671597035 -1 6 -1 3 0 -1 3 0
1532262671632939 3 -6 -7 1 0 -1 -4 -3
1532262671663857 -2 0 -5 -1 0 -1 0 -1
1532262671670837 -2 -1 -1 -1 -2 -3 -3 -2
1532262671693776 -1 2 0 0 -4 -7 -1 -5
1532262671716715 -1 -6 -4 -2 -2 -7 -1 2
1532262671732672 -2 0 -2 -2 1 1 1 -4
1532262671753616 1 -1 0 0 -1 -5 -2 0
1532262671800491 0 0 0 1 -3 -3 -2 0
1532262671823429 0 -2 1 -1 0 1 1 -1
1532262671836395 -1 -1 -1 -1 0 3 2 0
1532262671873296 0 -2 1 1 1 16 1 -1
1532262671896234 0 0 0 0 0 6 -3 -1
1532262671911195 -1 -4 -1 -3 -1 1 -7 -1
1532262671933136 -2 -1 -1 -7 -8 -20 1 1
1532262671957073 3 -1 -2 -7 -8 -43 -2 1
1532262671971035 1 -1 0 5 4 27 3 0
1532262671992976 -3 -5 -5 -1 8 7 3 -2
1532262672047829 -4 -2 -4 -11 13 -20 0 -6
1532262672054825 -1 -1 1 -1 21 -3 -8 -3
1532262672113654 0 1 5 2 13 -17 -5 -1
1532262672136592 -2 -3 -2 2 26 17 2 -2
1532262672150554 2 3 -1 -3 -19 -5 0 0
1532262672173493 -4 -1 -1 3 11 -27 -9 -2
1532262672196432 -8 -1 0 4 63 -16 -5 -7
1532262672233333 2 -3 0 -2 -22 12 1 11
1532262672256274 2 -1 -2 -4 -21 5 3 -2
1532262672279210 -2 0 0 -2 -5 -13 -3 -3
1532262672301152 6 -1 -2 -3 -11 8 1 7
1532262672340068 -1 -1 0 -1 6 1 0 -5
1532262672377947 3 0 -3 -1 -4 12 -6 -1
1532262672406869 -3 -1 0 1 6 24 -3 1
1532262672450752 -5 -4 -3 -2 -7 -10 0 7
1532262672481670 -21 1 1 -2 0 -15 -2 -8
1532262672496629 1 -1 0 1 -1 23 3 2
1532262672533530 0 2 1 1 3 3 -5 -4
1532262672564448 -2 0 1 0 0 8 0 -8
1532262672586389 0 -1 -2 -2 -5 -10 0 4

1532262672601349 4 -1 -1 -2 -1 2 4 0
1532262672624288 -8 -2 -1 -1 -2 4 3 4
1532262672655205 4 0 -2 -2 0 5 3 5
1532262672691110 2 -4 -3 -3 -4 -13 10 4
1532262672736987 -4 0 -2 -3 -2 -4 2 -1
1532262672773888 -3 0 1 0 -4 -13 -11 -8
1532262672820764 2 0 0 0 -1 -8 6 -7
1532262672863648 -15 0 -1 0 -3 -24 7 -10
1532262672879605 -4 -1 -3 -4 -2 -3 -4 5
1532262672909526 2 -1 -2 -1 -1 -5 4 -4
1532262672931482 -1 -1 -2 -2 0 -1 -2 -8
1532262672960389 1 0 0 -1 -1 6 -5 -1
1532262672976378 -4 -1 0 0 -2 -19 -2 -6
1532262672990341 -1 -2 -3 0 0 8 2 3
1532262673035221 2 -1 0 -2 -4 -2 -16 0
1532262673119994 -2 -3 -2 -2 -1 -1 1 -4
1532262673142942 -3 -2 0 -1 -1 -3 -6 -1
1532262673162879 -2 -1 -1 1 -1 -4 -2 -1
1532262673189807 3 0 -1 -1 1 15 -4 -4
1532262673210751 -2 -2 0 -2 1 0 -7 -3
1532262673232692 17 -2 -3 0 -2 8 -7 0
1532262673245657 3 -1 -2 -1 -1 7 0 0
1532262673268596 -3 1 1 0 -2 -1 -9 -2
1532262673299513 -2 -1 -1 0 -2 -2 1 0
1532262673313476 -6 -1 0 0 -1 -1 1 0
1532262673343396 0 -4 0 -1 1 6 0 8
1532262673365337 -7 -4 -1 -3 -2 -5 3 -17
1532262673398250 -1 1 -1 -1 -1 1 -7 -5
1532262673419193 -2 0 -1 0 0 2 -6 1
1532262673442132 7 -2 -1 2 2 8 3 2
1532262673464073 -2 -1 -1 -1 -1 -2 3 9
1532262673487012 -2 0 -1 -2 -3 -4 -9 -2
1532262673516932 -3 -2 -1 -2 -2 -2 6 0
1532262673538873 2 -1 -3 -2 -2 7 -7 -6
1532262673553833 -10 -2 2 -1 0 -6 -1 -1
1532262673576624 -6 0 1 0 0 0 -11 -4
1532262673599563 19 0 -1 -1 -2 -6 5 -5
1532262673613525 -4 0 -1 -3 -1 -5 4 4
1532262673651424 -1 -3 -2 -1 -3 1 0 5
1532262673673365 9 -1 -1 -3 -2 3 -6 1
1532262673706279 -2 -1 -2 -2 1 -5 3 0
1532262673743178 -4 -2 -1 0 0 -3 -2 5
1532262673764123 -1 0 -1 -2 -1 2 3 1
1532262673780079 -2 0 -2 -1 -2 0 -2 -2
1532262673816981 5 1 0 -1 -1 0 0 1
1532262673838922 -2 1 -1 0 1 0 -4 -4
1532262673852885 -1 -1 -3 -1 -2 -6 9 11
1532262673876820 -6 -2 -2 -2 -2 -1 -3 -6
1532262673898762 -7 1 -2 -2 -2 -1 -5 1
1532262673914734 0 -3 0 0 0 2 -2 0
1532262673954621 -3 -1 0 1 -1 -1 2 -3
1532262673960597 4 -3 -2 -3 -1 0 -5 4
1532262673997498 9 0 -1 0 -1 1 -6 -1
1532262674035397 -5 1 -1 0 -1 0 -3 1
1532262674041381 0 0 -1 0 0 4 -2 0
1532262674056341 -1 0 0 -1 0 0 -1 -1
1532262674093242 -3 -3 -3 -1 -1 1 -4 -8
1532262674116181 -6 0 0 0 -1 0 4 -3
1532262674139119 -1 0 -2 -1 -1 -1 -1 -3
1532262674162058 -4 -1 -1 -2 -1 -1 3 -2
1532262674177018 1 1 -1 -1 -4 0 0 1
1532262674198960 -2 -1 0 0 -1 -1 0 1
1532262674228880 -1 -1 -1 -1 1 1 -5 1
1532262674258800 0 -1 -1 0 -2 -1 -3 0
1532262674282736 0 0 1 0 -1 -3 2 4
1532262674318640 -7 1 1 1 2 -1 -2 -7
1532262674340581 3 -3 -2 0 1 3 -1 -4
1532262674379477 2 -2 -3 -1 -1 0 -2 -3
1532262674401418 0 0 -2 1 -2 -1 0 -4
1532262674416378 0 -3 1 -2 0 0 0 -5
1532262674478213 0 -1 0 -1 -1 -4 -3 0
1532262674484204 -3 -1 0 -1 -1 -2 -2 5
1532262674521098 -9 0 -1 1 -1 0 0 -2
1532262674529077 -2 -2 -2 -4 -2 0 -1 17
1532262674582933 -4 -2 0 0 1 2 -7 -3
1532262674596896 5 -3 -1 -1 -3 0 -5 -3
1532262674619835 -7 0 0 -1 0 -3 -1 -7
1532262674745498 2 0 0 -2 -1 2 -1 -1
1532262674816309 2 -1 -1 -2 -1 -1 2 -2
1532262674889113 -1 -1 -1 -1 -1 0 -4 -3
1532262674912053 -8 0 -1 -2 0 -2 -2 -13
1532262674954938 1 -1 0 1 2 0 0 3
1532262675031733 11 -2 -1 -1 -1 -1 2 8
1532262675046693 -17 0 0 0 -2 -8 -8 -19
1532262675091573 6 0 -2 -2 0 1 -3 7
1532262675369836 -1 -1 -1 1 -2 -3 -5 -6
1532262675422687 -8 -1 0 -2 1 -2 -1 -6
1532262675518432 2 2 1 -1 -1 1 -1 -3
1532262675564308 -4 1 1 -1 -1 -1 0 0
1532262675578271 -4 -1 -1 -1 -1 -1 1 0
1532262675736854 -3 0 -1 0 -2 -1 0 3
1532262675803674 6 -1 1 0 -2 -1 0 8
1532262675863514 -2 -1 -1 -2 -2 -1 0 8
1532262675939312 -2 0 0 -1 -2 -6 -1 -2
1532262676014112 1 0 -2 -3 -42 -26 3 1
1532262676111850 -7 -6 -10 -19 -16 -27 -6 -4
1532262676157728 -3 -3 3 22 -10 33 1 2
1532262676256465 -2 -4 -6 -4 9 -1 46 14
1532262676283392 6 3 -2 1 -19 -21 38 14
1532262676321291 1 0 4 7 -6 4 -33 -23
1532262676366183 -6 -8 -1 4 7 4 -9 8
1532262676404069 6 2 -2 0 -1 -22 -7 1
1532262676472885 7 3 0 6 4 -7 13 38
1532262676517765 -8 -3 -1 -8 -4 9 -51 -19
1532262676560651 -17 -2 -4 8 -19 -51 -93 -56
1532262676584595 -3 0 2 -3 -11 -32 -19 53
1532262676643429 -2 -15 -8 -30 2 21 13 47
1532262676706261 -4 1 7 5 -2 -20 33 22
1532262676855861 -7 -3 2 3 -8 -9 -19 -34
1532262677020421 2 0 -1 -2 -7 -2 5 -18
1532262677065312 -4 -7 1 -3 -2 -18 -45 -9
1532262677097216 -3 -1 -2 -1 1 -6 37 -11
1532262677120155 -4 -8 -4 -9 -3 -5 8 -10
1532262677132122 -12 -9 -5 0 -13 -32 -53 -74
1532262677169024 3 5 -2 -13 6 0 -21 18
1532262677214901 -2 4 0 6 -6 4 -15 -7
1532262677236843 1 2 0 11 2 -16 -48 -25
1532262677242826 -3 -3 -2 -6 -22 -2 38 35
1532262677296682 -3 -3 4 7 4 -4 -43 -28
1532262677401402 3 9 -2 3 4 -18 -40 -33
1532262677448276 -4 0 1 6 4 16 -15 -47
1532262677469220 -5 -7 1 -3 -5 15 17 -13
1532262677513104 -1 -1 -2 -2 2 10 39 26
1532262677581919 -1 0 -2 -2 -5 8 9 13
1532262677587903 -1 0 -1 -2 -1 1 -10 -3
1532262677619818 -3 -5 -2 -2 0 7 -1 -5
1532262677641759 0 -17 -2 -6 -2 3 18 18
1532262677688634 4 -1 -1 3 -2 -3 5 -15
1532262677709578 2 -2 0 -4 -5 6 -5 -13
1532262677746479 5 8 2 5 -1 -2 -11 4
1532262677782383 4 6 -5 -6 6 -2 3 2
1532262677807317 -1 2 -4 -20 0 -2 1 -5
1532262677870148 0 -3 4 6 6 -3 -3 -2
1532262677933978 -3 -5 1 2 48 4 -1 -4
1532262677948938 -8 6 -8 -7 -11 -6 -3 -6
1532262677985840 1 -19 -14 -3 9 -2 -5 1
1532262678045679 3 37 3 0 1 -2 -3 2
1532262678069616 -6 -4 -3 -5 -8 -6 -11 -4
1532262678130452 0 -8 -1 4 -3 0 -4 1
1532262678144415 -1 12 1 0 -12 0 1 0
1532262678160383 1 24 -1 -5 -6 0 -3 -2
1532262678205252 0 8 -1 -1 -4 -2 5 3
1532262678225199 0 7 0 -2 -3 -1 -9 -2
1532262678294015 0 -23 0 5 -2 -1 2 7
1532262678391754 -1 9 -3 3 -1 -2 5 -15
1532262678413695 -1 19 1 2 -1 0 -8 5
1532262678452591 -1 -3 -7 -1 -5 -2 10 -18
1532262678489492 -3 -1 -1 -4 -1 -5 -9 0
1532262678549332 0 -6 -2 -1 1 0 8 -4
1532262678571274 -2 -1 -3 -2 -3 1 3 1
1532262678617159 1 2 0 -4 0 -1 18 5
1532262678647071 -1 -3 -2 -2 -2 1 13 0
1532262678684970 1 -3 0 -1 -4 -2 4 -1
1532262678752789 -1 -16 0 0 1 4 0 1
1532262678759770 -1 -8 4 1 0 -5 -20 -5
1532262678798667 -3 -12 -4 0 0 -1 3 -6
1532262678825594 -1 11 2 5 -1 -1 -1 3
1532262678893412 -2 -8 -1 -4 -1 0 5 9
1532262678907375 -1 -3 0 -2 -3 -1 -9 1
1532262678963226 -1 -10 3 1 1 -2 2 3
1532262678998132 -1 6 1 2 0 -1 -6 -4
1532262679015086 -1 0 -5 -5 -1 0 -4 -24
1532262679028053 2 1 -4 0 -2 -2 6 6
1532262679052986 -1 -1 3 -3 1 -1 -3 -1
1532262679073932 -3 -4 -1 2 -2 -1 -2 -2
1532262679087893 -3 0 -2 -3 0 -2 -2 5
1532262679110831 1 -11 3 1 -2 -1 -5 -4
1532262679133770 -1 -1 1 -2 -1 -1 -18 -1
1532262679170670 -1 1 -3 -2 -1 -2 1 -2
1532262679193610 0 -4 -1 -1 -3 -1 1 4
1532262679239487 -4 -1 -1 0 0 -3 -6 -2
1532262679253449 -1 1 -3 -1 0 1 2 5
1532262679313290 -1 2 -2 1 -1 0 2 -2
1532262679336229 -1 -8 0 0 -1 -1 -7 -1
1532262679373130 1 1 -4 -1 34 1 5 -10
1532262679388090 0 -3 3 3 -5 -2 -1 3
1532262679411028 -3 -4 -1 0 -3 -2 3 4
1532262679447930 1 2 4 3 0 0 -3 0
1532262679470868 -4 0 0 0 -8 -3 -12 -9
1532262679507769 1 -3 -6 -3 -1 -2 2 1
1532262679538687 -1 2 0 -2 -3 0 13 7
1532262679553647 -1 -1 -2 -1 -3 -1 1 3
1532262679606506 0 2 -2 0 -4 -8 -3 -7
1532262679622463 -2 -8 -4 -2 0 0 -6 -12
1532262679651402 -1 2 3 -1 -3 -1 -1 -2
1532262679688304 -1 -5 3 0 0 20 3 -1
1532262679733182 -2 -2 2 4 2 7 3 11
1532262679763096 -2 0 0 -5 -56 -6 -2 -2
1532262679807967 -1 -9 -5 -6 -10 30 -3 -14
1532262679830905 12 -2 1 -1 -15 -25 -5 -6
1532262679861822 -1 4 -1 1 12 -13 2 -12
1532262679883764 -18 30 0 -4 7 -5 -1 -8
1532262679913684 15 -10 -8 -4 -35 -19 -3 -5
1532262679936623 1 16 0 -3 -3 2 -6 -7
1532262679973537 3 -8 2 -1 33 17 6 -2
1532262680011427 3 -2 -2 -4 -13 -20 2 -11
1532262680033364 -25 -8 -1 3 12 3 6 18
1532262680056302 -1 -2 -2 -2 25 20 -1 -10
1532262680087220 9 26 7 7 3 6 -3 -5
1532262680095203 15 -8 2 0 -5 -11 -6 -3
1532262680116143 -10 -8 -8 -3 10 24 -6 -20
1532262680139082 5 -9 -3 0 0 10 -1 0
1532262680153044 1 -4 2 -5 -24 -25 1 3
1532262680175982 8 -10 -1 -1 4 2 4 4
1532262680213882 -3 4 2 6 8 11 5 5
1532262680236820 -9 6 -5 -6 -31 -28 -2 -4
1532262680250783 1 -1 0 -12 -11 5 -3 -6
1532262680281700 -3 10 -5 -11 12 17 -3 -1
1532262680304640 3 -25 -1 12 19 16 0 -2
1532262680336554 6 -14 4 7 1 5 6 -4
1532262680356512 -4 9 -1 -6 -17 -32 -16 -6
1532262680394398 -3 -5 1 3 10 -2 -7 4
1532262680420329 3 8 3 0 0 0 -3 2
1532262680439279 1 -9 -5 -7 -6 -9 2 3
1532262680476180 -5 -5 1 -1 -12 -12 2 0
1532262680490144 -12 -2 1 13 12 4 6 2
1532262680551977 -2 -10 -4 -6 19 21 4 -3
1532262680565940 -3 -3 -2 1 0 0 11 -3
1532262680648719 1 -22 -3 0 15 -12 14 8
1532262680671657 -7 -8 -2 -9 11 4 -20 2
1532262680716537 -18 -21 -1 -6 4 16 6 9
1532262680776377 4 -19 -7 -2 -1 1 -2 0
1532262680790340 10 66 13 -2 -3 2 -2 -1
1532262680837215 1 6 -2 -2 22 -3 5 4
1532262680859155 -9 -3 3 16 -5 -5 -6 -2
1532262680897055 -2 -13 -2 6 -2 7 2 2
1532262680919993 2 -9 0 -9 -4 -2 -4 0
1532262680933955 14 3 -6 -10 -4 -3 -4 1
1532262680971855 -4 -6 2 9 1 -2 -7 -4
1532262681017731 -2 -8 -4 2 3 5 -3 -5
1532262681040679 2 8 5 0 -5 0 -7 1
1532262681091535 0 1 -9 -34 14 3 -4 -2
1532262681116468 -2 -3 -5 -12 -25 -4 -4 -3
1532262681144393 -1 -3 -5 -1 2 -1 -1 0
1532262681189274 5 20 7 -10 -3 -4 4 0
1532262681222185 -1 -5 5 16 11 -3 0 0
1532262681265070 -5 -10 -3 -3 5 1 -3 -6
1532262681280031 -4 2 -17 -14 -17 -1 0 -3
1532262681295987 3 11 6 6 2 2 3 2
1532262681315935 -2 -8 -4 12 11 -3 -3 1
1532262681338873 -2 -27 -12 0 -10 -8 -6 -4
1532262681352836 1 -4 -14 -3 -1 1 -4 0
1532262681376772 1 7 7 1 8 3 -3 -1
1532262681422649 -1 -24 -7 -5 5 -1 -8 1
1532262681428636 1 8 1 8 3 1 -5 -2
1532262681468526 -2 -41 -3 -1 -8 -1 7 2
1532262681489470 -2 -4 -6 -3 -3 0 1 -8
1532262681510414 -1 -2 -8 -10 -1 -3 13 -3
1532262681525374 2 18 5 3 1 -1 -16 -1
1532262681556291 -3 2 -9 -1 -1 0 -2 0
1532262681586212 -1 -8 0 -2 -1 0 5 0
1532262681593193 -3 -25 1 -1 2 0 2 -3
1532262681617129 -3 4 -1 1 1 -4 2 0
1532262681639071 0 -6 -1 1 -2 1 -5 0
1532262681653033 0 -1 -3 0 -3 -4 4 0
1532262681675972 -2 -12 -4 -8 -3 -2 -2 -1
1532262681689935 -2 -8 -1 -3 -8 -3 3 0
1532262681751769 -1 2 -2 1 -8 -5 -1 -2
1532262681819588 -2 -2 -2 1 7 5 -1 -1
1532262681862473 0 -2 -1 -2 5 4 1 -2
1532262681901369 0 0 -1 0 -3 -22 -4 -2
1532262681924307 -1 -1 -2 -5 0 22 -6 -3
1532262681962207 -2 -2 -3 1 -2 24 -1 -1
1532262682021049 0 1 -3 -15 -48 -13 3 1
1532262682037006 0 -2 0 -3 -14 -4 0 0
1532262682058947 -5 -2 2 1 20 -8 -1 -1
1532262682081887 2 -10 -2 5 49 31 13 2
1532262682118788 -5 -1 0 -9 -39 12 -5 -4
1532262682178627 0 4 2 13 18 -3 -8 -1
1532262682226499 -2 -2 -6 0 -18 17 -3 -1
1532262682277363 1 2 0 -1 -10 -18 3 0
1532262682323240 -1 0 0 2 6 1 -1 0
1532262682345183 0 2 0 1 3 10 0 -1
1532262682382083 -1 -2 0 1 -9 0 -1 -1

1532262682501767 0 2 0 0 5 4 0 -2
1532262682531683 0 -1 0 -1 -3 10 0 0
1532262682718463 -1 -2 0 -1 -1 -5 1 1
1532262682741403 0 -2 1 0 -2 -4 1 0
1532262682778304 -1 -2 0 2 2 22 -4 -2
1532262682800245 -1 -1 -2 -1 1 8 -3 -1
1532262682862080 0 -2 -1 -1 1 -7 -1 -2
1532262682912944 -1 2 -1 -1 -1 -4 -2 -1
1532262682951840 0 0 0 -2 -3 -3 -2 0
1532262682958821 1 -1 -1 -1 -1 1 2 2
1532262683003705 0 0 -2 -2 -2 -3 -1 -1
1532262683041599 -2 -1 0 -1 -3 0 -5 -1
1532262683064538 -2 -2 -2 -2 -1 -4 -3 -1
1532262683078501 -2 -1 1 0 0 -3 1 -2
1532262683140335 1 -2 -2 0 0 1 -4 -1
1532262683152304 0 0 -1 -2 -1 0 0 0
1532262683198181 -1 -3 -1 -4 0 -3 -3 0
1532262683222129 1 1 -2 -2 -3 -32 -4 -2
1532262683281957 0 -3 0 -1 0 -1 -1 -3
1532262683348778 -2 1 0 0 -1 2 0 -1
1532262683392661 -1 0 -1 0 -1 -1 -3 0
1532262683500373 -2 -1 -1 -2 -2 1 0 1
1532262683516331 -1 -2 -1 0 -2 -1 -2 -2
1532262683544256 -1 -1 -2 -2 0 -3 0 0
1532262683558219 -6 -2 3 -3 -3 -2 -5 -4
1532262683604095 0 -1 0 2 1 -1 5 2
1532262683642003 -1 -6 -3 -1 3 9 2 -2
1532262683654970 1 1 1 0 0 0 0 -1
1532262683694853 -2 -2 -4 -6 -3 0 -8 -2
1532262683731754 -2 -6 -4 -1 -2 -10 -3 -1
1532262683753695 0 1 0 1 -2 -25 0 0
1532262683844468 -2 -4 -2 -1 0 4 3 6
1532262683875371 -1 -1 -2 -1 -2 -11 -5 -1
1532262683943189 1 0 1 -2 -1 3 -1 17
1532262683980090 -3 -1 -1 -1 -1 0 5 0
1532262683995051 -2 -1 0 -1 -2 -5 -3 0
1532262684037936 1 -3 -3 -1 -1 -10 -2 8
1532262684060875 -1 0 -2 -1 -2 5 -5 1
1532262684106764 1 0 -2 -1 0 -1 -2 2
1532262684120714 -2 -3 -3 0 -2 -2 -1 1
1532262684158613 0 -2 0 -2 -4 0 -1 0
1532262684172575 0 -1 -2 0 0 1 -1 0
1532262684203493 -2 0 0 -1 -1 1 0 -2
1532262684311205 0 0 0 2 2 2 2 -1
1532262684340128 0 -2 -2 -3 -3 -3 -4 -2
1532262684353093 -1 0 0 -1 -4 -5 -2 -1
1532262684406949 -2 -2 -3 -1 0 2 -6 0
1532262684473770 -1 -1 -2 -2 -1 1 -4 -1
1532262684504688 -4 -2 0 -1 0 -2 -1 -1
1532262684588472 -1 -1 -2 -1 -1 -1 -3 -1
1532262684677226 0 -2 -1 -3 -1 -3 1 1
1532262684714127 1 -2 0 -2 -1 -1 -6 0
1532262684729087 -1 2 -2 1 -1 -1 0 1
1532262684773968 -2 -1 1 -1 1 -2 -4 0
1532262684805882 -1 -2 0 0 -1 3 -3 -6
1532262684903620 -2 -2 -2 -1 -2 -6 -3 -2
1532262684923568 1 0 -1 -2 -2 -2 -2 -2
1532262684946506 1 0 1 0 -1 1 0 1
1532262684969445 -1 -3 -1 0 0 -2 -2 -1
1532262685006350 -1 -1 1 1 1 3 -4 0
1532262685029285 0 -2 -1 -2 -2 -2 2 0
1532262685074165 1 -2 -3 -3 -3 -2 0 1
1532262685105082 -5 -1 0 0 0 -3 2 -1
1532262685129018 -1 0 -1 -1 0 0 1 1
1532262685163925 -1 -1 -1 1 0 -8 0 -2
1532262685222767 -2 -2 -2 -1 -2 -3 2 0
1532262685276623 0 -2 -1 -1 -7 -3 -2 -3
1532262685306550 -1 1 1 0 -6 -3 -2 -1
1532262685359402 -5 -7 -5 -5 -10 -4 -2 -1
1532262685403285 -3 -3 -4 -6 20 3 3 -2
1532262685443187 -5 -8 -12 9 -2 7 -7 -3
1532262685458138 -6 -7 0 -4 11 -8 -8 -20
1532262685486063 1 -1 5 -3 7 -1 30 41
1532262685493045 -12 -2 6 21 36 13 -25 -35
1532262685514985 1 1 -1 -9 -13 -4 -59 9
1532262685538922 -12 -4 -4 -2 -4 4 18 -8
1532262685559866 -2 -3 -1 7 8 -18 -8 -1
1532262685591780 -3 -5 2 8 7 9 22 5
1532262685605743 3 1 -1 -4 -14 -4 15 8
1532262685612725 3 -2 -3 -14 -8 0 -7 5
1532262685675557 5 5 -1 -5 -21 -2 9 7
1532262685697498 -5 -1 -4 -8 1 -21 0 -39
1532262685704479 -4 -3 -1 -1 1 12 -19 -19
1532262685719439 3 3 7 4 6 10 -5 8
1532262685756340 -2 -2 -3 1 1 14 -28 -17
1532262685779279 15 7 0 0 -2 -10 3 19
1532262685809199 -15 -10 -10 2 -1 14 2 -47
1532262685831141 4 -1 5 5 2 -11 55 51
1532262685839118 0 -3 -3 0 -5 -7 -48 28
1532262685883999 1 11 6 -2 -1 -6 -17 20
1532262685899956 -2 -21 -6 -7 -5 -2 -6 -40
1532262685921908 0 -5 -1 15 0 11 24 13
1532262685964782 3 41 11 10 0 -6 20 -21
1532262685989723 0 18 15 -17 9 0 -34 -39
1532262686025620 -8 -19 -14 -8 -6 -18 -13 22
1532262686049556 -3 -9 -1 -15 -3 18 12 17
1532262686085460 -4 -3 0 4 -7 -29 -23 -53
1532262686193172 -1 -4 -4 -1 -3 -10 20 8
1532262686280938 -1 -5 3 5 7 20 -32 7
1532262686314847 3 -8 -4 -2 -6 -42 -41 -5
1532262686350751 -2 2 1 -1 -3 8 -1 3
1532262686372692 -3 -15 -9 -4 -4 -8 5 12
1532262686386655 -3 -11 -5 1 1 -36 2 9
1532262686409604 19 -83 -9 -2 1 9 -3 -69
1532262686430552 -3 48 5 -2 -8 -49 17 30
1532262686460458 -6 -11 0 5 2 1 -7 10
1532262686480404 -2 -6 -3 -5 6 72 2 22
1532262686499354 -3 -8 -10 -7 -9 -28 -1 -2
1532262686521295 -3 -3 2 -5 2 21 4 14
1532262686551215 1 -1 7 25 3 -6 5 20
1532262686596095 -2 2 7 -1 -1 5 -21 -6
1532262686632996 4 9 9 -4 -2 -25 7 8
1532262686722757 0 9 4 8 0 -2 -3 3
1532262686753673 1 -6 19 8 4 15 -2 4
1532262686838446 -2 -2 2 2 1 2 -16 -6
1532262686881333 0 -2 -1 -5 0 7 14 0
1532262686888313 0 1 -2 -1 3 0 -14 6
1532262686911252 1 -10 1 2 -3 -6 -19 -4
1532262686933193 1 6 -3 -2 -9 12 -4 -19
1532262686949151 -2 -14 0 1 4 -5 -19 -27
1532262686974084 -2 5 -1 0 1 2 17 23
1532262686995028 -2 4 1 0 -1 -1 -15 -18
1532262687038911 3 5 -1 0 -2 -19 1 17
1532262687077820 3 -5 1 -1 5 -12 -2 4
1532262687100745 -4 -2 -5 -10 -4 5 -13 -9
1532262687113719 0 8 7 15 7 3 15 8
1532262687150612 -2 0 -1 6 -2 12 15 18
1532262687173551 0 2 12 9 -4 2 0 -4
1532262687218431 2 4 -9 -9 1 4 3 -15
1532262687248351 0 4 -12 -5 1 1 -4 -7
1532262687333123 -4 -7 -9 -24 -1 0 -4 -4
1532262687370025 3 12 4 0 1 0 6 -1
1532262687400952 1 1 -2 -1 -2 4 -3 1
1532262687481727 -1 1 -6 -4 -3 -3 1 7
1532262687533588 7 7 -6 -2 -1 0 -2 1
1532262687649278 -3 -6 -1 -2 -2 -2 -2 1
1532262687655263 -4 -1 -1 0 1 13 1 -4
1532262687691167 0 -5 4 -1 12 0 3 1
1532262687737044 -2 0 0 2 -43 -3 3 0
1532262687751006 15 13 1 10 14 5 0 -1
1532262687781924 -7 49 3 -5 -1 -8 -5 4
1532262687796884 -2 -13 -6 -1 2 -1 7 -2
1532262687818825 4 -16 1 4 5 2 3 1
1532262687841764 -2 -20 3 8 5 5 15 8
1532262687863705 -5 14 -4 1 -2 -5 -17 -7
1532262687893626 0 -9 -3 1 -4 -3 3 11
1532262687916564 -4 -20 -2 5 1 -7 -21 -6
1532262687953465 -1 -12 -3 -1 1 0 0 1
1532262687976403 0 -6 -1 -4 -1 1 3 -7
1532262687991364 1 -7 -1 -1 5 5 1 9
1532262688051204 -1 -12 -1 0 -3 -5 -2 -6
1532262688104063 -1 2 1 -2 -1 -1 2 -1
1532262688195817 -2 -5 -2 -4 -2 -1 -8 -5
1532262688238702 -1 -6 1 2 -2 1 -2 -1
1532262688276601 1 17 9 5 3 1 10 3
1532262688336440 -4 -18 1 4 1 1 4 -2
1532262688350404 -2 2 -3 -3 -2 -2 -4 -4
1532262688419220 -1 32 3 -4 -3 0 -4 0
1532262688449140 0 -8 -2 -2 -1 0 8 0
1532262688464100 -1 -9 -3 2 1 1 -2 0
1532262688479060 -2 -6 0 -1 -1 -3 -7 3
1532262688508979 -1 4 1 -2 0 -1 -2 0
1532262688552862 1 -2 -2 0 -1 -1 -5 0
1532262688614703 -1 -3 -2 0 1 1 5 -2
1532262688672542 -2 -18 0 10 -2 -2 -2 -2
1532262688704457 -3 36 -2 -9 -4 -3 0 7
1532262688787235 0 -2 1 0 -2 -2 -3 5
1532262688816158 -3 -16 -2 1 -2 -1 -4 -4
1532262688853060 1 6 0 -1 1 0 1 0
1532262688908926 -1 0 -1 3 0 -1 0 -1
1532262688936836 -1 1 -1 -2 2 2 -3 -2
1532262688958777 -2 -3 -1 1 -2 -1 1 0
1532262689005651 0 -2 -1 0 2 -2 1 -2
1532262689049534 -11 -3 -2 1 1 -6 -1 -5
1532262689079468 -2 2 -1 -6 -11 -9 -1 -4
1532262689101395 0 -1 -2 1 5 10 -3 3
1532262689177196 0 -4 -5 -6 16 -32 -7 2
1532262689198137 -6 -2 2 6 -2 31 3 10
1532262689236035 -4 -4 -3 0 1 7 0 -12
1532262689275929 -1 -9 1 9 -2 7 -5 11
1532262689295875 -17 -2 12 15 40 19 1 -5
1532262689318823 -7 -4 -4 -1 -3 1 1 0
1532262689401593 -4 3 0 7 8 -10 1 2
1532262689438494 -3 1 4 -10 -19 -15 -10 -4
1532262689461433 2 -8 -5 -5 1 -3 -7 1
1532262689536232 -1 -2 0 -2 -3 -4 -7 -2
1532262689558174 1 9 0 -4 -10 -18 4 -2
1532262689605049 1 2 2 8 20 -1 9 6
1532262689641949 -4 -21 6 0 -3 -7 -5 -11
1532262689663891 -1 -6 -5 2 6 -2 2 -3
1532262689745673 0 -8 -4 -11 -17 -27 -10 10
1532262689798531 -13 41 4 0 -12 -18 -10 -5
1532262689898265 -3 13 3 3 1 10 2 21
1532262689928184 5 -9 2 -3 -1 2 -9 -5
1532262690017944 -1 -12 -2 1 0 1 -2 0
1532262690137624 -3 -21 -4 6 7 4 -10 -3
1532262690195470 -24 -49 -9 -17 -6 -11 -3 3
1532262690361027 -12 2 -8 -5 -1 -2 -1 -5
1532262690438818 -1 2 2 5 1 0 -8 -1
1532262690511624 -20 1 -10 11 -3 11 4 -10
1532262690713086 -9 -4 10 27 5 -6 -10 -12
1532262690732034 -3 -35 -19 -15 -2 -12 -18 -10
1532262690745997 5 25 8 -11 0 0 6 5
1532262690766942 -4 -8 -3 -2 -3 -4 -1 -9
1532262690811822 4 -26 -7 -3 0 0 3 3
1532262690817805 -5 -5 2 4 0 -2 -5 -6
1532262690841741 -5 -16 -6 -11 -4 -4 0 -1
1532262690863683 -1 -31 -13 -1 -6 -5 -1 -2
1532262690877645 2 -17 -8 -4 -2 2 -3 1
1532262690901581 -3 -5 2 4 -1 4 1 -1
1532262690924520 -6 2 -1 -10 3 -4 -4 -3
1532262690937485 -1 10 1 0 1 9 -2 3
1532262690961421 -5 10 -1 0 6 12 -3 9
1532262690991342 -2 3 3 2 -6 -8 -1 -5
1532262691021261 4 -12 2 4 1 1 -1 -2
1532262691044200 0 -6 -8 -3 -2 1 -1 -6
1532262691058163 -5 -3 -1 0 -1 -7 -2 -7
1532262691082098 -1 4 -1 -4 0 3 1 4
1532262691112019 -3 -2 0 -1 -3 -6 -1 0
1532262691118003 -1 -7 -2 3 9 -4 1 1
1532262691148920 -1 -3 -4 -1 -3 -11 -8 0
1532262691180835 -4 -2 0 0 -6 -11 0 -2
1532262691201780 -1 -2 -1 1 2 -26 -3 -2
1532262691223721 -5 -2 -1 -3 -3 3 2 -21
1532262691245661 11 -1 0 1 15 36 12 13
1532262691269608 -2 0 1 3 -24 3 -1 1
1532262691284557 -13 -1 -3 0 16 6 1 -1
1532262691306499 2 -34 -4 -3 20 -20 -1 29
1532262691321459 25 31 5 -7 9 33 7 18
1532262691343400 -2 -8 -9 -7 -58 -31 -15 14
1532262691381299 -1 3 -4 -11 -9 -77 -2 -19
1532262691411219 -4 -8 1 -6 8 69 16 -2
1532262691426179 -5 -6 -4 1 -7 0 -8 -37
1532262691457096 4 0 1 3 2 -5 -6 6
1532262691510952 -1 0 -1 2 -16 -28 -9 0
1532262691545859 -11 3 -2 -1 6 13 -10 -7
1532262691568797 6 4 -3 -2 0 -3 -8 -9
1532262691606706 -6 -1 -1 -1 -1 -15 -3 -3
1532262691620659 -10 -5 -3 -2 3 2 4 6
1532262691680499 -2 2 1 1 2 9 4 -8
1532262691725379 -3 -2 -1 -1 4 -6 2 2
1532262691743330 -1 1 1 -1 -1 8 0 -25
1532262691781229 13 -2 -1 -1 -5 -8 -5 -1
1532262691803177 0 1 -1 -1 0 12 0 -3
1532262691824115 2 -2 -2 -1 -5 -1 -2 -5

1532262691868995 17 0 -1 0 -3 -3 -2 0
1532262691919859 -2 -4 -1 -1 0 7 4 2
1532262691958754 -3 0 -1 -1 1 1 -3 -3
1532262691980696 -3 -3 -1 1 0 -6 1 -2
1532262692034588 -4 4 -3 -2 -4 -1 3 0
1532262692040462 7 -5 -2 -3 -1 -2 -1 1
1532262692086339 1 2 0 1 0 -2 2 4
1532262692100302 -3 -5 -2 -2 -1 2 1 -1
1532262692146180 3 0 -1 0 1 -1 1 13
1532262692160142 0 -2 1 2 0 2 -3 5
1532262692184085 -19 -8 -3 -2 -1 -1 0 -11
1532262692206027 0 2 0 -1 0 -2 -3 -10
1532262692213008 0 2 1 1 0 2 -9 -8
1532262692243925 2 -1 1 0 -1 -1 -3 -3
1532262692289817 -3 3 0 1 0 4 -7 -3
1532262692357622 8 0 -1 -2 -1 -4 0 -4
1532262692430427 -1 -2 -1 -1 0 2 -14 -2
1532262692476304 -5 -1 1 -1 -1 -2 -4 -9
1532262692506224 0 1 -2 -3 -1 2 -3 0
1532262692529163 -3 -1 -1 0 -1 0 0 0
1532262692543126 -2 -1 1 1 0 -3 -1 -3
1532262692618923 -5 -2 -2 0 -1 -2 -4 -4
1532262692642859 -5 -2 0 0 0 -1 2 1
1532262692656838 -1 -2 0 0 -2 0 1 5
1532262692667793 0 0 -2 -2 -3 -4 -2 -1
1532262692693723 -7 0 0 1 0 1 -13 -16
1532262692716661 0 -1 0 1 -1 -2 0 -1
1532262692731621 -1 -3 -2 -2 -3 -1 2 1
1532262692754560 1 0 -1 -3 -2 -1 1 3
1532262692875237 -1 -3 0 -2 -3 -3 1 -3
1532262692897179 -1 -2 -2 -2 -2 0 0 -1
1532262692913137 -2 -1 1 -3 -1 -3 -2 -3
1532262692942059 -1 -1 -1 -1 -2 -2 -1 1
1532262692971979 -3 -1 0 -1 -1 0 1 -3
1532262693008880 0 -1 0 -1 -1 1 -1 1
1532262693031818 0 -2 1 0 -2 1 0 -2
1532262693047777 2 0 1 0 0 -1 -4 -6
1532262693086691 5 -1 1 0 -2 5 -9 -1
1532262693154499 -3 -3 -4 -4 -1 -2 3 4
1532262693174438 -2 -2 -1 -2 -2 3 4 5
1532262693200369 -1 1 -2 -2 0 -5 1 -1
1532262693213334 -1 -2 -2 1 0 -2 -2 -6
1532262693249238 -4 -4 -1 0 0 2 0 -6
1532262693271178 -14 0 -1 0 0 2 3 2
1532262693286138 4 -1 0 2 1 -2 -4 -3
1532262693345980 2 -2 -1 0 -3 -3 1 -1
1532262693355952 4 2 0 -1 -1 0 0 -4
1532262693404822 4 2 0 -3 -2 0 -2 4
1532262693428759 2 -2 -1 -1 -1 0 -3 -1
1532262693466675 -1 0 -1 -2 -2 -1 -2 -3
1532262693498571 0 1 -1 -1 -2 1 -2 1
1532262693525499 0 1 1 2 1 -2 0 3
1532262693548438 -1 0 0 0 0 1 2 11
1532262693571376 3 4 -1 -2 -4 -2 0 -2
1532262693608278 1 -5 1 -1 0 -4 0 1
1532262693668117 -8 -1 -3 -3 -4 -1 -4 -5
1532262693706016 -3 -2 2 0 0 -1 -4 -11
1532262693730950 5 -2 -3 -1 -1 -5 1 2
1532262693870576 -7 0 -1 -1 -2 2 -2 -1
1532262693885536 1 0 -1 -1 -1 -3 -2 -4
1532262693908474 7 1 0 0 -1 0 0 -3
1532262694022171 -6 -2 -1 -2 -1 -2 -1 -2
1532262694060070 1 -1 0 -2 -4 -10 -1 -2
1532262694087995 -3 -2 -3 -1 -2 -3 -4 -4
1532262694132874 2 0 -2 0 -3 -6 -2 -2
1532262694170774 -3 -1 0 -1 -1 -3 0 -4
1532262694216650 0 -2 -1 1 0 0 -4 -6
1532262694239589 -3 0 -3 -3 0 1 0 -1
1532262694298431 -1 1 1 -2 -2 -1 -1 -5
1532262694325360 -1 0 -2 -2 -2 -2 1 -2
1532262694343311 -1 -2 1 3 0 1 1 0
1532262694388191 8 8 -2 -1 0 -3 -2 -1
1532262694434069 3 6 0 -2 -2 -2 -5 -2
1532262694486927 1 1 0 0 -3 5 -1 -1
1532262694555744 -3 -2 -8 -13 -48 24 8 -4
1532262694568709 0 7 -10 -19 4 0 3 1
1532262694614587 1 0 6 -2 16 6 4 4
1532262694650491 -10 -5 -14 -9 5 -2 0 -1
1532262694734266 0 3 -3 -7 -41 -26 -4 -2
1532262694808069 -3 -6 -4 -8 9 10 -1 -6
1532262694890848 -1 -7 4 6 3 4 -9 -5
1532262694913786 1 1 2 6 31 9 -1 -16
1532262694927748 0 4 -3 -4 -10 0 -13 5
1532262694974623 7 26 2 -2 -7 8 8 33
1532262695010528 -6 1 -1 3 -11 22 21 -39
1532262695035461 -11 -7 -4 2 -7 16 33 -28
1532262695064384 1 -6 -2 -4 17 1 -4 18
1532262695078346 4 0 -3 0 -5 -6 -28 20
1532262695147163 -9 -2 1 14 -15 3 -66 -9
1532262695177082 -16 -4 -2 2 -1 -33 -27 0
1532262695191045 27 4 3 5 1 -41 -47 6
1532262695296762 -3 -6 2 -18 -17 -10 -15 45
1532262695311722 -7 1 4 18 4 9 8 -6
1532262695357600 -5 2 1 3 2 12 36 6
1532262695440379 -1 1 1 -2 -2 33 4 -1
1532262695461323 0 -2 -4 -4 -4 -16 -31 -5
1532262695477279 -4 -2 -4 -4 -1 3 -24 -36
1532262695491242 -1 0 2 -2 7 9 -24 2
1532262695537120 0 -1 -3 -4 3 -4 -3 -41
1532262695581002 0 -1 -3 -1 8 -3 3 24
1532262695649818 -7 -5 -3 -6 -6 4 11 4
1532262695672757 -5 -7 -2 -3 -10 -23 -9 -30
1532262695701679 -3 -1 -1 -4 1 -5 -33 -49
1532262695723621 3 2 5 2 0 -12 34 18
1532262695730602 -1 2 -6 -10 -3 -8 -7 -13
1532262695760522 0 1 -4 0 -1 5 0 7
1532262695813380 -1 1 0 2 22 -3 -6 29
1532262695860256 -2 -2 -2 11 10 -11 31 4
1532262695884192 2 -3 -12 -39 -17 -22 -1 -11
1532262695912118 2 1 -5 0 -19 28 10 -2
1532262695934059 -3 0 9 28 3 52 -36 -10
1532262695942037 2 -2 -4 3 3 -8 18 17
1532262695978938 0 2 5 2 2 27 -4 -38
1532262696016836 -2 -1 2 3 0 -16 -34 -6
1532262696046756 -4 -2 -2 0 0 -21 16 0
1532262696068698 2 1 1 0 -3 -15 -11 8
1532262696098618 -2 6 1 1 -2 -7 -2 -8
1532262696114575 -4 -3 -3 -4 -11 -3 23 -11
1532262696136516 2 -14 1 -5 -2 -10 -3 4
1532262696197354 2 2 -2 -2 -2 -16 3 7
1532262696234255 1 10 0 -4 -2 0 17 3
1532262696252207 -6 -1 -5 2 -3 -25 -11 -5
1532262696302074 0 -14 -2 8 -1 5 -28 -48
1532262696317034 0 -1 -5 -9 -5 -9 6 21
1532262696338976 -4 -2 -6 -4 -5 -6 -11 -7
1532262696382858 5 8 -1 7 6 10 20 1
1532262696467632 -2 -7 -8 -7 11 -11 -33 10
1532262696617231 2 0 0 -2 2 -3 6 13
1532262696707989 0 -3 -3 -4 -3 5 -2 8
1532262696835646 -2 -6 -2 1 -1 2 9 0
1532262696858599 0 8 -1 -1 -2 1 -3 2
1532262696879530 -1 -7 -2 -1 -8 -1 -4 -5
1532262696901471 3 -4 -8 3 16 2 1 -1
1532262696922416 -11 -5 0 -2 -8 -6 -6 -3
1532262696956324 16 29 -5 -8 -16 -6 11 -4
1532262697007189 -5 25 -5 -9 -4 3 -6 -4
