1532262056605741 -2 -2 -4 -3 -10 -12 -3 1
1532262056671565 1 0 3 9 3 -4 2 1
1532262056695513 -1 -2 -1 -10 -8 -10 -3 0
1532262056840123 1 -2 -3 -10 -8 -16 -2 -1
1532262056883000 0 -2 -1 -2 -1 5 -2 -1
1532262056905947 0 0 -1 -2 -5 -3 -2 0
1532262056921896 1 0 -2 0 3 4 1 0
1532262056949821 0 1 3 7 1 2 1 1
1532262056978743 0 1 1 -3 1 -1 -2 0
1532262057023623 -1 -2 1 9 -1 7 -2 1
1532262057098423 1 -3 -4 15 23 -9 2 1
1532262057138317 -1 -3 -7 2 10 7 -5 -2
1532262057166242 -2 0 -3 5 37 11 6 1
1532262057195165 0 -5 -4 14 18 1 5 1
1532262057221096 2 2 2 -19 -24 -6 -4 1
1532262057242039 -1 1 -2 -4 -15 -10 1 0
1532262057264978 0 3 0 -11 0 -32 -10 -2
1532262057668905 8 -2 4 20 29 20 -14 -2
1532262057715785 -1 35 1 -1 -11 -9 11 3
1532262057737720 0 -12 -2 1 15 21 3 -1
1532262057751683 -2 -16 -23 -9 12 16 -1 -3
1532262057772627 1 -3 -1 -10 -8 3 5 2
1532262057796563 3 3 5 -9 -1 -16 -4 -1
1532262057848424 4 11 -3 10 18 4 -5 1
1532262057878344 1 -3 4 10 -9 4 1 -2
1532262057916243 0 3 -2 1 41 16 -1 4
1532262057998025 -1 -35 -11 -15 17 16 -6 9
1532262058049897 -5 4 -5 -14 -16 36 19 0
1532262058238393 -3 10 0 -38 13 2 -14 -2
1532262058308210 3 8 0 13 -12 6 5 -5
1532262058352089 -3 -8 -1 -4 -15 46 7 1
1532262058368047 1 -8 -2 -5 57 35 7 1
1532262058569508 3 -5 -1 -4 -56 -15 -2 7
1532262058587459 -2 -2 3 -5 1 -39 -18 -3
1532262058668272 4 5 3 -6 -12 -13 -20 0
1532262058689216 3 4 -1 -5 -5 -3 3 1
1532262058757035 4 0 -4 -7 -3 16 3 4
1532262058784960 -4 -5 -6 -1 5 25 14 4
1532262058824859 -7 -2 -2 -3 6 2 3 -7
1532262058848789 -4 1 -2 -1 9 -4 4 -2
1532262058897659 -4 1 3 1 -10 -8 -3 -1
1532262058921595 4 -1 -1 -1 -4 17 3 6
1532262058943550 0 -2 -2 3 3 -18 2 -7
1532262058981449 8 3 0 2 -7 -6 17 4
1532262059058256 -1 0 1 5 7 11 1 -5
1532262059107115 -6 0 0 -1 -3 18 5 0
1532262059199875 2 3 2 0 2 -9 -7 -6
1532262059266686 30 3 2 1 2 5 -1 -1
1532262059348467 4 -2 -2 -1 -3 -4 1 14
1532262059401326 2 -4 -2 -4 -8 -9 -8 16
1532262059463160 -4 0 0 1 4 7 -2 -4
1532262059604782 4 -8 -7 -8 -13 -1 10 -9
1532262059626723 -18 -4 -2 0 18 11 -1 6
1532262059671603 -12 1 1 -1 -3 1 1 3
1532262059790286 4 -3 7 3 20 -7 -5 51
1532262059889022 -9 1 5 -5 -20 -9 -4 12
1532262059925922 11 2 0 -3 9 -10 -6 -12
1532262059955843 3 5 -2 0 -4 3 5 4
1532262060023663 2 -13 -12 -4 -4 -14 -7 -9
1532262060068542 3 -2 4 0 -7 -11 -3 -12
1532262060120402 -7 -22 -9 -4 -3 4 -5 -19
1532262060145336 16 9 4 0 -3 -11 2 7
1532262060159299 8 0 -5 -2 -9 5 -2 13
1532262060204179 0 -3 0 -2 3 -3 4 14
1532262060234099 12 22 4 0 2 -3 -3 -4
1532262060299922 10 0 0 1 3 6 -1 17
1532262060353779 -3 -2 -2 0 -14 -16 -2 -5
1532262060413619 -2 0 -3 -2 -5 -3 -2 -3
1532262060479450 0 -9 1 -1 12 20 31 -3
1532262060548259 -8 2 -6 -1 -7 -12 -23 -17
1532262060586158 2 -7 -7 2 -8 -1 10 18
1532262060645000 -2 6 -3 0 1 -3 -14 -23
1532262060722793 3 45 17 -2 -26 -6 -7 -22
1532262060832499 -2 -25 -11 -6 -5 0 -5 -3
1532262060886354 2 -9 -8 -10 -71 -7 0 -2
1532262060948190 2 -51 -14 2 3 -3 4 9
1532262061000050 -1 76 13 3 8 0 -4 7
1532262061043933 3 4 1 -5 4 -1 -1 3
1532262061103774 -3 41 7 -3 -9 -9 -6 -6
1532262061192536 -3 2 -5 -3 4 1 9 -2
1532262061322189 1 2 0 -3 11 -8 -11 13
1532262061346126 -5 -19 -2 0 2 -1 0 3
1532262061396988 4 -4 -3 -6 -9 2 -2 9
1532262061568530 -5 -16 -2 0 -3 7 -4 -16
1532262061637347 -12 -9 -8 -8 -5 3 17 -13
1532262061658290 -2 4 -4 -12 6 1 18 13
1532262061809885 -1 -18 -6 -5 0 -5 -5 2
1532262061877704 3 1 4 6 1 3 -5 3
1532262061883687 2 -26 -7 3 -6 -3 -9 -3
1532262061927571 0 -5 -2 -2 -5 -2 -4 -4
1532262061951506 -1 39 3 1 6 -3 -3 -1
1532262062041266 -1 -16 -5 -6 -2 -1 -8 2
1532262062088141 -2 -1 -1 15 -2 -3 9 11
1532262062154962 0 4 0 -13 1 -5 -30 -15
1532262062192861 -1 0 -2 2 -3 -3 -5 -11
1532262062264668 0 -12 -10 -24 -12 -7 5 4
1532262062370386 0 1 -1 0 5 -1 9 3
1532262062425240 -3 -1 -7 -20 -8 -4 -2 -4
1532262062505026 2 5 0 2 21 3 -5 -1
1532262062527965 -2 -4 -11 -10 -4 1 -3 -7
1532262062687538 -2 -6 -10 -15 11 -4 0 6
1532262062740397 1 -1 0 0 -2 0 9 1
1532262062754359 -1 1 -2 -3 -5 -3 -10 -3
1532262062792270 -4 -4 -7 -6 6 0 6 -3
1532262062798242 1 3 5 22 5 -2 0 18
1532262062895010 2 7 6 2 -2 -2 -7 -3
1532262062921964 1 -3 6 13 -10 -5 -25 -7
1532262062940914 1 2 1 -5 -2 -10 18 10
1532262063007735 -1 1 9 20 0 0 5 5
1532262063053613 0 -2 -2 3 -13 2 -5 4
1532262063068586 4 3 12 35 17 2 -1 2
1532262063098493 2 8 20 15 -18 5 -3 0
1532262063129422 -2 -4 -14 -18 -9 -10 7 2
1532262063242109 3 1 4 7 7 6 -20 0
1532262063266044 -3 -6 -1 -8 -9 4 -22 1
1532262063360791 0 0 -2 -3 -2 -3 28 5
1532262063445564 3 2 4 13 11 10 3 4
1532262063534326 -3 -3 -3 -5 28 14 0 -5
1532262063571229 -17 5 6 3 -1 -5 -56 -3
1532262063607133 1 3 -2 0 -24 4 22 -1
1532262063692921 0 2 2 23 32 63 4 0
1532262063743785 -4 -6 -6 -11 -10 6 -8 -11
1532262063757748 23 3 3 2 -20 -10 -5 3
1532262063857482 -3 -20 -6 3 25 50 4 -3
1532262063878425 -16 -6 2 5 2 0 14 10
1532262063901363 0 3 -2 -7 -10 -34 22 0
1532262063939299 -5 12 2 -1 2 -12 3 -1
1532262064014095 0 1 4 14 -6 20 -4 -2
1532262064029055 1 51 4 5 -6 -26 -10 -2
1532262064095877 -1 -3 -8 -8 52 3 2 3
1532262064117818 2 -6 3 -14 -19 9 6 1
1532262064156715 3 2 28 4 21 18 4 1
1532262064178655 -2 4 -1 -10 39 6 -4 -1
1532262064229519 -5 -6 -5 15 -22 -13 -16 -4
1532262064253455 -1 -6 -18 -48 -11 20 8 2
1532262064299332 3 1 2 6 23 4 11 -1
1532262064345210 0 -4 -3 -8 -1 -2 7 0
1532262064413037 0 -1 -1 -6 -25 -22 -1 0
1532262064440955 5 -8 -2 6 31 15 6 -9
1532262064469876 6 5 6 32 -17 -33 -8 5
1532262064690287 -2 -7 0 -13 -16 23 -1 2
1532262064704251 -6 -10 -2 -5 -22 -12 5 -9
1532262064772072 4 -6 -6 -10 26 6 -4 -10
1532262064952586 1 38 1 -6 -8 -25 -7 1
1532262064975525 0 5 1 0 17 6 0 -1
1532262064996468 -5 -6 -2 -2 3 20 2 -8
1532262065020425 0 7 1 0 5 -4 -1 -1
1532262065088238 0 -1 -2 -3 1 3 3 1
1532262065093225 3 12 3 2 3 5 2 4
1532262065132120 8 -32 -2 -1 -4 -7 -2 -3
1532262065162041 -9 -31 -3 -2 -2 12 1 3
1532262065184980 -4 20 2 1 0 -10 -13 -4
1532262065274739 -1 1 -4 -5 -4 -2 5 -3
1532262065318622 -4 -4 -1 -7 3 -3 -3 -2
1532262065355523 0 2 -1 -1 -2 0 -3 0
1532262065378462 -5 -3 -2 -2 -1 0 -1 -2
1532262065416360 0 -3 -2 -7 -4 4 1 1
1532262065430323 0 -5 -2 -3 -4 3 -1 -2
1532262065456254 -1 0 -1 -3 -3 2 1 -2
1532262065486174 -2 0 0 -1 -13 -11 -1 -2
1532262065542024 -1 -2 -1 -9 -33 0 -3 -1
1532262065565960 -2 -1 1 -4 5 4 -2 -2
1532262065611845 1 3 5 22 6 2 1 1
1532262065640767 1 1 2 6 9 11 2 1
1532262065671684 -1 -3 -3 -5 14 13 0 -1
1532262065737509 -6 -9 -3 -3 20 7 1 -4

1532262065815416 -3 -4 1 2 -15 -14 -1 0
1532262065830376 1 2 -2 -3 -12 6 -2 -4
1532262065836360 -1 -3 -2 -3 -7 3 -1 -1
1532262065866280 -2 -1 -2 -1 -6 5 -2 -1
1532262065904179 -2 -4 -4 -3 0 -4 1 -1
1532262065926120 -2 -4 -1 1 -4 9 0 -1
1532262065985962 -1 0 -2 -1 -2 -10 -4 -1
1532262066038819 -4 -1 -2 -5 -11 -4 -4 -4
1532262066090680 -1 0 1 2 -2 -16 -4 -1
1532262066121597 1 2 -5 -7 29 37 0 1
1532262066143540 -2 -1 -2 0 4 23 6 -2
1532262066194403 -4 1 -2 -9 3 -8 -7 -3
1532262066241277 -1 -3 -1 -2 -7 -17 -4 -3
1532262066263219 0 1 -1 -4 -17 1 5 2
1532262066317074 -6 -3 -1 3 17 5 1 -3
1532262066360958 0 -1 -2 3 24 14 7 -1
1532262066383913 -1 -1 0 0 -16 1 5 0
1532262066404840 -1 -1 -2 0 -17 23 5 0
1532262066449720 -1 -1 0 3 16 13 3 -4
1532262066533496 -3 0 -1 -1 -1 -11 -4 0
1532262066541481 -3 0 -3 -2 15 -4 6 0
1532262066586355 -1 -2 -3 -2 -5 23 8 0
1532262066631437 -2 -1 -3 -1 11 9 -4 -2
1532262066661356 -1 0 1 -4 24 14 -1 -3
1532262066729175 0 0 1 0 0 -3 -1 -2
1532262066751116 -2 -1 1 -1 -10 7 1 0
1532262066818201 -1 -2 -2 -2 -1 4 0 0
1532262066848120 -1 -2 -3 0 -6 -4 -2 0
1532262066870062 0 1 -1 1 -2 -3 -2 -2
1532262066895386 0 -1 -1 0 -1 3 -1 0
1532262066946250 0 1 -2 -1 -1 1 -1 -1
1532262067021049 -1 0 -1 -1 -2 0 -2 0
1532262067104826 0 0 -2 0 0 -1 -1 -1
1532262067223509 -1 2 -2 -1 -1 -4 -3 -2
1532262067486804 -2 -1 -4 -5 3 -3 -2 -2
1532262067591524 -1 -1 -3 1 -7 -1 -6 -2
1532262067613466 -2 -4 -6 2 -3 -1 3 -1
1532262067742121 -1 1 -2 1 -1 -5 -6 0
1532262067765060 -2 -6 -2 -9 -6 -2 -2 -4
1532262067787999 -1 30 3 -3 -1 15 4 0
1532262067810938 -2 9 -2 -4 12 24 1 -1
1532262067846847 -1 15 10 -3 25 6 -12 -3
1532262067868783 0 -11 -7 -2 12 -16 -1 -2
1532262067959540 -1 -4 -6 -5 19 24 0 0
1532262068011402 -3 -20 -5 -2 -4 -21 -4 1
1532262068034340 -1 -13 0 13 -2 4 6 0
1532262068056281 -1 0 3 10 10 -2 5 1
1532262068104154 1 -5 4 -2 8 12 2 1
1532262068260735 0 20 0 3 6 5 -1 0
1532262068282676 -8 -17 -3 -6 -39 -7 -3 -2
1532262068298633 -2 9 4 3 15 27 4 1
1532262068325561 -1 27 7 -4 -9 1 2 0
1532262068356482 2 8 4 2 3 3 6 3
1532262068385401 1 27 8 6 6 -3 1 0
1532262068424297 0 -6 -3 -1 -12 -1 -14 -4
1532262068469177 0 8 6 -1 18 6 0 -5
1532262068529017 0 -3 -4 -4 -12 9 -13 -2
1532262068558937 -5 -11 -4 -2 7 -5 7 2
1532262068626756 1 5 5 7 -17 -6 1 1
1532262068656676 -4 18 -3 -2 10 0 -2 -4
1532262068693577 -1 -5 0 7 -8 -10 0 -2
1532262068747433 1 23 3 -4 3 -13 -4 -3
1532262068875092 -5 -26 -9 -4 -30 -4 -1 -3
1532262068897033 -1 15 -5 5 41 51 -2 -2
1532262069114452 2 2 2 0 20 10 8 0
1532262069140391 6 12 11 6 15 30 -36 -11
1532262069190249 3 3 4 -7 -38 -6 9 1
1532262069195236 2 1 2 -7 56 22 4 1
1532262069257071 1 0 -3 -2 -16 18 -8 -1
1532262069331870 -4 -5 -5 -6 -8 27 -4 -5
1532262069370767 0 2 2 2 11 -1 0 -1
1532262069394702 2 -1 -1 -2 7 10 4 1
1532262069436591 8 -5 -3 -6 -5 -23 -9 3
1532262069511390 -6 -2 -2 -6 -30 -2 -4 -5
1532262069623102 11 3 2 0 -5 11 8 2
1532262069674953 -22 0 3 -1 -6 -4 -7 -9
1532262069729806 24 -12 -4 -3 0 1 6 1
1532262069847492 18 1 -2 -2 6 1 -4 5
1532262069945230 -4 -1 2 0 -3 1 0 -8
1532262070148686 24 2 1 2 7 10 -6 -2
1532262070193566 -20 -5 -2 2 -24 5 19 34
1532262070216505 5 -2 1 6 29 49 2 0
1532262070260387 -17 -18 -7 -2 18 -19 -1 -1
1532262070290309 48 0 -18 -23 -10 -26 -30 -50
1532262070313249 -77 -1 8 1 -48 12 26 -20
1532262070336185 -4 5 -4 -3 13 -6 -11 3
1532262070359124 -5 -14 -8 -10 6 -1 -7 2
1532262070412979 14 4 4 1 11 2 1 1
1532262070433924 7 -3 -6 -7 3 -9 -7 -23
1532262070455872 1 1 0 -1 -2 10 -6 -2
1532262070478803 -9 -1 1 1 -23 6 -3 1
1532262070493763 -1 -5 0 3 16 6 -1 -5
1532262070531662 1 -6 -5 -2 6 -4 1 -5
1532262070553603 -6 -2 0 0 4 -5 -2 7
1532262070567566 -5 1 0 1 -2 -11 -1 -9
1532262070591502 -3 -8 -3 -2 -3 -9 3 -2
1532262070621422 -2 -8 2 1 -3 -39 -6 -6
1532262070636382 -8 -3 8 -1 0 -5 4 11
1532262070651342 1 26 8 -5 1 40 -1 -9
1532262070665305 -2 39 3 -4 -8 24 8 -6
1532262070691239 -3 -5 -8 -9 -33 15 -15 -1
1532262070736114 0 12 0 -3 2 2 -3 0
1532262070756074 -4 7 -6 -6 -5 -6 1 -2
1532262070779000 -4 40 10 -10 -2 -6 -4 -8
1532262070838841 3 6 -19 1 -1 -6 3 12
1532262070915636 2 -1 -1 -1 8 -4 4 -5
1532262070938589 7 0 5 -2 -3 2 10 14
1532262071006405 2 -50 -10 -3 -6 0 8 -3
1532262071028334 -1 -25 -14 -14 -11 -6 -2 -12
1532262071048281 -1 -8 -7 6 -13 1 5 4
1532262071094163 2 -41 -2 0 26 5 -4 11
1532262071141032 10 1 -6 5 -1 0 6 33
1532262071192896 4 0 -3 1 -10 -5 13 20
1532262071319555 3 -4 4 0 3 -11 -96 -8
1532262071343491 -8 -8 -1 28 24 3 17 -11
1532262071401337 6 -7 -3 0 -5 -1 4 14
1532262071453198 0 57 3 -2 -3 -5 -15 1
1532262071516030 4 19 10 -2 -3 -1 -27 -9
1532262071582851 0 -17 -7 -3 -4 0 -9 -9
1532262071613768 1 2 -5 -3 -2 0 7 13
1532262071628728 6 30 4 -2 -4 2 -1 14
1532262071657650 -4 10 -1 3 0 2 7 -1
1532262071693555 4 7 2 5 0 -1 -2 0
1532262071730456 -1 -19 -2 5 2 2 10 6
1532262071756387 -1 -4 -6 -11 -7 -3 -2 -1
1532262071814232 1 3 2 -1 -6 -2 2 -4
1532262071889032 -7 34 2 0 9 -2 -6 -19
1532262071933912 0 -9 -2 -3 -10 0 8 2
1532262072008712 -2 -7 -3 -1 -3 -2 -7 12
1532262072144350 -1 -7 -1 1 -2 -1 0 2
1532262072196211 1 -2 0 7 4 -1 4 13
1532262072219150 -3 0 0 1 -3 -3 2 -4
1532262072240093 -2 1 -1 -9 -1 -3 5 9
1532262072299934 -3 -2 -6 -3 -3 -1 -5 -5
1532262072310909 0 2 1 -6 -10 0 5 6
1532262072405658 1 4 3 5 -15 -5 10 -5
1532262072451528 0 1 -1 6 16 -6 2 -1
1532262072472476 -2 -1 -3 -9 0 5 -3 2
1532262072509373 2 1 2 -10 -13 -1 3 5
1532262072563230 -5 -2 0 0 3 -5 -4 -24
1532262072586180 -4 -2 -4 -8 -7 -9 -7 9
1532262072737763 -2 -3 0 4 8 4 -16 -8
1532262072758706 0 0 2 -4 6 -7 4 6
1532262072796606 -4 0 1 -3 -8 2 2 1
1532262072932242 -1 1 -1 0 -1 1 -3 1
1532262072956188 -3 1 2 1 -7 1 -1 -8
1532262073058903 -1 2 3 1 13 -10 1 1
1532262073074861 1 1 0 1 -17 23 -2 -1
1532262073147666 -4 -3 -3 -3 -20 0 -6 -7
1532262073189554 -2 -2 -4 -5 -20 10 3 -4
1532262073216482 -3 1 0 -1 3 -15 27 8
1532262073292280 -8 0 1 1 22 19 -19 -3
1532262073381043 14 48 -3 -7 -17 -11 7 4
1532262073440883 -2 -5 6 12 5 8 -5 1
1532262073454845 -1 -15 -10 -6 -8 41 4 -2
1532262073479779 -1 8 5 -1 -52 -7 15 -3
1532262073501723 4 -28 -1 5 20 34 -28 -2
1532262073546600 14 26 11 4 -8 -3 5 -2
1532262073621400 -1 -1 1 11 33 0 -4 -2
1532262073651320 -2 -49 2 15 21 9 2 5
1532262073681240 -2 -19 -6 -10 23 35 0 0
1532262073711161 2 5 8 16 14 -17 -4 1
1532262073734098 2 -6 6 0 -40 4 11 4
1532262073801917 2 6 17 40 4 -11 11 5
1532262073830840 -1 -1 -2 -17 4 8 -3 1
1532262073958498 1 -1 -4 -6 -5 -4 10 2
1532262074043271 -2 1 -1 3 19 -15 24 2
1532262074110093 0 -3 -1 -1 4 30 -1 0
1532262074145000 1 2 -2 0 -4 -2 -5 -2
1532262074170930 2 6 1 3 -13 -13 0 1
1532262074229773 -1 -3 3 3 17 10 5 1
1532262074416274 0 9 3 8 15 -12 0 0
1532262074442204 0 8 -1 -3 -27 -12 -1 0
1532262074486087 -12 -3 -6 2 -1 1 9 20
1532262074513015 -17 7 1 1 -24 -24 -6 -5
1532262074557895 -12 -3 2 0 2 4 -4 -12
1532262074680567 1 22 -2 -5 6 14 4 9
1532262074702509 0 7 -4 -12 -34 -10 -11 -16
1532262074717469 -2 -3 -2 -5 -1 -2 0 -4
1532262074739410 -1 0 -1 5 16 -9 -1 -3
1532262074786285 0 0 -1 7 -10 -34 -3 -2
1532262074806232 -2 -3 -2 -5 -5 0 -2 -4
1532262074934888 -3 0 0 2 5 -2 -6 -1
1532262074950845 1 5 -1 0 0 -2 -14 -10
1532262075008690 6 0 -1 -2 -1 15 4 1
1532262075031628 -8 -18 -6 -4 -5 34 -1 4
1532262075060551 -2 -9 -4 -3 0 -6 -1 0
1532262075090472 -1 7 1 -1 0 -5 -7 -1
1532262075130365 -4 -1 -5 -11 -35 -45 -8 -6
1532262075190222 2 -1 1 0 -15 -8 -1 1
1532262075220129 -2 -4 -7 -17 -1 36 0 -2
1532262075234087 0 -1 1 -2 -16 -51 -3 0
1532262075263009 4 -1 1 3 97 58 4 -1
1532262075308888 -2 1 -1 -3 -24 23 2 0
1532262075338807 2 1 1 3 -19 -30 -5 -4
1532262075445522 2 2 0 2 -7 9 -2 -2
1532262075467462 1 3 2 3 2 -8 -5 -2
1532262075482423 -1 -1 -3 -3 7 20 3 -2
1532262075525308 -1 -1 -2 -3 -17 -20 -2 -1
1532262075585148 -1 0 0 1 11 5 1 0
1532262075631025 -1 -1 -3 -9 -2 -1 -1 -2

1532262075714802 -2 -2 0 1 -7 -8 -3 0
1532262075744722 -2 -2 -1 1 7 14 -2 -1
1532262075765666 0 0 0 1 16 5 -1 -2
1532262075825506 0 -2 -1 1 -7 1 1 0
1532262075864401 -2 -1 0 -2 5 4 -1 -2
1532262075900306 -1 -3 -2 -1 2 -3 -1 0
1532262075931223 0 -2 -1 3 -2 -7 -3 0
1532262075962141 -1 0 -1 -6 -1 -1 -1 -2
1532262076005026 -2 -1 0 7 3 -1 -3 -2
1532262076028962 0 0 -1 -5 -5 0 0 -1
1532262076103762 0 -2 -1 3 -1 -1 1 2
1532262076125704 -2 1 -1 -4 -3 -1 0 -1
1532262076163601 0 0 -1 -1 0 -1 1 -2
1532262076193522 -1 0 -1 -3 -3 -1 -3 0
1532262076208482 -1 -1 -2 -5 -3 -2 0 -2
1532262076246381 -1 -3 -3 -4 0 -1 -1 2
1532262076305222 0 -2 -1 -1 1 -1 -2 0
1532262076343122 -2 -1 0 1 1 1 -3 -1
1532262076388998 0 0 -1 0 -3 1 -1 -2
1532262076402961 -2 -1 -2 -8 -3 1 -1 0
1532262076462801 1 1 -1 -1 -1 -1 -1 -2
1532262076555553 -2 0 -2 0 -1 0 -2 0
1532262076577495 0 -2 -1 1 -1 -2 -2 -2
1532262076651298 6 5 13 19 -8 -19 0 3
1532262076725100 0 2 4 -4 -14 9 1 0
1532262076748038 1 3 8 44 19 6 2 -1
1532262076763997 -2 -1 -3 -19 1 5 -3 -3
1532262076855768 -2 -1 4 -10 16 0 -3 -1
1532262076862741 -2 0 -3 -12 -13 -7 -11 -4
1532262076876695 2 -3 8 12 -1 -14 -3 3
1532262076927559 -1 13 5 -9 -52 6 -10 -6
1532262076951495 -1 -37 -16 -7 -2 -14 6 2
1532262076981415 6 4 -5 -29 -7 4 4 0
1532262077003356 -3 1 1 -6 20 3 -3 1
1532262077200828 -5 17 2 4 1 -9 -5 -3
1532262077297569 7 3 10 2 -8 -3 6 0
1532262077327489 1 43 7 -10 -5 -2 -3 -2
1532262077410268 -1 13 11 0 -2 -12 -1 -1
1532262077431212 1 34 7 -7 -10 -10 -14 -1
1532262077564854 0 -8 -4 -8 -1 14 0 1
1532262077717447 1 -15 -9 -8 0 7 0 0
1532262077732406 -2 -19 -2 2 -1 -7 0 -3
1532262077814188 -4 -10 -4 -3 -11 -14 -6 -9
1532262077837126 -2 -7 1 -3 24 16 3 0
1532262077994705 -1 -8 -5 -2 -8 9 5 -3
1532262078067510 -6 -7 -8 -15 -11 -1 39 1
1532262078203148 -3 -3 -2 10 2 -2 -40 -6
1532262078229093 -1 3 5 31 42 -31 10 2
1532262078294902 -2 -3 -2 -1 -2 6 3 -2
1532262078317840 20 -1 -3 -5 -9 10 4 46
1532262078353745 -5 0 2 4 11 0 3 3
1532262078383665 1 -1 -2 1 2 4 3 18
1532262078437521 -10 -6 -6 -1 -6 3 -1 5
1532262078482401 5 -2 -2 2 28 5 2 19
1532262078490380 17 1 1 -1 -12 -14 2 2
1532262078526283 11 -1 -4 -2 -10 -12 -1 13
1532262078594102 -9 -1 -1 0 20 7 2 20
1532262078720764 -3 2 3 2 4 6 5 -3
1532262078742705 2 1 -3 -5 -8 -3 -10 -2
1532262078775617 -28 -5 -2 0 14 -7 -7 14
1532262078796561 10 1 -1 2 2 -3 8 -6
1532262078841441 -2 -4 -5 -1 5 19 22 7
1532262078870363 -3 -2 -3 -3 -6 -4 -2 -18
1532262078894300 -15 0 1 0 -3 -1 -1 -6
1532262078924219 -2 -3 -2 1 0 -8 5 -7
1532262078946161 -10 0 -3 -3 -14 5 5 -51
1532262078961121 18 -1 -3 -1 4 -25 0 3
1532262078992038 -3 -1 0 -1 -8 3 -1 0
1532262079028939 4 1 2 4 7 17 0 13
1532262079074817 -12 -5 -3 -6 -13 18 -6 -7
1532262079104737 -11 -4 -5 -5 -5 9 5 17
1532262079110721 -4 3 4 8 37 8 5 -10
1532262079139644 -6 28 10 1 -18 6 14 8
1532262079157598 -37 34 23 -2 13 -17 -41 -86
1532262079240374 2 -11 -10 -6 -13 -44 9 9
1532262079355067 -23 -25 -19 -12 -8 9 -19 -17
1532262079397953 -13 3 -6 -3 -19 30 22 -29
1532262079419894 1 -9 -4 -2 -4 -16 0 -10
1532262079443830 -22 -7 -11 -3 -1 0 -4 -37
1532262079464774 4 -2 3 -1 -2 -5 -3 -7
1532262079508657 -3 -4 -5 -1 -5 -12 -2 0
1532262079515638 2 4 7 2 0 -3 -2 -3
1532262079563510 0 -1 4 -3 -8 -8 -2 -4
1532262079575478 -8 4 13 1 -2 -23 0 3
1532262079585452 1 -47 -8 1 6 27 1 -7
1532262079628337 1 -22 1 4 5 14 24 0
1532262079673218 -3 -32 -1 -2 2 -4 4 -8
1532262079755995 3 9 -3 -3 -2 -5 3 4
1532262079769958 -8 -23 -9 -2 -47 -4 -2 -1
1532262079817830 5 -5 -17 -7 13 5 19 12
1532262079861712 9 -4 -10 -2 10 -3 12 3
1532262079914571 8 -2 5 11 27 13 45 68
1532262079936525 -6 -28 -9 -2 -1 0 32 35
1532262079958454 -16 -8 -9 -7 9 -3 -43 -23
1532262079996352 -11 -57 -10 17 -6 -27 -11 -2
1532262080041233 -3 -33 -12 0 4 3 0 -15
1532262080079132 1 25 8 20 7 -1 -5 16
1532262080102070 4 10 12 -2 -23 2 13 8
1532262080130008 4 72 12 -9 -21 -8 12 -2
1532262080192828 4 7 6 6 -2 1 16 15
1532262080401269 -3 17 5 -4 10 -3 -5 7
1532262080476070 1 -15 0 0 -4 3 -2 9
1532262080572811 -4 -14 -6 5 3 -2 -8 -2
1532262080581787 -1 3 3 5 2 2 6 -6
1532262080634646 -2 2 -2 -11 -3 1 10 4
1532262080746347 -1 11 -3 -9 -1 -3 -5 -2
1532262080799206 2 -7 -2 -5 -5 7 11 18
1532262080822153 1 -9 1 -3 -5 2 20 11
1532262080844086 -2 -5 -2 1 1 -1 -19 -7
1532262080881984 -6 1 0 3 -6 -2 -21 -46
1532262080971744 -4 -12 -7 -11 -7 -1 -4 -5
1532262081001664 1 -2 -2 0 0 -1 5 3
1532262081098405 1 0 7 -6 -17 -5 -3 -2
1532262081121344 -1 -1 -4 -2 13 5 10 10
1532262081181184 -1 -3 -1 -2 2 2 3 10
1532262081234043 0 1 0 -10 9 -2 2 1
1532262081249008 -4 -5 -7 -10 -6 -2 0 -5
1532262081308843 0 -6 -4 -10 1 0 -3 6
1532262081374667 -1 -4 -3 -7 -3 -1 -1 0
1532262081434506 -3 -3 -1 4 -2 -3 2 2
1532262081528265 -1 -4 -2 3 -5 -2 10 1
1532262081548203 0 -2 -2 0 5 -1 3 4
1532262081580130 1 -1 1 -2 -5 1 -13 -4
1532262081601061 1 0 5 19 -11 -4 -12 -2
1532262081624001 -1 -1 -2 -2 -7 -2 -3 -7
1532262081660901 0 -1 -7 -23 3 -1 12 15
1532262081674864 -4 -4 -5 -9 -6 -3 3 4
1532262081720742 -4 -5 -5 0 -13 -2 0 -4
1532262081764624 -1 -1 -2 -5 -1 -6 2 1
1532262081803520 -3 -1 -2 -2 -1 -2 -3 0
1532262081848400 -1 0 0 -11 -1 0 2 -4
1532262081877322 -1 0 -1 10 6 -5 -1 1
1532262081894277 -1 -2 2 7 1 0 -1 -3
1532262081924197 0 -1 0 4 -7 -13 -4 -2
1532262081998997 -1 -3 -6 -8 17 0 -4 -2
1532262082013957 1 1 4 -7 -33 -35 -5 1
1532262082022943 -1 -2 -3 0 -25 -12 -1 0
1532262082065818 1 0 -1 -3 9 -12 -4 0
1532262082088757 0 2 -1 2 -22 -2 1 0
1532262082133637 -2 -1 -3 -5 -51 -55 -12 -2
1532262082173532 -3 2 -4 4 9 4 5 6
1532262082216416 2 -2 -1 -4 39 40 5 5
1532262082253316 10 8 -2 -7 -21 11 -1 -1
1532262082276256 -3 -9 -4 -4 -17 -16 -6 1
1532262082297200 3 -26 -3 -1 -3 19 4 1
1532262082345071 -8 6 -4 -7 23 39 -26 -11
1532262082382970 1 16 0 1 3 29 6 13
1532262082410896 5 6 3 -1 -52 -40 -20 -1
1532262082463764 10 11 0 2 -2 3 14 7
1532262082477717 -4 5 3 6 1 5 -9 -1
1532262082508634 -4 -22 -3 -1 -16 0 -3 -3
1532262082560496 0 -8 -10 -12 -10 -7 4 5
1532262082568474 3 3 2 -1 9 -94 -24 -3
1532262082601386 1 -3 -2 -1 1 -31 -8 -5
1532262082606373 -1 3 -3 -7 -3 -6 12 -1
1532262082635296 -3 8 6 12 15 24 -10 -4
1532262082657236 -2 2 -6 -3 18 6 3 -1
1532262082680176 -2 7 7 12 41 17 -7 -3
1532262082704112 1 2 -15 -32 -9 -4 -3 0
1532262082726053 4 4 9 21 14 0 13 5
1532262082763952 -3 -2 0 14 -54 -34 -13 -5
1532262082785893 2 2 -2 -26 12 7 -2 2
1532262082832767 -4 -3 -1 19 1 6 -1 -2
1532262082853711 -3 -5 -7 -7 2 5 -9 0
1532262082877648 0 2 3 17 29 34 9 1
1532262082914549 1 2 5 2 -24 -30 -7 3
1532262082967408 -2 0 -3 -7 -17 -21 28 5
1532262082990378 0 -1 1 9 0 12 6 1
1532262083049189 -1 -6 -3 -2 -3 -12 -8 -2
1532262083063152 -1 1 1 -2 2 4 -9 -1
1532262083152911 -1 -4 0 -2 -7 -8 1 -1
1532262083283562 -2 -5 -4 -3 -16 -22 0 -4
1532262083297524 0 1 0 0 -2 4 -1 1
1532262083304506 -1 -17 -3 3 -11 0 -3 1
1532262083365343 0 16 3 -2 14 3 2 -1
1532262083415210 -5 38 2 -4 0 -4 -4 -3
1532262083560820 -2 -17 1 -3 -7 -10 -3 -3
1532262083597722 1 -1 -1 -2 -9 -8 -1 -3
1532262083640608 1 -3 -2 -1 -23 -6 -1 0
1532262083663546 -1 -3 -3 -1 -4 -8 -3 0
1532262083688480 0 -3 1 -1 1 0 -2 -1
1532262083732362 15 5 2 3 4 16 1 17
1532262083814143 -13 8 0 -2 -2 -33 -14 -97
1532262083823120 12 3 -1 -1 3 2 3 6
1532262083867002 0 -7 -2 -5 -6 -18 -2 -15
1532262083895925 -6 -8 -3 -2 -2 24 2 4
1532262083902906 6 -2 -3 -3 -3 -13 -1 -3
1532262083964741 -5 -10 -3 -5 -3 -1 0 -2
1532262083979701 -5 -5 -1 -3 6 21 -5 -3
1532262084033557 -7 -2 -1 4 -8 -28 -4 12
1532262084047519 -3 -4 0 5 0 8 -3 -9
1532262084098383 -7 -9 0 5 5 17 6 -4
1532262084113343 0 4 1 2 -46 17 -1 -2
1532262084166202 0 -5 0 -1 16 9 -1 9
1532262084189153 2 2 -3 -2 5 16 -2 -5
1532262084210088 -11 -2 0 -2 1 -4 2 -3
1532262084255961 4 0 -2 -2 24 5 -2 -5
1532262084309820 -7 1 1 -1 -11 -14 1 -16
1532262084322783 3 -1 -4 -2 -5 -1 0 -2
1532262084345721 13 0 -1 0 0 -14 -2 -10
1532262084413540 -4 -1 -2 -3 -5 -14 -7 5
1532262084428500 2 0 -1 -2 -15 -8 -2 -1
1532262084442463 -5 2 -2 -3 12 24 1 -5
1532262084465402 0 -1 1 -1 2 4 0 1

1532262084495322 10 -2 -1 -1 -4 5 -7 0
1532262084564138 -5 -1 1 2 -4 5 -6 -5
1532262084571119 -1 -1 -4 -3 -3 -13 -2 -5
1532262084630959 0 -1 0 0 -3 -6 -6 -3
1532262084645919 -17 -1 2 2 8 4 3 -7
1532262084690799 3 1 0 -1 2 -7 -2 -1
1532262084713738 4 -2 -1 -1 5 -4 -1 5
1532262084751637 2 -3 -1 -2 1 0 2 -1
1532262084810479 -3 -1 0 -1 -12 -9 0 -2
1532262084835412 5 -3 -1 0 2 -18 -2 -1
1532262084908609 0 -3 -2 -1 1 0 4 1
1532262084931548 -6 -1 -1 -3 -1 -3 -1 1
1532262084945511 -4 1 -2 0 3 8 3 -7
1532262084998369 -2 0 0 1 1 2 -3 -1
1532262085028289 0 -1 -2 -2 -9 -5 3 -5
1532262085051227 -1 -2 -2 -1 -5 -7 -2 2
1532262085089127 -1 -2 -1 -2 1 2 1 -5
1532262085118049 1 1 -1 -1 0 -1 3 -2
1532262085134007 0 -2 -2 -1 7 3 -1 6
1532262085201825 -3 -1 1 -2 12 6 0 1
1532262085230748 -2 -2 -2 -3 -2 0 -4 -4
1532262085276624 -2 -2 -3 -2 -3 -3 -2 0
1532262085304550 -3 -2 -1 0 0 7 -1 -2
1532262085321505 -1 -2 -1 -1 -1 -3 0 -1
1532262085345442 -1 -3 2 0 -2 0 -1 0
1532262085389324 -2 -1 -3 -4 -4 -6 -2 -1
1532262085411265 0 0 0 2 -1 3 -1 0
1532262085471106 -3 -3 -1 -8 4 -4 -3 -2
1532262085530946 1 3 5 12 5 16 1 1
1532262085553884 0 0 0 3 -22 -1 0 1
1532262085590785 -3 1 13 37 0 -5 -3 -2
1532262085613723 -2 -4 -26 -15 -11 -7 -3 -2
1532262085651622 2 5 8 21 -12 4 -16 -2
1532262085674560 0 1 6 3 21 2 6 0
1532262085717446 0 0 0 -18 8 10 1 -1
1532262085765318 -1 -1 -5 2 -5 -13 -5 -3
1532262085772300 1 9 -7 1 11 -5 -5 1
1532262085794241 -10 -1 1 0 16 3 4 -2
1532262085807206 3 10 1 1 11 -16 -9 -1
1532262085831142 1 -23 6 1 4 -7 -5 -2
1532262085907937 -1 -11 -8 1 13 -4 -6 -3
1532262086057551 4 52 15 8 17 8 5 2
1532262086080475 -5 6 5 6 6 3 4 -1
1532262086198161 0 6 2 -1 -2 -17 -6 0
1532262086230076 1 -1 3 1 -3 -22 3 2
1532262086297894 2 21 8 5 5 -5 2 -2
1532262086320833 -2 -20 -2 5 -8 -11 -3 -2
1532262086356736 0 6 4 -8 14 12 1 0
1532262086432534 -1 -5 -6 -3 -6 -19 -5 -3
1532262086635990 0 2 -3 -9 -3 -6 0 -2
1532262086716774 0 -9 -5 0 12 5 -3 0
1532262086808544 -2 0 2 1 15 9 -4 0
1532262086845430 -5 -21 -6 0 8 -29 0 -3
1532262086873368 1 -2 1 9 18 11 4 0
1532262086919233 1 4 -1 -14 -19 7 3 0
1532262087069830 0 -2 7 27 30 -11 7 0
1532262087182528 3 8 5 7 -75 -28 -24 -4
1532262087202475 0 0 1 -5 -34 6 -1 -1
1532262087288246 -2 2 -1 -2 -3 -2 -2 0
1532262087310187 -1 5 3 4 4 11 2 0
1532262087378005 -9 -8 -12 -3 57 31 -2 -17
1532262087398949 -6 -1 1 6 -8 -1 -1 -1
1532262087571488 -3 4 -2 -1 2 -3 -1 -2
1532262087618377 -1 -3 13 18 2 2 -17 -9
1532262087685184 1 1 -6 -7 -3 -3 9 5
1532262087700144 -4 -3 0 -2 -4 -2 -4 -5
1532262087751008 -9 -4 1 3 -16 -32 -20 1
1532262087893627 13 -4 -2 -5 -13 -4 1 7
1532262087930528 4 -2 2 1 -1 2 4 -1
1532262087983387 6 -3 -2 -1 2 4 7 -8
1532262088188838 6 -2 3 3 21 8 -2 13
1532262088208784 -2 -3 -2 -1 -7 -10 -2 5
1532262088261643 9 -4 -3 -3 -5 9 1 4
1532262088312507 14 -1 -1 0 5 10 -1 -4
1532262088349408 2 -1 -1 -3 0 -11 -1 9
1532262088381323 -14 -2 -1 0 2 3 -1 -6
1532262088451136 -5 21 1 -1 7 1 2 -31
1532262088495019 7 -3 -11 -2 -11 7 6 4
1532262088515963 3 -18 -11 -2 -9 12 8 38
1532262088553861 58 34 12 1 26 16 17 51
1532262088600736 -10 21 8 1 2 -35 -7 -20
1532262088612704 -17 1 7 -10 -13 -5 -12 6
1532262088634645 3 5 3 1 19 33 -6 -1
1532262088751334 -59 -16 -6 -4 -20 -10 -4 -63
1532262088795216 33 -3 2 6 17 -3 5 5
1532262088833114 0 10 7 2 -1 -9 0 -1
1532262088852064 -5 6 2 1 -5 -4 -1 -5
1532262088883979 -3 9 2 1 -3 3 -3 -6
1532262088951809 8 18 10 0 -1 -5 -2 5
1532262088997675 1 -14 -4 -1 -1 -24 -2 3
1532262089087435 8 33 15 1 0 19 0 1
1532262089094416 -3 -27 -6 5 -3 1 -2 -1
1532262089145280 6 16 8 5 4 -3 25 15
1532262089175200 2 23 13 -1 0 -5 -2 4
1532262089229056 4 -5 -5 -10 -35 -1 50 26
1532262089258975 -1 -26 -14 -11 12 0 -30 -12
1532262089303856 0 25 14 32 18 13 8 -4
1532262089355717 -9 46 3 -24 -57 -14 -35 -2
1532262089389635 -6 5 -10 -12 13 -1 -4 -34
1532262089424533 2 -16 -11 -12 8 -6 4 -5
1532262089446491 -8 -24 -11 -3 -8 1 1 8
1532262089461434 7 -4 -6 -11 -16 -6 -17 -41
1532262089497339 0 -10 -4 -1 -15 -7 -72 -4
1532262089514294 3 6 -5 -2 2 -3 11 13
1532262089599067 1 -2 -3 -12 -14 5 6 32
1532262089631988 -8 -11 -4 -18 -10 -10 -24 -30
1532262089850394 -2 0 0 -3 3 -2 -41 1
1532262089964090 1 0 0 -6 -6 0 2 8
1532262090044877 1 -3 3 1 -16 -6 -10 -1
1532262090135632 -3 -3 4 -1 -2 0 -8 -39
1532262090205444 -2 17 -2 -9 -2 -2 -7 1
1532262090285231 -3 -3 -6 -8 -2 -2 -11 -5
1532262090323130 -3 -3 -4 -3 2 1 -10 -22
1532262090345072 -2 -3 -4 -2 1 -3 -4 10
1532262090450789 -1 5 5 4 -6 -2 -3 5
1532262090460762 1 -4 -3 2 2 3 16 5
1532262090476720 0 -2 -7 -6 -2 -1 1 3
1532262090525589 -4 -3 -6 -5 -1 0 2 -3
1532262090539552 -1 1 -3 -2 1 -2 -4 -5
1532262090593407 -1 -2 -8 -21 -3 -1 0 1
1532262090765946 -3 -3 -4 3 2 2 3 2
1532262090794869 3 1 7 29 15 1 4 3
1532262090871663 1 2 0 16 7 0 -3 2
1532262090885626 -2 8 67 27 -18 -8 -13 4
1532262091044202 -2 -1 -4 -5 -7 -2 7 -1
1532262091073125 3 5 11 7 0 2 2 -1
1532262091111023 1 -2 -4 -8 -5 -3 -1 5
1532262091126000 1 2 4 7 -2 1 -1 -3
1532262091139947 2 1 5 5 1 0 10 9
1532262091170863 0 0 -1 -5 -8 0 1 7
1532262091269599 -1 2 2 10 -4 1 -6 3
1532262091283562 -2 -3 -1 -2 6 0 -3 -8
1532262091365343 2 1 1 -3 -1 15 -32 -3
1532262091411221 2 -1 2 5 -18 -5 13 7
1532262091434159 -3 1 -3 -11 -8 -2 2 -3
1532262091471060 0 0 0 0 0 -4 1 -2
1532262091516937 18 0 0 2 4 -2 16 13
1532262091568799 7 18 2 -1 7 30 2 32
1532262091628639 -9 -6 -3 -2 9 21 -2 -12
1532262091703439 -2 -4 1 -8 -13 13 7 -3
1532262091725380 -1 3 -2 -1 -12 16 10 -1
1532262091779237 -18 -4 3 22 -5 -26 -6 -5
1532262091801178 -4 -21 -7 -6 -41 -23 -14 -6
1532262091839076 2 16 5 9 36 30 9 1
1532262091868996 13 7 2 -4 -6 24 1 1
1532262091905899 -2 -1 -6 -6 -22 -21 -13 -5
1532262091957759 0 -1 -3 -1 -23 -13 6 -1
1532262091988676 -2 0 -1 -7 -10 -19 -1 -1
1532262092055498 -5 -5 -10 -38 -35 5 -6 -5
1532262092095391 -3 0 -10 23 29 23 1 -3
1532262092124314 -1 -1 6 59 -34 -11 -4 -2
1532262092169194 0 -2 2 -1 5 12 2 -1
1532262092206095 0 2 3 -7 21 0 -4 -4
1532262092266932 -1 -2 -4 -5 4 -3 8 1
1532262092393594 2 -3 -1 5 15 7 13 2
1532262092477379 3 1 1 -2 9 4 -1 2
1532262092507290 -3 -4 -4 -4 -8 11 3 -2
1532262092677834 2 -1 -1 -8 -24 -11 3 -1
1532262092725705 -2 6 -5 -3 -11 -9 0 -2
1532262092761609 -5 -2 -1 -6 3 -11 -6 -8
1532262092768591 -4 -4 -2 1 -1 -13 0 -5
1532262092805492 14 -12 0 0 4 -4 -5 -7
1532262092836409 24 2 1 -3 -10 1 3 2
1532262092890266 -4 1 -1 0 0 -13 -3 -4
1532262092958084 -5 2 0 4 -2 7 -2 -1
1532262092979028 0 1 -1 -1 -7 -2 5 3
1532262093007951 -13 -3 -5 -3 -17 -4 -4 5
1532262093061807 -4 25 4 -5 -2 3 0 -7
1532262093091731 -3 22 5 2 0 -6 -5 -4
1532262093144586 -10 -24 -5 -1 -1 0 -2 0
1532262093190463 1 -13 -1 -2 4 -13 0 -2
1532262093212404 0 6 2 -1 -5 13 -1 -1
1532262093234345 -3 -3 -3 2 6 2 2 -1
1532262093247311 7 6 1 -2 -10 -26 -1 3
1532262093279225 -5 -8 -1 -8 -8 -4 0 -4
1532262093307151 4 8 -2 -4 14 19 4 0
1532262093354026 -1 4 1 1 37 7 -2 -3
1532262093375967 -5 -7 -5 -6 -24 -47 -8 -5
1532262093511604 -1 -3 -1 0 13 6 3 -2
1532262093533546 -2 -1 -1 -5 -29 -2 -6 2
1532262093593385 -3 -2 -2 -2 4 6 -3 1
1532262093631283 0 -5 -2 3 11 -12 -1 0
1532262093676170 -2 2 1 4 9 16 -9 -1
1532262093737008 -9 -6 -5 -7 -6 -2 -6 21

1532262093780891 -8 -1 -2 -1 34 -14 -7 -11
1532262093833750 4 1 2 3 30 0 4 -2
1532262093856690 -1 12 -1 -1 -15 -6 -4 -2
1532262093953984 0 1 0 0 -2 5 -9 -4
1532262094013824 1 -27 1 0 5 -2 -1 -1
1532262094050725 -17 40 4 -1 -13 -8 -19 -3
1532262094156445 4 0 -2 -3 0 2 -9 -6
1532262094170406 -1 -54 -7 -2 -3 -4 6 -9
1532262094216283 -9 -24 -3 0 5 48 9 8
1532262094238224 11 -16 -3 0 -1 5 0 -74
1532262094292080 -4 -15 -3 2 -1 -19 -21 16
1532262094314021 -9 7 -7 -4 -4 -5 -20 -31
1532262094343941 -3 8 0 1 4 55 0 -34
1532262094409766 -13 7 -4 -7 -10 -80 -18 -36
1532262094433702 1 -6 3 -2 -6 29 7 33
1532262094456640 45 96 -1 -4 -3 10 12 26
1532262094478582 36 33 6 -2 -2 25 3 32
1532262094524459 -16 -40 8 4 -2 -7 5 59
1532262094636203 -2 -22 -5 3 1 10 18 18
1532262094801035 -23 -28 -6 -1 -8 23 21 5
1532262094845915 0 0 -6 -3 -16 -16 -2 22
1532262094923707 -22 75 2 -3 1 -7 1 -3
1532262094950634 54 17 -9 -1 -4 11 -13 82
1532262094973575 -30 -7 0 -3 -3 -9 8 -15
1532262094996513 -12 -21 -3 3 7 6 3 -22
1532262095033426 3 0 -25 -6 -2 6 -15 -9
1532262095047377 19 -22 -1 0 8 8 11 -22
1532262095101232 2 0 3 -1 -15 -7 -17 -1
1532262095131152 6 -1 -6 -1 2 -1 -7 -7
1532262095176032 -24 7 1 -2 -9 -6 -6 -17
1532262095205350 -13 1 -3 -1 2 -7 6 28
1532262095221308 -13 8 -3 -4 -8 -7 -7 11
1532262095258408 -10 77 8 -3 -12 -4 -6 7
1532262095281348 15 12 5 -6 -5 -2 1 -7
1532262095319247 10 75 9 0 2 3 2 4
1532262095332212 -3 -26 -1 -4 0 -1 5 2
1532262095365136 -5 -11 -1 8 1 -3 -3 0
1532262095380096 2 -9 -1 -2 -1 -2 -4 1
1532262095409018 1 -7 0 -1 0 -1 6 -3
1532262095438945 0 -4 2 -1 -3 1 3 3
1532262095451903 -3 -6 -4 -3 -2 -5 2 7
1532262095520720 1 -3 5 -3 0 -1 -3 0
1532262095542662 -4 -4 -4 -17 12 6 -3 -1
1532262095595521 0 -1 -1 -7 -4 9 0 0
1532262095686277 -2 -3 -1 7 -3 3 -1 -1
1532262095701237 -4 -3 -2 -8 -5 4 -2 0
1532262095738139 -5 -3 -4 -8 -7 4 -2 -2
1532262095752102 0 -2 -3 8 15 16 -1 -2
1532262095769056 0 3 8 22 25 19 2 -1
1532262095821915 -2 -2 2 -1 -5 -8 -3 1
1532262095826901 -1 -1 -1 -1 0 -2 -1 -2
1532262095874774 0 2 4 0 6 6 1 -1
1532262095896715 -2 1 0 -5 16 6 -1 -1
1532262095919654 -2 -1 -1 5 -4 -2 -3 0
1532262095941595 0 1 -1 -1 -3 -8 -2 0
1532262096045318 1 4 5 14 -8 25 3 1
1532262096115131 -2 -2 -4 -4 0 14 -2 -2
1532262096332549 -1 -3 -2 -5 -12 -17 1 0
1532262096348507 1 4 4 0 1 -16 3 2
1532262096354506 1 0 -4 -28 7 -14 3 -1
1532262096370447 -2 -2 -7 -2 39 8 8 2
1532262096398373 -4 -5 -1 -2 -19 -15 -10 -2
1532262096429290 -5 -12 -18 -36 -29 -17 -35 -6
1532262096435275 0 2 -1 12 -24 -11 -6 -2
1532262096738468 1 58 26 11 -91 -13 9 0
1532262096812267 -6 -17 -15 -7 -10 -11 4 -1
1532262096833211 2 8 2 32 8 16 6 2
1532262096855152 -1 3 -3 -2 -3 9 16 5
1532262096923968 1 20 3 9 19 0 -1 -1
1532262097006747 1 -1 2 -2 -4 -18 6 0
1532262097051626 -1 -27 -1 23 20 12 3 0
1532262097119445 -1 -24 0 -5 37 12 7 0
1532262097225162 -9 -30 -13 -22 -18 7 2 -4
1532262097278021 -6 -34 -17 0 21 20 9 -2
1532262097450559 4 -20 5 6 12 4 8 6
1532262097501424 -5 -1 -2 -15 -10 -17 -41 -8
1532262097527354 0 -8 -9 7 -50 -5 -12 -3
1532262097637060 -24 -3 -4 -9 0 10 -1 17
1532262097667978 0 53 2 -5 -6 0 3 -7
1532262097733802 2 -4 -1 -12 -28 -10 -4 0
1532262097808602 0 -3 2 0 18 7 -2 1
1532262097830544 -9 -5 3 1 -1 -5 -7 1
1532262097945236 -2 6 -1 -2 -2 -11 -13 -21
1532262097965183 -24 12 0 0 3 -6 3 -54
1532262098062922 -16 -21 -7 -8 -11 -4 -17 -32
1532262098100821 9 3 -3 -5 -6 -6 -3 -9
1532262098131738 0 4 2 1 3 -10 -2 6
1532262098175621 -18 -7 -4 -7 -15 4 -6 6
1532262098207536 6 5 3 3 5 7 16 -5
1532262098251417 -6 3 3 6 16 8 -1 -31
1532262098303280 -11 0 -2 0 -1 7 9 13
1532262098325221 -1 2 2 1 -6 0 2 -7
1532262098351152 13 1 -1 1 -3 -3 1 3
1532262098363120 -1 3 2 -1 4 -1 2 8
1532262098385061 -3 -2 -5 -1 -4 9 2 4
1532262098545631 5 0 -1 -4 -5 23 -3 1
1532262098590512 -12 -2 -3 -7 -33 -44 -3 -14
1532262098596495 -13 24 12 11 -45 -3 11 -15
1532262098625418 14 13 -3 2 90 50 12 28
1532262098650351 36 11 1 -3 -19 -7 -25 7
1532262098663320 34 -2 7 11 -12 15 9 17
1532262098710191 13 -10 -8 -7 -12 -14 -18 -14
1532262098732133 -13 -1 5 6 42 2 1 -4
1532262098780005 -15 -1 -4 1 3 11 15 -5
1532262098807930 2 -4 1 -3 8 -19 -7 3
1532262098873754 -4 1 -3 -4 1 14 -2 -4
1532262098902676 1 0 0 -1 3 -17 -2 0
1532262098965508 0 3 0 -3 -3 -3 3 -4
1532262099010389 5 1 5 2 -6 -22 -6 -4
1532262099077210 -1 10 -2 -4 4 -5 -8 -3
1532262099105135 1 30 -1 3 0 -9 -2 7
1532262099129071 7 -6 -4 -7 -1 -6 -1 9
1532262099151012 -20 -19 -4 -6 0 5 -7 -5
1532262099164975 0 -23 -7 -7 -4 6 0 -1
1532262099204868 13 -22 -7 -1 -42 -16 29 16
1532262099272687 -6 -10 -11 -8 -12 -5 -22 6
1532262099333525 15 -13 -1 8 -29 -4 22 18
1532262099370425 0 -19 -4 -4 -1 -2 21 -4
1532262099405332 -3 -51 -13 1 12 1 -17 -5
1532262099430266 -4 -56 -12 -3 3 0 6 16
1532262099518031 3 17 25 61 -5 2 3 10
1532262099654665 1 22 -7 -7 -8 0 2 -6
1532262099714506 4 45 8 -2 -9 -1 4 5
1532262099775343 2 13 4 -2 -7 -1 -6 -8
1532262099781335 -1 3 -7 -4 0 -2 1 -3
1532262099835183 2 -2 9 7 -8 -1 -4 0
1532262099941898 -1 -7 -6 -9 9 -2 13 8
1532262099990767 0 -5 -1 0 -1 -3 -2 1
1532262100013705 0 -3 -4 -4 -6 -1 3 2
1532262100058585 -1 1 2 0 -1 -2 -2 1
1532262100097496 -1 0 2 -10 -8 -2 12 2
1532262100127401 0 1 3 -9 -3 3 2 1
1532262100151337 -3 -1 1 6 4 3 -1 -3
1532262100194223 -10 -4 -5 -7 12 4 -1 3
1532262100269022 -6 -10 -32 -32 -16 -13 -10 1
1532262100358783 1 3 6 6 4 -4 7 3
1532262100448542 0 -2 -7 -4 -2 5 -4 3
1532262100478463 1 -1 -2 -9 1 0 0 1
1532262100516361 -2 -1 -3 -8 -8 -1 -9 -6
1532262100635044 3 -2 -2 -6 -8 -6 2 -3
1532262100703860 -2 -3 -6 -13 -8 -2 12 0
1532262100817556 -1 3 6 -3 4 1 -18 -3
1532262100869417 -3 -3 -8 -14 12 0 -2 -5
1532262100876399 1 -4 -6 -19 13 -3 -9 -1
1532262100937235 -2 -1 0 2 -6 -7 10 0
1532262101093817 -1 0 4 5 -7 -3 1 -5
1532262101131716 -4 -2 -3 -4 -4 -6 -6 -9
1532262101183577 0 -3 0 3 -13 -12 9 6
1532262101371076 -2 2 0 8 -1 -3 2 -1
1532262101454852 -2 -2 -3 -3 -1 20 -1 -1
1532262101506713 -1 -1 -1 2 0 -2 2 1
1532262101618414 0 -26 -4 -2 -4 14 18 5
1532262101633374 -3 -19 -5 -3 28 39 7 4
1532262101701193 -9 10 1 2 -15 2 3 -9
1532262101791950 -3 -6 -5 -9 4 33 5 -1
1532262101828851 2 -3 -1 -4 -16 17 2 0
1532262101849796 6 -9 -6 -2 -10 -6 -3 0
1532262101909636 2 3 3 6 -5 2 5 1
1532262101933572 -5 -5 -3 -2 28 9 -4 -4
1532262101956536 -1 -4 -4 0 -32 -13 -8 1
1532262101978451 -2 0 -4 -15 -26 -4 -4 -2
1532262102062227 -3 -4 -8 -1 -28 -9 1 -2
1532262102099129 2 0 -1 -13 -5 -17 16 3
1532262102138025 -1 -2 -4 -19 10 2 -5 -1
1532262102144009 -1 0 1 3 10 9 -2 -3
1532262102195870 0 0 1 -3 1 4 15 -2
1532262102204846 -3 -3 -2 -4 -21 -3 -13 0
1532262102316547 2 0 1 14 10 18 7 1
1532262102391348 -1 0 -1 -4 -13 -22 -8 -3
1532262102473129 0 -8 -5 -2 7 -9 -1 1
1532262102578846 -2 -12 -7 -6 -10 -25 -3 -2
1532262102626718 0 52 -11 -7 -10 -4 -8 -10
1532262102715480 -1 -1 -3 3 17 10 -4 -2
1532262102737422 1 6 2 6 -9 -7 1 1
1532262102758366 -3 1 -1 -1 -2 -6 -2 1
1532262102782313 0 -2 0 0 5 -7 -4 -1
1532262102850122 -1 6 0 -6 -11 -12 0 -3
1532262102855107 0 0 -1 -2 -6 -2 0 1
1532262102899987 -1 -5 -4 -5 -13 -10 -7 -3
1532262102993736 5 -5 -1 -1 1 3 3 3
1532262103012686 -3 -4 -1 -2 1 -6 -3 0
1532262103059561 3 -1 2 6 -4 5 2 4
1532262103103442 0 -14 -8 -10 -6 2 -1 -12
1532262103179241 -10 -6 -2 -4 -7 1 -1 -8
1532262103192205 -7 -4 -4 -4 -2 26 -1 -5
1532262103218136 -8 -16 -10 -9 -11 18 -1 7
1532262103261022 5 7 7 17 22 -13 5 1
1532262103275983 -7 -10 -11 -9 -8 10 -4 -6
1532262103298920 -4 -7 -5 -5 10 -30 0 -3
1532262103321859 -5 4 1 -9 -15 -15 -3 0
1532262103411619 -3 2 0 -5 15 -13 2 -2
1532262103434558 5 2 2 5 15 -1 -6 -34
1532262103515342 -2 -3 1 -1 -2 -21 -2 2
1532262103539278 1 0 -2 0 2 2 2 -1
1532262103561218 25 -1 -3 -2 16 25 -2 2
1532262103584160 -3 -1 -2 -4 0 -6 -2 -6
1532262103621059 -7 -3 -3 0 -3 2 -1 5
1532262103658958 2 -3 0 1 2 -15 -9 -9
1532262103703837 -5 -3 -3 -2 -2 -19 -9 -1
1532262103725779 -4 -1 -1 -2 -5 11 19 3
1532262103756696 3 1 -3 -3 1 48 -1 13
1532262103801576 3 2 2 2 -2 -3 7 -5
1532262103823518 1 -1 -1 -1 0 -3 6 -2
1532262103860418 -17 0 0 1 3 -1 -3 -21
1532262103868398 9 -5 -3 -5 -5 13 -12 -45
1532262103884354 -5 1 0 0 9 -9 -8 -11

1532262103921257 3 -1 1 1 0 1 -1 37
1532262103959154 -4 0 -1 -3 -4 -41 -7 -25
1532262104010927 -3 -1 0 -1 -1 2 3 2
1532262104048826 2 -3 -2 -1 -2 -19 -3 38
1532262104054810 3 -2 -1 0 0 6 11 -13
1532262104078746 2 -3 -2 -3 -3 -8 7 -10
1532262104101684 5 0 -1 0 -1 16 -10 -8
1532262104123635 -2 -1 0 -1 2 18 -3 -7
1532262104137588 13 1 0 3 3 23 -3 -15
1532262104174490 -1 -2 -2 -2 -1 -1 -3 11
1532262104191445 -2 -1 -3 2 0 14 2 -5
1532262104237321 -2 -2 -2 -1 -1 -12 10 10
1532262104244303 -2 -2 -1 -1 -1 -14 -3 -13
1532262104268239 1 -1 -3 -4 0 -2 2 1
1532262104350020 2 0 -1 1 -3 -24 -3 2
1532262104400884 1 0 -1 0 -1 -10 -7 -4
1532262104460724 -8 -2 0 -2 -1 -1 -6 -9
1532262104536522 9 0 -2 -2 -2 -19 -8 16
1532262104558463 4 -3 0 -2 -1 -1 6 2
1532262104604347 -5 -2 -2 0 -1 -19 -7 -11
1532262104634260 -1 0 -1 -1 -1 6 -3 2
1532262104663183 -2 0 0 -1 -2 5 2 4
1532262104678142 1 -2 -2 -1 -1 0 1 7
1532262104700085 5 -2 -3 -2 -1 1 -3 1
1532262104753941 0 1 1 0 -2 -1 2 2
1532262104775881 -1 -2 -1 0 0 4 0 -1
1532262104820761 -2 -1 -2 -3 -2 -6 -15 -11
1532262104880601 -1 -1 0 0 0 -4 1 -2
1532262104902543 -2 -1 -1 -2 0 1 -1 -1
1532262104933459 1 0 -1 0 -3 3 1 -1
1532262104979338 0 -1 -3 -3 -1 -2 1 0
1532262105000281 0 0 1 0 -4 -24 -1 -2
1532262105047156 -1 0 3 6 -1 -34 -5 -2
1532262105115981 -1 -1 -4 -2 2 10 -2 1
1532262105137914 0 1 1 0 -2 8 -2 -2
1532262105158865 -3 0 -5 -5 -2 3 -3 -4
1532262105202740 3 3 8 17 20 4 3 3
1532262105226676 -1 -5 -5 -10 -2 -7 -4 -2
1532262105262580 -1 2 -2 -2 -18 15 0 0
1532262105285519 -2 -5 -5 -17 -19 -3 -4 -2
1532262105347353 0 2 4 7 -31 -19 -23 -6
1532262105370292 -2 -2 -6 -5 -62 -7 -4 0
1532262105383257 -1 -3 3 14 -8 6 3 1
1532262105445092 -1 -23 -15 17 16 -5 3 1
1532262105497951 -3 -17 -14 -10 -11 10 0 -2
1532262105519892 1 -11 -6 12 5 9 -1 -2
1532262105540836 -4 -42 -15 5 11 -1 0 0
1532262105609651 -4 5 3 4 10 -6 -6 -4
1532262105633588 2 1 0 -6 13 -7 3 0
1532262105654532 -4 -50 -13 3 5 -5 -1 2
1532262105679465 0 -1 -2 2 0 -1 -2 -1
1532262105750276 -5 -38 -15 -18 -8 -5 -4 -3
1532262105775210 -1 9 1 7 0 -7 -1 -2
1532262105783188 1 21 2 0 -5 -15 -4 2
1532262105806126 2 32 9 0 7 15 0 -1
1532262105828068 -3 -10 -4 -2 11 1 0 -1
1532262105841033 -3 -11 -3 -5 -7 -7 -4 -4
1532262105886923 0 2 0 4 8 5 -2 0
1532262105910847 2 1 -1 4 -9 -2 -1 1
1532262105953732 0 -1 -2 1 -7 9 5 3
1532262105998611 -1 3 -1 -9 -41 0 3 -1
1532262106020553 1 6 1 3 18 -8 3 3
1532262106044489 -1 7 0 -1 2 1 8 2
1532262106088371 -2 -2 -3 -1 -34 12 -1 -3
1532262106134249 -1 6 11 -11 1 -21 -2 -2
1532262106179129 2 8 3 -8 -18 -20 -1 -1
1532262106201071 -1 -12 -4 -2 23 14 -6 -2
1532262106283849 1 13 16 0 10 17 3 1
1532262106418489 0 -5 0 2 -12 12 0 1
1532262106510243 -3 -2 -2 -3 19 22 -5 -3
1532262106531188 -2 0 -1 -1 -1 -5 -2 -1
1532262106577065 -2 1 -2 -4 -11 -18 -4 -3
1532262106658846 -4 -2 -5 -6 27 27 7 -2
1532262106687768 -1 0 1 15 46 45 25 0
1532262106765561 -3 -2 -5 -3 18 10 1 0
1532262106786509 2 0 -1 -9 -8 -13 -8 -1
1532262106855320 0 2 3 6 -8 8 3 3
1532262106906198 -3 -5 -5 -9 -9 -12 -10 -6
1532262106967022 -3 -2 -3 3 11 -13 -6 -36
1532262106972009 -14 -2 -2 -4 -20 -25 -4 -11
1532262107001929 -6 1 1 0 2 4 1 9
1532262107063764 -7 0 0 3 -8 -7 -5 -7
1532262107131582 8 0 -2 -2 -1 -7 -10 6
1532262107242286 16 -1 -4 -2 -8 2 2 0
1532262107289161 1 0 2 3 10 -10 3 28
1532262107425806 5 -2 -1 -1 -10 -16 2 6
1532262107447736 -6 0 0 0 -2 -6 -3 -7
1532262107693081 0 -4 -5 -8 -17 -18 -21 -7
1532262107703054 -12 -1 0 2 -4 -7 1 -6
1532262107957390 9 -10 -9 -9 -5 -9 -8 -27
1532262108212691 2 -4 2 -4 13 -11 -9 3
1532262108258569 16 2 -2 0 -7 -3 0 -6
1532262108363288 -3 -15 0 -2 -7 10 -10 1
1532262108429112 2 -15 -3 4 29 2 5 2
1532262108453049 -2 34 17 -10 -11 -3 -1 3
1532262108511891 8 20 6 20 1 2 31 22
1532262108594670 0 -13 -10 -6 -7 -1 2 -6
1532262108682435 2 30 5 2 7 -3 2 -7
1532262108708370 -1 0 -3 -13 -6 0 2 8
1532262108728312 5 -8 0 -6 -2 0 2 -4
1532262108773193 -1 -17 -3 3 -12 -3 -7 2
1532262108811091 0 -1 -11 -9 33 -3 -6 -5
1532262108864947 0 2 2 4 8 -3 0 -3
1532262108871928 -3 -18 -5 1 7 -4 -9 -6
1532262108894867 -3 4 -4 9 -22 -2 -5 1
1532262109112285 0 -15 -2 -2 23 0 1 0
1532262109135224 1 2 6 13 -3 2 2 0
1532262109186088 -2 -10 -7 -7 -21 -1 0 0
1532262109217008 -1 2 -2 -6 1 -2 4 0
1532262109308774 -3 -2 -7 -19 5 -1 1 0
1532262109329704 -2 -2 -2 -1 -10 -4 -8 -3
1532262109352643 -1 -4 2 11 2 -3 -6 -4
1532262109426460 0 -1 -1 0 -3 -3 -1 0
1532262109497256 0 1 2 13 3 0 7 4
1532262109517213 -2 -4 -2 -5 16 -2 3 -1
1532262109555101 -2 -2 -3 5 -1 -2 -1 -1
1532262109644862 -2 -4 -4 -12 -9 -3 -1 1
1532262109704702 -1 -4 -7 -14 5 0 5 2
1532262109748584 1 0 1 3 0 -1 0 1
1532262109886216 -1 -1 -2 -2 3 -3 -1 -3
1532262109950045 0 3 1 -6 -13 -2 -3 1
1532262109995923 -3 -2 -5 -6 5 1 3 -5
1532262110018861 0 -1 -3 -1 -6 -3 -14 -3
1532262110056768 -3 -2 -2 -7 -3 0 -7 0
1532262110078701 -1 -3 -4 -11 -2 -5 7 3
1532262110101639 0 -2 -3 -3 10 -1 2 3
1532262110163486 -2 0 -2 -8 7 2 3 0
1532262110190403 0 0 -1 12 9 4 0 -8
1532262110259219 -1 -2 -6 -7 -12 2 2 2
1532262110281160 0 1 2 -2 -1 1 -6 -4
1532262110319059 0 -2 -3 -14 -2 0 3 -2
1532262110355960 -4 -2 -2 0 8 -3 0 -7
1532262110378899 -1 1 2 12 0 -5 5 0
1532262110455693 -2 -1 -4 -4 -16 -6 -2 -5
1532262110506575 -1 -1 0 -3 8 1 1 -2
1532262110581357 0 -2 -4 -6 -4 -3 -2 -1
1532262110627234 0 -2 1 2 -7 -1 0 -2
1532262110673112 -1 1 -1 -1 -2 -5 0 1
1532262110717992 0 -1 -2 -1 -21 -43 1 -3
1532262110739951 -2 -1 -1 2 5 19 -1 2
1532262110775837 7 -17 -3 -7 -9 -10 -6 -8
1532262110798776 1 -8 -1 -1 16 17 7 -3
1532262110858616 1 -5 -1 3 10 -3 2 1
1532262110896514 -9 -2 -1 -5 -10 -5 5 0
1532262110932418 -9 -47 -8 3 -10 15 -3 -19
1532262110963336 -7 6 1 -10 -22 -33 -3 -3
1532262110993256 -2 -5 4 -9 -35 -35 3 0
1532262111040131 13 5 -2 -8 -17 0 -4 5
1532262111061074 -5 -25 5 18 18 1 -3 0
1532262111085010 2 -13 -6 -9 5 25 10 -2
1532262111105954 -2 -11 -1 1 -9 -7 6 -2
1532262111149836 0 -10 -4 -4 -1 48 1 0
1532262111197708 0 3 -2 5 -4 11 -4 -3
1532262111203693 1 0 -3 -10 -15 4 5 2
1532262111244584 0 -5 1 3 32 33 6 4
1532262111271518 -3 -1 -4 0 -14 -13 -6 -1
1532262111308413 -2 -5 -8 -8 -2 -5 8 1
1532262111338332 -3 -1 -3 -7 -18 -12 -10 -3
1532262111361272 0 2 2 5 7 6 2 1
1532262111384210 -1 -5 -4 -3 -24 2 9 2
1532262111437069 0 0 1 6 -28 -32 -5 0
1532262111482947 -6 -2 -2 -6 14 10 2 -1
1532262111547773 -2 -1 0 -1 -14 -18 -34 -5
1532262111575700 0 1 -1 4 -8 -5 18 3
1532262111590658 1 -2 0 -1 18 10 -5 0
1532262111615591 -2 2 -1 -4 -22 -11 -4 -2
1532262111638530 -1 6 3 1 -26 -11 -1 0
1532262111661468 -26 7 -5 -3 -7 3 -3 -11
1532262111683410 0 19 -2 -2 26 21 -1 2
1532262111790129 4 -6 0 -1 -17 -14 -2 0
1532262111880894 -7 1 -2 2 2 24 -2 -6
1532262111903821 -4 -4 -6 -8 2 18 -5 -1
1532262111924765 1 2 1 1 0 -16 -8 0
1532262112013528 1 5 0 0 7 9 0 2
1532262112088327 -1 0 1 -3 -4 2 -2 1
1532262112129228 -1 -3 -1 -1 4 -14 -1 -2
1532262112163127 1 -4 2 1 5 9 4 22
1532262112186066 -5 0 1 -6 -1 -12 -5 10
1532262112290786 -18 6 -2 -4 -8 -5 -7 -35
1532262112308738 -7 -9 1 2 7 3 11 6
1532262112330683 1 -2 -4 -3 -13 -3 -1 3
1532262112351624 -2 -34 -11 -1 19 13 4 8
1532262112404482 -2 -25 16 11 15 5 0 -1
1532262112411464 1 5 3 -2 -5 7 1 -4
1532262112440386 1 7 1 6 -2 -21 4 -3
1532262112501230 0 4 -2 -2 5 4 1 2
1532262112524161 0 4 1 2 5 7 -1 -3
1532262112538131 -2 2 1 -4 -12 2 1 -4
1532262112613922 3 3 -1 -2 -1 22 -4 0
1532262112649825 2 2 2 -2 4 -11 -3 -2
1532262112702685 -5 0 0 2 -11 -25 -11 2
1532262112740583 3 1 0 0 -11 -13 -1 18
1532262112763521 5 -1 -1 -1 0 0 2 9
1532262112800423 -6 0 -1 0 34 -22 -1 2
1532262112839346 7 -3 -1 0 4 -13 -4 7
1532262112870236 18 0 -2 -2 -14 1 6 -2

1532262112913122 -2 -3 -2 -3 -56 14 4 -2
1532262112950023 -5 -2 0 1 0 7 3 4
1532262112980941 -3 -2 -2 -2 -1 -1 4 5
1532262113062788 0 -1 0 -2 -15 -41 -2 5
1532262113102669 1 3 0 -1 2 17 -8 2
1532262113160514 -1 -2 -1 -1 -1 3 1 -2
1532262113280195 0 -1 -2 1 -6 -20 -2 0
1532262113334288 -1 -2 -1 -3 -6 -3 -2 0
1532262113447006 0 -1 -1 0 1 -9 -2 0
1532262113542749 -4 0 -2 -1 1 14 -3 -3
1532262113588627 9 0 -1 0 -1 6 -1 -2
1532262113641485 -2 -3 -1 0 -2 -5 0 3
1532262113662430 0 -2 -3 -2 -2 -13 -2 1
1532262113693347 -5 -1 0 -1 -2 5 -5 1
1532262113783107 -3 0 2 1 0 -6 -2 -4
1532262113820008 -1 -2 -1 1 0 -2 -4 -3
1532262113865886 -1 0 -2 0 -3 1 0 1
1532262113902787 -2 -2 -1 -2 -3 -3 -1 -1
1532262113956643 -1 0 -3 -1 6 16 0 -2
1532262114046403 17 -5 -2 -1 -3 -7 1 3
1532262114083304 -4 -2 0 -3 -9 -6 -1 -1
1532262114212957 -4 0 1 22 5 -2 -3 -2
1532262114255850 -3 1 18 40 2 -1 1 0
1532262114301721 1 0 5 1 5 4 0 -1
1532262114393475 -1 -1 0 -26 -17 -6 -5 -4
1532262114406447 0 2 -2 6 18 0 0 3
1532262114481240 1 -1 -4 10 1 -8 -4 -1
1532262114548061 -3 -14 1 -2 -3 -4 1 -4
1532262114623859 -1 8 -5 -4 1 8 -4 -2
1532262114641811 -1 -22 -1 1 -6 -1 5 2
1532262114655779 0 17 0 -5 -2 -1 -5 0
1532262114684695 -1 -8 4 2 -1 0 -3 -3
1532262114707634 1 8 6 -4 4 3 2 0
1532262114765480 -1 -32 -6 -5 -4 -2 0 1
1532262114855240 1 2 -14 -4 -4 -10 -7 -2
1532262114923059 -2 7 7 2 5 7 -1 -1
1532262115005853 -2 -23 -10 -3 13 4 3 0
1532262115068669 0 16 -2 5 11 -2 -3 -1
1532262115089621 0 1 -1 3 -2 -3 3 0
1532262115142472 3 -1 -4 -2 4 7 1 0
1532262115156435 -1 0 -3 -7 0 7 -5 -4
1532262115186354 0 -12 -7 -3 3 1 -2 -1
1532262115247192 5 25 9 0 1 -4 3 1
1532262115269133 0 -4 -1 -2 4 17 -3 0
1532262115314013 1 1 -1 -3 -11 -20 1 0
1532262115350914 2 2 2 2 8 4 -1 1
1532262115417736 -3 -20 -7 1 -1 -10 -1 -1
1532262115435688 3 1 2 3 -11 -8 6 4
1532262115441672 -2 -2 -2 -4 23 6 -2 -1
1532262115470594 -3 -9 -4 -2 -5 32 0 -2
1532262115508492 0 -5 4 5 3 -10 -4 -1
1532262115537416 -2 -15 -4 -4 -2 3 -2 0
1532262115591272 0 5 0 4 36 -23 -6 0
1532262115718931 -1 5 2 -7 10 14 1 0
1532262115741869 -3 1 -6 -4 -17 -34 -2 0
1532262115786749 -1 -29 3 5 27 5 7 1
1532262115807707 -4 -7 -8 -5 -13 -5 -9 0
1532262115822681 -1 3 -25 -15 -12 -3 1 2
1532262115930365 -7 -12 0 -5 8 10 4 -3
1532262115953304 1 -1 -6 -15 -16 -1 -43 -4
1532262115997186 -3 -5 -8 -20 6 15 -12 -5
1532262116110882 -1 0 0 -10 -28 -18 3 -1
1532262116139805 2 3 3 5 21 -1 -16 0
1532262116273462 -2 11 -4 -1 -1 -17 -4 -3
1532262116297383 -1 -1 -1 3 24 4 4 1
1532262116386146 3 0 -1 -1 1 -3 -7 -2
1532262116439005 0 -2 0 -1 -9 -21 -6 -2
1532262116520786 15 0 -1 -3 -5 -5 -2 -28
1532262116635485 -13 5 6 0 -3 0 3 5
1532262116677367 3 -15 -1 2 2 3 -2 -6
1532262116821981 1 4 -1 -1 5 -4 3 10
1532262116835943 7 5 1 0 -1 -13 -1 6
1532262116895793 1 1 0 0 -5 -6 5 -1
1532262116918722 6 1 0 0 1 0 -2 20
1532262116963602 8 4 4 -2 -18 -7 3 6
1532262116970583 2 -3 -3 3 8 1 0 -6
1532262116994519 -31 -3 -1 0 0 0 -3 -28
1532262117030422 -2 -1 -1 -1 2 1 -2 2
1532262117108215 -5 -2 -1 1 3 -6 -3 -1
1532262117129159 -2 -1 -3 -2 -5 2 4 20
1532262117174039 -13 -4 0 3 6 -1 0 4
1532262117195980 13 -4 -5 -5 0 -5 -7 -8
1532262117209943 -2 0 0 -1 -2 15 3 -34
1532262117233879 0 -4 -5 -4 4 3 -2 -6
1532262117256818 -4 1 3 8 49 14 6 -7
1532262117278759 21 0 -2 -1 -16 6 5 12
1532262117310682 -17 -1 -2 -3 -9 -4 -9 8
1532262117415394 -11 -2 0 -5 3 -21 -6 -13
1532262117437335 12 -7 -5 3 17 7 7 -10
1532262117452295 -19 4 -1 -4 16 22 0 -20
1532262117459277 2 14 -9 -3 6 26 7 74
1532262117526098 6 5 2 1 -7 9 5 -15
1532262117550034 16 -14 -9 0 -10 -2 0 -7
1532262117624834 -5 3 -4 0 -2 -8 -6 -25
1532262117668716 -2 -3 4 5 -2 2 -1 1
1532262117693650 1 -11 -2 1 8 7 8 9
1532262117729554 -6 33 13 0 4 -1 2 9
1532262117752508 5 16 6 1 0 1 -3 -6
1532262117870178 -4 -3 -5 -4 -2 -4 1 -1
1532262117971906 -1 -1 -3 -2 -2 -3 -1 -7
1532262117984871 2 -5 -5 -2 1 -2 -1 -3
1532262118005815 4 5 2 0 -2 -1 -1 3
1532262118021772 -10 -23 -1 -1 -1 0 0 -8
1532262118037730 1 42 8 -1 -1 -3 0 -6
1532262118097570 9 -28 -5 -1 -3 -8 -1 7
1532262118110535 -4 -37 -8 1 -2 -3 -3 0
1532262118126492 2 -12 0 -1 -1 1 -4 0
1532262118149431 -2 -13 -6 -1 -3 -1 3 1
1532262118162396 -7 24 -3 -3 -1 -1 -3 -25
1532262118211266 1 -31 -1 -1 0 0 -3 19
1532262118232210 -1 -3 2 1 1 1 3 17
1532262118246171 -6 9 2 -1 3 0 4 -4
1532262118252156 -2 3 -4 2 -1 -3 7 11
1532262118276093 -3 -14 -2 -2 -8 -1 2 -5
1532262118298033 3 5 5 -3 9 5 3 -4
1532262118321969 -4 -15 -5 -2 4 -2 9 1
1532262118337938 -1 -7 -2 -5 1 -2 25 36
1532262118449628 -1 9 -9 -1 5 -2 0 2
1532262118464588 -3 -48 -15 -11 3 1 10 -8
1532262118516449 -5 -11 -10 -9 -1 -1 15 14
1532262118530413 -9 -56 -2 7 -2 -1 -2 11
1532262118576290 12 81 83 6 -20 3 -17 30
1532262118612193 10 7 -6 0 15 -3 -13 -8
1532262118651089 -1 -1 1 11 -3 -15 -4 1
1532262118681009 -6 2 -2 -2 18 11 6 4
1532262118743842 0 18 -9 -10 -30 9 3 -6
1532262118764785 7 -4 -2 -3 0 4 4 13
1532262118801687 5 17 9 -8 30 10 -8 5
1532262118815649 -15 5 -2 -10 20 0 -11 -22
1532262118839586 -2 -4 -5 -11 -16 0 5 8
1532262118861527 -3 -9 -3 -8 -5 4 3 3
1532262118883468 -1 -7 0 12 -7 -4 6 6
1532262118906408 1 -3 -3 -5 -9 2 5 3
1532262118928348 -1 -2 -3 -9 -14 -3 0 2
1532262118935329 0 1 8 31 -2 2 -3 3
1532262118951287 -1 -3 -2 -16 -14 0 -1 0
1532262118997175 -1 -1 -8 -15 7 2 4 0
1532262119049025 -1 -5 -6 -10 -13 -5 3 1
1532262119064982 -1 2 6 -6 42 -1 -3 -6
1532262119117841 -2 -2 2 11 -39 2 -31 -6
1532262119138785 0 -2 -7 -18 -106 -1 -12 2
1532262119176684 -4 -3 1 -5 -1 -3 3 -7
1532262119198625 -1 0 -4 -16 31 2 7 0
1532262119242508 1 1 4 0 3 0 -6 -1
1532262119327281 1 -2 2 7 14 2 1 2
1532262119357201 -1 -1 -3 -10 -3 0 0 7
1532262119388119 -2 0 -4 -10 -13 -5 3 -3
1532262119394103 -1 -1 -3 -6 -5 -3 -6 -5
1532262119460924 -1 -2 -5 -10 -4 -1 -3 -2
1532262119514780 -2 -2 0 1 -11 -4 -9 -4
1532262119537719 -1 -2 -1 1 -3 -6 -3 -9
1532262119544700 4 5 5 16 -12 2 1 9
1532262119588582 -2 -5 -8 -15 1 -2 1 -2
1532262119602546 -1 -1 -7 -21 -17 -4 2 6
1532262119640458 -2 -1 -1 -4 -4 -1 3 2
1532262119663382 -1 0 -1 -5 1 2 0 3
1532262119700284 -1 -4 -2 2 7 -4 14 2
1532262119738182 2 -2 -5 -9 -8 1 6 2
1532262119760123 -1 5 13 56 -2 -3 -2 -5
1532262119807996 -5 -2 -4 -22 -17 -2 -8 -21
1532262119866838 1 1 7 43 23 4 1 4
1532262119903740 1 -3 -8 -41 15 -1 -2 -11
1532262119962582 0 0 -1 -6 7 -2 12 6
1532262120008460 -1 1 1 16 9 -1 -7 -2
1532262120023437 -1 -3 -4 -9 -12 -5 -1 4
1532262120038379 0 -2 2 11 3 -1 -2 4
1532262120098219 0 1 2 1 -4 -5 2 3
1532262120153073 -3 -1 0 -9 -16 -7 -8 0
1532262120180998 0 0 -7 -28 -8 3 0 1
1532262120202940 2 1 2 -9 2 4 -3 1
1532262120217899 -3 -3 0 20 -9 -2 2 -1
1532262120262780 0 0 -3 -10 2 0 10 4
1532262120285718 -2 -1 0 -8 -8 -3 -4 -4
1532262120300678 -1 -1 1 20 5 1 -1 -1
1532262120331596 0 0 -1 -1 -4 0 0 -1
1532262120345558 -1 -2 -8 -22 0 3 3 6
1532262120384454 -3 -1 -5 -9 -3 -7 -1 -1
1532262120428337 0 -2 1 5 9 4 -2 1
1532262120503137 2 -2 -1 -8 -12 16 -1 -2
1532262120562977 -15 9 -3 -2 -4 -16 12 -4
1532262120615835 2 -3 1 -2 -4 -9 -26 -1
1532262120623815 -1 -3 -4 -4 1 22 -6 2
1532262120662710 -1 -6 -6 -5 -10 1 -1 0
1532262120675676 4 -5 0 5 14 45 2 11
1532262120706593 6 16 3 11 5 21 7 12
1532262120743494 -7 1 -5 -9 -13 19 4 1
1532262120766433 0 -14 -8 -6 -19 -27 5 14
1532262120780395 -3 7 1 -14 -12 -18 -5 17
1532262120803334 1 2 -3 -9 -9 4 -9 5
1532262120863174 -4 -5 -4 -4 -4 -15 -3 -4
1532262120886113 -6 83 8 4 -1 33 7 -2
1532262120923018 -7 -17 -7 15 12 -8 1 3
1532262120962908 5 -5 3 0 -13 -20 -2 -2
1532262120975873 -1 4 1 3 -6 -25 2 1
1532262121005794 -2 -7 -8 -12 18 7 2 0
1532262121020753 0 -6 -5 -6 -17 14 1 1
1532262121042694 -5 -9 -7 -22 -34 -9 0 -1
1532262121080593 -1 -7 0 27 -2 0 -2 0
1532262121126470 -1 0 3 11 13 11 -6 -1
1532262121163371 1 -3 0 11 17 14 13 6
1532262121186310 -1 -1 0 -16 4 15 -7 -4
1532262121246150 3 2 5 6 -37 8 -15 -3
1532262121285046 1 -2 -5 -21 -8 -13 27 4
1532262121342891 2 1 1 2 23 -13 -6 3
1532262121365830 -3 -4 -4 -8 -31 -25 -5 -4
1532262121427665 2 -1 1 -1 -7 7 -10 -2
1532262121500470 1 -1 -1 -3 -42 -1 0 0
1532262121601200 -1 1 0 6 23 10 -4 0
1532262121615163 0 -1 -3 -5 -31 -11 -1 0
1532262121638102 8 4 4 0 1 -1 -2 1
1532262121727862 7 2 -9 -3 14 14 3 3
1532262121750816 0 7 3 -2 -4 -6 -5 -6
1532262121772743 6 -13 -2 -2 2 4 0 0
1532262121817622 0 6 0 -2 -10 -8 -2 -3
1532262121840561 -5 2 3 2 6 -6 4 2
1532262121900401 -1 0 0 1 12 -6 -2 -4
1532262121953259 9 1 -1 1 27 3 -2 -1
1532262121959243 -12 -1 -2 -1 4 2 -2 -3
1532262122005120 -2 2 0 -2 -9 8 3 0
1532262122050998 0 -1 1 1 13 15 -2 0
1532262122070944 -14 -4 -4 -2 -3 -2 -4 -3
1532262122095878 2 1 3 0 5 6 2 1
1532262122117819 -8 -1 -1 0 29 -7 -1 2
1532262122137766 5 -3 -1 -2 -9 -11 1 11
1532262122162699 -3 2 -2 -2 8 5 0 10
1532262122176662 8 6 0 1 3 -1 3 3
1532262122206595 -8 2 3 0 -4 -13 0 -3
1532262122234507 -8 -15 -7 -6 -9 3 -1 16
1532262122257446 -2 2 6 -4 -1 -7 0 15
1532262122288363 10 12 4 9 12 5 1 0
1532262122311302 -23 -12 -7 -3 -3 0 -2 -44
1532262122351195 4 0 -5 -4 0 13 0 2
1532262122355184 2 2 3 1 -4 -46 -2 -2
1532262122385104 -2 2 1 3 24 24 -1 -3
1532262122392085 -4 -4 4 26 32 11 3 -1
1532262122430981 10 1 4 -3 -17 -11 1 6
1532262122459905 5 -4 1 -1 -9 23 24 1
1532262122505782 6 -4 -4 -5 17 35 16 5
1532262122565622 -3 -7 2 12 27 42 -4 -1
1532262122581579 3 2 0 -3 -6 52 10 9
1532262122648400 6 3 3 0 16 -70 -9 1
1532262122709237 2 3 0 3 35 36 0 -1
1532262122739158 -2 -3 -1 -4 -6 -30 9 2
1532262122791018 0 -3 -2 -1 -16 -7 -17 2
1532262122813957 1 -1 1 1 -15 -26 -1 1

1532262122897734 -1 0 -1 -1 -8 4 1 3
1532262122934635 -5 -1 -2 -2 3 -10 -4 -1
1532262122941616 3 -1 -2 -1 3 36 9 -1
1532262122971536 0 1 -1 2 -19 -37 1 -3
1532262122985499 -3 -2 0 -3 -10 3 -6 6
1532262123074563 -4 -1 -3 -4 -12 -14 11 1
1532262123098500 -1 -2 0 1 3 30 -8 -1
1532262123173300 -1 0 1 -2 -5 16 0 0
1532262123241118 -12 1 1 2 -7 10 4 -2
1532262123271038 1 -1 -3 -1 11 19 3 -5
1532262123285002 0 -2 -2 -4 -7 -26 6 10
1532262123308937 -3 -1 -1 -1 -5 -10 3 -4
1532262123330878 1 -1 -1 0 -3 -3 -2 4
1532262123382740 -2 -1 0 1 -4 5 -7 -5
1532262123407673 -1 2 -1 0 -1 -6 5 0
1532262123413657 2 1 -1 0 10 -1 0 0
1532262123429614 1 -1 -1 0 8 10 -1 0
1532262123473496 -4 -3 -1 0 14 10 -3 -2
1532262123511395 -4 0 0 0 3 -4 1 -4
1532262123548297 1 1 1 1 -2 3 -2 -3
1532262123571236 0 1 1 0 -2 -4 -1 2
1532262123594174 0 -3 -2 -2 -6 -3 -3 -1
1532262123617122 1 -1 -1 -1 -2 -8 2 2
1532262123639055 5 -4 -2 -2 -2 -3 1 4
1532262123660996 -1 0 0 -1 1 -1 0 -5
1532262123683934 0 -1 -2 -1 -3 -1 -2 -1
1532262123751753 -5 -2 -3 1 -1 2 1 -1
1532262123783668 0 0 1 -2 0 2 0 -1
1532262123818574 -1 1 1 -3 -2 1 -4 0
1532262123833534 -2 -3 -1 -3 -1 -4 -4 -2
1532262123901368 -1 -6 -3 -4 -6 -6 0 0
1532262123946233 -1 -2 0 0 6 0 1 -1
1532262124014068 -1 1 4 5 2 3 0 -2
1532262124027017 -2 -5 -9 -2 -5 -10 -3 0
1532262124035993 -2 0 -4 -4 -5 -5 -2 -1
1532262124073892 -1 -2 -1 -11 -2 -29 -3 -2
1532262124095833 -1 0 1 -5 -3 5 -2 0
1532262124110793 -2 -5 -5 1 14 5 -3 -1
1532262124133732 -1 2 10 0 -1 2 3 0
1532262124172628 -1 -1 -10 16 14 5 -3 -2
1532262124179609 -2 3 2 32 15 0 -3 -2
1532262124223491 -3 -1 -6 -18 -14 2 -5 -1
1532262124261390 2 6 16 12 5 7 4 1
1532262124284329 -2 -4 -9 -21 -11 -7 -3 -2
1532262124398025 -2 -4 -8 -19 4 15 -6 -2
1532262124457865 2 1 -1 -15 3 4 -21 -6
1532262124547625 -4 4 0 0 14 11 9 -2
1532262124645363 1 -4 -1 6 -1 -6 2 -1
1532262124667305 1 10 11 2 -11 -1 4 1
1532262124675283 -5 23 10 -1 34 6 -2 -3
1532262124697239 0 -9 -4 0 -1 6 8 -1
1532262124712185 1 21 2 -3 -3 12 2 -2
1532262124784990 -1 -14 2 5 -1 -4 0 -2
1532262124869764 -1 -8 -4 -5 -2 3 -5 -1
1532262124907662 -3 -8 -10 -2 17 20 -3 0
1532262124936585 -1 -16 0 -5 -25 -5 3 -1
1532262124949550 0 15 1 0 -1 0 5 1
1532262124958526 -1 7 10 35 -4 12 0 -2
1532262125010387 -3 -17 -4 -10 -24 -1 -4 -5
1532262125019362 -3 0 3 -2 0 -11 0 1
1532262125141050 -1 -4 8 8 -9 0 3 -1
1532262125219827 3 4 19 64 32 18 7 3
1532262125309587 -1 6 2 -1 -1 15 -1 -1
1532262125402339 -1 31 9 3 -37 4 0 -2
1532262125448220 1 7 0 3 8 26 -4 -2
1532262125486115 10 -7 -3 10 -10 -1 -10 0
1532262125499080 1 7 3 46 -5 -35 -11 0
1532262125521022 7 -2 -2 -11 -20 -28 -29 -5
1532262125619758 2 4 5 31 -16 -14 2 0
1532262125658653 -2 -3 -2 3 -30 1 5 2
1532262125710514 -2 -3 -6 -7 11 6 26 0
1532262125734452 -2 -6 1 8 6 38 13 1
1532262125778339 1 -45 10 -3 55 1 -24 -6
1532262125782323 12 -3 -1 5 7 13 -5 7
1532262125801272 -7 18 4 1 9 0 7 -3
1532262125823215 19 -2 -18 -7 -30 54 3 -2
1532262125875075 -13 29 12 6 -2 -8 2 -4
1532262125979795 -8 6 -1 1 -64 -11 0 0
1532262126000739 0 -12 1 0 -5 14 -1 1
1532262126020686 -3 -6 -1 -8 -10 -4 1 -3
1532262126061576 -8 0 -1 4 1 0 -1 -7
1532262126143358 3 1 1 4 44 12 1 0
1532262126203198 -7 -1 -2 -1 0 33 -1 0
1532262126262040 0 7 -3 -2 -5 1 -3 -5
1532262126291960 9 -10 3 -1 4 15 12 8
1532262126315896 -4 8 5 2 -3 -2 2 5
1532262126354792 11 2 -2 -1 2 -1 -1 -4
1532262126397677 18 9 1 0 -6 -16 -2 5
1532262126422622 -3 -21 -5 -6 -16 18 1 17
1532262126472477 11 -7 -1 0 5 1 6 -9
1532262126511373 -17 -3 0 0 0 -13 -7 -21
1532262126540296 -1 0 -1 0 1 3 4 9
1532262126555256 -3 -2 -4 -3 0 2 4 -8
1532262126600136 5 -2 0 0 -7 -5 4 17
1532262126660973 -16 0 0 1 6 7 6 -7
1532262126720829 -14 -5 -2 -3 8 6 -3 3
1532262126818552 -12 -3 -2 -3 6 12 0 3
1532262126878392 8 -4 -3 -6 -11 -23 -19 -39
1532262126923280 -24 -4 -2 -1 9 -18 4 -8
1532262127001064 10 -2 0 1 -1 -1 -2 -21
1532262127014029 85 19 17 14 8 6 7 25
1532262127043949 8 -4 -16 1 0 35 5 8
1532262127080850 -7 -11 2 -2 -17 -16 7 -23
1532262127103789 -7 7 6 1 0 -16 -3 2
1532262127117752 23 13 -4 -4 1 -1 10 21
1532262127154653 -4 -4 -9 -7 -11 -4 2 -7
1532262127178590 -13 -10 -1 -3 1 -4 -8 -11
1532262127201536 -24 -2 0 0 7 5 1 -8
1532262127223469 -9 -1 1 -2 -2 -9 1 -8
1532262127246408 12 -4 -5 0 1 3 5 22
1532262127283320 -18 -2 -2 -4 -6 -8 0 -27
1532262127298269 -14 -6 -7 -3 -2 2 3 23
1532262127345153 33 -2 0 -3 17 10 8 40
1532262127359106 2 1 -2 1 2 6 2 -12
1532262127397004 6 -6 5 0 0 1 -2 11
1532262127412963 3 -17 -15 -3 -1 -7 -1 -10
1532262127440888 -2 4 -2 -1 -1 0 2 9
1532262127508706 8 2 8 3 -1 -6 -4 3
1532262127547602 1 -4 -8 -3 -5 -9 -5 -8
1532262127582509 -2 -1 0 0 -2 -3 -1 -4
1532262127598467 0 -1 -3 -3 0 4 1 2
1532262127643346 -5 61 34 -5 -3 -23 -7 -1
1532262127658306 -1 -13 -3 2 -4 11 32 -3
1532262127704184 -6 -23 -3 -11 -2 3 -5 5
1532262127717158 -5 29 -15 -3 -3 -2 -4 6
1532262127777986 6 -111 -39 2 0 -15 -2 3
1532262127800924 29 15 7 1 7 7 15 25
1532262127847801 11 -1 -5 -2 -1 -13 -62 -37
1532262127899661 -9 -6 10 -1 4 -1 7 -8
1532262127943544 -4 11 -7 -10 2 1 21 15
1532262127957506 14 71 8 -5 0 -4 -2 -13
1532262128011362 12 -13 -16 -5 -13 -6 12 6
1532262128064220 -14 -52 -20 0 5 2 1 -25
1532262128078184 -1 8 1 1 -32 0 2 0
1532262128101122 -1 8 7 2 10 3 -3 1
1532262128131042 1 51 17 6 6 -2 -1 2
1532262128252717 6 12 4 11 -42 -5 -2 19
1532262128267677 -4 -18 -5 11 -2 -20 -20 -3
1532262128515016 0 5 8 7 -10 1 6 -3
1532262128529975 4 1 8 9 7 2 11 3
1532262128618738 -4 -17 -2 12 18 -2 4 2
1532262128747393 -3 2 2 -3 -14 -3 2 -2
1532262128754376 -1 1 2 6 19 3 -2 -3
1532262128775319 -2 -2 0 5 34 1 -3 -2
1532262128820199 -2 -5 -3 -1 -17 -1 -3 -2
1532262128843138 -1 -2 1 3 9 -2 -3 0
1532262128912966 3 2 4 6 12 2 3 8
1532262128929918 -2 0 2 -8 11 -2 -12 -6
1532262128956835 -1 -2 -8 -5 20 -1 -2 -4
1532262128971796 0 0 1 -2 -5 -3 1 -3
1532262129003709 0 -4 -3 -5 0 -2 4 -6
1532262129037618 1 1 0 13 24 -1 -4 3
1532262129068536 0 2 4 -4 7 0 1 1
1532262129106434 1 2 5 -2 -51 -4 -10 -5
1532262129196193 -3 -1 -3 -11 17 -4 -4 -6
1532262129207165 -3 -2 -1 -1 -17 0 -8 -1
1532262129242071 -1 0 1 12 2 5 2 5
1532262129264012 0 -1 1 -1 -4 -1 2 -3
1532262129307895 0 -3 -2 -8 4 5 -5 -5
1532262129334823 1 0 -1 1 2 3 3 -7
1532262129382695 -2 -4 -5 1 -1 -1 -2 -2
1532262129442535 1 3 4 20 20 6 -5 3
1532262129525314 2 -1 4 17 -22 0 4 5
1532262129559223 -3 -3 -5 4 1 -4 -2 4
1532262129579170 4 7 11 36 -8 4 6 1
1532262129593132 -3 -6 -8 -21 -16 -5 -4 -8
1532262129645990 -2 -14 -47 -37 -1 -1 1 -1
1532262129668930 -3 1 9 30 17 1 -3 -3
1532262129708823 -1 0 -3 16 -5 2 -6 2
1532262129850458 -1 -3 -1 -1 0 0 0 1
1532262129863410 -1 -1 -6 -5 -11 0 -7 1
1532262129969127 1 1 10 33 -3 -2 -1 2
1532262130028967 1 -1 -1 1 -2 -4 14 3
1532262130065868 -4 -3 -2 -12 -4 4 -5 -1
1532262130111746 -1 -1 -2 -7 8 2 11 -2
1532262130132690 -8 -1 -2 -1 11 18 -3 -11
1532262130178567 -3 6 -5 -8 -1 6 16 -5
1532262130208487 -11 -1 0 0 -9 -60 6 0
1532262130231426 9 -2 -1 -1 -27 -21 -8 -7
1532262130245388 -7 -11 -3 0 2 4 -1 -1
1532262130299244 0 32 0 -2 -12 -10 -5 -9
1532262130305228 1 -24 0 -6 -41 -24 -10 12
1532262130329164 -2 -10 -3 -4 -1 -7 -2 -4
1532262130374044 -2 -20 -6 9 33 -14 3 -5
1532262130412940 -3 7 -2 -6 -4 10 3 -4
1532262130439884 -12 -12 -5 -12 20 2 -6 -4
1532262130463804 6 14 1 -7 4 -23 -3 4
1532262130484748 -2 0 0 2 -10 -43 3 -3
1532262130531623 -5 -66 -4 -3 -6 -33 2 -4
1532262130553564 5 1 -1 -3 -9 -18 -3 -4
1532262130568524 -4 -1 -3 4 15 3 -5 0
1532262130591462 2 17 -3 6 3 19 -4 -2
1532262130614402 9 -6 -4 -4 -8 -15 -1 -2
1532262130652300 1 1 -6 11 86 28 -15 -3
1532262130674242 -1 5 7 19 8 11 5 1
1532262130696182 -2 0 -1 -13 -11 -3 -3 -2
1532262130711142 1 5 -13 -18 -30 -13 2 1
1532262130734082 -3 -2 -3 1 -2 4 -1 -3
1532262130770983 -2 0 2 -8 -21 -9 -2 0
1532262130784946 3 2 -1 12 13 10 13 4
1532262130808881 -1 0 8 -2 -36 -3 -5 -3
1532262130830823 -1 1 2 -6 -12 1 13 0
1532262130853761 -1 -1 1 14 17 5 -1 -3
1532262130874705 1 0 -1 -8 7 18 9 4
1532262130914599 2 -1 0 3 -64 -21 1 -2
1532262130928561 2 2 0 -1 0 11 -15 -2
1532262130973442 -5 -12 -4 -9 -34 -26 -20 -4
1532262131012337 -1 0 -3 1 12 20 -5 0
1532262131019333 3 6 5 -3 11 4 3 6
1532262131064199 -1 -4 -6 -14 2 15 13 2
1532262131087137 -4 -5 -7 -15 8 9 -2 -5
1532262131102097 -3 -5 -6 -20 18 -2 3 -2
1532262131122044 0 -11 4 4 8 11 1 0
1532262131144983 -1 -6 -1 -5 -37 -12 -17 -6
1532262131238732 0 1 -3 -8 0 19 6 0
1532262131261670 0 -1 -1 -1 -13 -47 -1 -1
1532262131284610 -1 -15 -6 10 26 25 17 2
1532262131311537 13 5 10 1 15 8 1 0
1532262131347441 0 10 2 -1 0 -19 -3 0
1532262131371378 2 -17 -3 0 31 -2 -1 -1
1532262131401297 2 9 -2 -2 -32 -38 1 1
1532262131453159 0 -13 -5 -1 -10 -7 -8 -1
1532262131485074 -1 -18 -4 -4 -8 -14 0 6
1532262131530951 -2 -1 -2 0 -18 -16 -4 -1
1532262131552892 0 -4 -1 -7 -10 -1 5 1
1532262131596775 -1 -4 -2 -5 -10 9 -2 0
1532262131633677 0 0 -3 -2 -8 -9 1 2
1532262131671575 -6 -2 -3 -3 0 6 3 -3
1532262131694513 7 1 -1 -3 -10 -5 -4 -1
1532262131716454 -17 23 6 -1 13 9 -5 -2
1532262131746375 0 -11 -3 -2 -4 -13 -2 -3
1532262131762342 -6 7 -1 -2 0 -13 -4 -2
1532262131791254 -2 1 0 -1 -3 -5 -2 -8
1532262131835137 1 -3 0 3 7 4 1 0
1532262131874033 4 4 5 7 6 5 2 2
1532262131886998 -10 -9 -5 -7 -7 1 0 -12
1532262131895974 1 -8 -8 -3 3 9 0 5
1532262131940855 1 1 -3 -5 -5 23 -2 6
1532262131956812 5 12 5 5 2 -2 1 0
1532262131994710 4 -8 -3 -1 9 12 0 6
1532262132030614 0 1 3 4 36 27 2 3
1532262132053553 0 -2 -3 -5 -12 -5 0 -2
1532262132076492 -3 0 1 -4 2 9 -8 -5
1532262132105414 -20 -5 -7 0 12 3 -8 -28
1532262132165254 -2 -4 -2 -3 2 4 11 -4
1532262132204150 4 8 -2 0 1 37 4 -5
1532262132219111 2 -6 -9 -7 -9 -2 -6 2
1532262132292913 -10 -9 -4 -1 0 15 -3 -7
1532262132329814 -1 -4 -1 0 -1 -8 9 3
1532262132376689 16 -1 -4 -1 1 0 -4 7
1532262132436529 -2 -1 5 5 8 7 -4 4
1532262132481409 2 4 -3 -3 5 -4 2 39
1532262132518310 -13 1 -1 0 -1 1 3 5
1532262132525292 -6 -1 -1 -1 3 2 -10 -57
1532262132564194 3 -3 -3 -6 -3 -3 -7 9

1532262132609068 2 1 0 -4 -1 -13 -3 -7
1532262132675889 -6 0 0 -2 1 -5 2 -1
1532262132736321 9 0 0 0 10 -36 4 16
1532262132796161 14 0 -2 1 -2 10 5 1
1532262132841041 -1 -2 -1 2 -1 5 -5 -1
1532262132886918 -6 1 0 1 -6 -1 -12 15
1532262132929804 1 0 -1 -1 -1 -8 -7 -5
1532262132999008 0 -3 0 -1 0 -6 -4 1
1532262133013968 0 -2 0 -1 0 4 -8 -1
1532262133096747 -3 -1 1 3 -3 -11 -1 -10
1532262133118688 -3 1 2 1 4 0 0 -5
1532262133148608 -17 -1 -1 -2 -11 -25 -12 -70
1532262133207425 2 1 0 0 -2 -10 -6 -1
1532262133260283 -1 -2 -2 -1 -2 5 -2 -2
1532262133306178 4 -1 -1 -1 3 -7 -5 -2
1532262133379963 1 1 -2 0 -3 -10 -4 6
1532262133418859 -6 2 0 0 0 1 -2 -3
1532262133478699 1 -1 -1 -3 -2 -3 -3 0
1532262133552502 0 -4 -1 0 0 -4 -1 2
1532262133606357 -1 4 -1 2 9 2 -2 -3
1532262133658219 -1 -1 3 4 3 -3 -1 -2
1532262133680160 1 3 1 -3 -19 0 2 1
1532262133697115 -1 -1 1 15 20 1 -2 -3
1532262133740998 -2 -4 -4 -3 4 -1 0 -4
1532262133772912 1 0 2 -25 -1 0 -1 1
1532262133794854 -2 0 8 12 6 -1 1 -2
1532262133816794 -2 -3 -8 -24 -16 -13 -2 -2
1532262133846715 -1 2 -2 11 -15 -19 -5 -2
1532262133867659 0 -2 -4 -9 -4 -6 1 2
1532262133914533 11 23 2 -3 -8 -5 -2 2
1532262133930491 8 31 1 -7 12 12 2 1
1532262133960411 -4 -13 -12 -4 7 -30 -7 -3
1532262134050171 0 14 -1 5 -10 -3 -1 -2
1532262134073109 0 18 6 6 1 -8 -1 -2
1532262134111008 -3 -33 -13 13 -4 -2 -9 -1
1532262134132950 -2 -14 -5 -13 -43 -11 0 -3
1532262134154891 3 22 7 18 -5 4 1 1
1532262134259610 0 30 5 -4 3 -5 -5 -2
1532262134303494 -2 12 -2 -11 0 1 3 -2
1532262134351365 0 -11 3 37 28 -1 -1 0
1532262134357352 -2 -22 -5 -22 -7 -6 0 -2
1532262134378293 -4 16 10 5 -3 -23 -3 -4
1532262134409211 -1 -39 -4 17 -10 -4 -1 0
1532262134439145 -3 7 -8 -9 -3 -15 -2 -2
1532262134513935 2 -4 7 5 11 5 -2 2
1532262134529898 -1 5 -1 3 11 7 5 1
1532262134580752 -2 35 34 6 13 10 -5 -3
1532262134602693 -3 -4 -3 -2 17 -5 4 1
1532262134640592 -4 -3 -7 0 2 1 6 -1
1532262134654554 -1 -33 -13 5 27 6 -14 0
1532262134714394 -2 -8 -6 -36 -8 -16 -10 -4
1532262134746309 -2 -25 -6 -5 -15 -2 -5 1
1532262134791189 0 8 -3 -2 8 1 -1 -1
1532262134859008 0 -10 2 4 11 -12 9 -1
1532262134897904 0 3 -4 6 16 9 -1 1
1532262134919845 0 -3 2 0 25 25 -1 2
1532262134948768 0 -13 -7 -6 -3 3 -3 -4
1532262135000629 2 -6 4 -11 -18 14 -1 2
1532262135055483 1 5 -3 5 7 -15 -6 0
1532262135116320 -1 11 -1 4 25 4 4 -3
1532262135137263 3 1 -2 -16 -30 -15 -1 2
1532262135196107 -3 -6 -3 -10 3 -13 2 -3
1532262135218048 -2 -2 -5 -26 -11 -33 -40 -9
1532262135264923 -2 -6 -8 -13 22 22 34 2
1532262135316784 1 1 -2 -3 -19 -27 -2 1
1532262135369642 1 2 3 6 -39 -34 -32 2
1532262135391583 -3 -5 0 2 -9 -18 -26 -6
1532262135415519 0 5 7 23 0 -13 6 0
1532262135436464 -1 -8 -3 -7 -16 -14 -5 -2
1532262135480347 -1 0 2 -3 -8 0 4 2
1532262135504288 -1 0 -2 -3 -23 -8 1 -2
1532262135517248 0 4 3 13 -3 0 -9 -1
1532262135563125 -1 -2 -5 4 22 18 23 4
1532262135602021 -4 -4 -5 -4 13 -18 5 2
1532262135623962 0 1 -3 -10 -7 -3 -1 1
1532262135661861 -4 -1 1 0 22 17 6 -1
1532262135698762 3 -2 -2 -4 7 5 5 -8
1532262135730677 -3 0 -1 -5 -2 1 6 -3
1532262135826421 -2 -1 -2 -2 -1 0 2 -6
1532262135840385 -13 1 0 1 2 -3 -1 13
1532262135917179 2 -31 -7 -1 -1 -3 -7 -14
1532262135948096 -4 9 -1 -2 0 2 -5 -17
1532262135970037 -8 3 1 2 -3 2 9 10
1532262136043840 7 0 0 1 -1 -12 3 19
1532262136111658 -18 -2 -1 0 15 30 -6 -28
1532262136133600 5 1 -1 0 13 12 5 -13
1532262136156538 0 0 2 -1 -25 -8 0 11
1532262136193440 25 0 -3 -7 -24 -12 -12 -4
1532262136262255 11 -1 -3 -5 -6 -13 -7 -1
1532262136286192 18 2 -2 -2 -10 -14 -4 11
1532262136315119 -17 -2 1 -1 -11 -12 -7 6
1532262136365984 7 4 3 8 22 17 2 -6
1532262136472700 0 12 5 1 -1 -6 -3 -2
1532262136562458 5 -3 -3 2 4 4 -2 -10
1532262136643243 4 -29 -12 -5 -29 4 -44 1
1532262136657205 -18 -17 -12 -6 1 12 14 4
1532262136729016 19 -14 -11 -2 -26 -11 -5 16
1532262136748960 2 -4 -2 0 5 -16 -5 -6
1532262136774891 14 -10 -2 -2 1 -3 -3 19
1532262136796832 5 7 -6 -3 9 7 5 -22
1532262136818773 8 -9 0 1 1 0 -4 7
1532262136839717 -6 -9 -2 -2 -5 -7 3 19
1532262136900554 -2 3 2 2 -1 -5 -9 -35
1532262136923494 -5 -2 -2 -4 5 -1 3 7
1532262136959397 4 -9 -3 -1 -1 -7 4 1
1532262136968373 8 -6 -14 1 1 -4 1 0
1532262136989325 -1 42 28 0 -1 19 -2 -8
1532262137025221 -1 27 3 -3 0 2 1 1
1532262137036191 1 -20 -18 -8 -5 8 -1 0
1532262137079077 3 -7 -5 0 2 1 0 4
1532262137108997 3 65 40 0 0 -1 -13 -2
1532262137145898 1 -22 -1 36 -12 -2 2 -5
1532262137168837 -6 -39 -12 -21 1 1 -5 2
1532262137213717 -11 8 2 -3 -10 -36 -87 -43
1532262137244635 -6 -72 -15 17 -12 -43 23 10
1532262137265579 4 -22 -3 -17 9 8 23 10
1532262137304475 -3 39 1 -8 -1 8 -4 -18
1532262137348357 -5 -17 -10 -4 -12 -2 -7 -15
1532262137400218 -6 -25 -12 -3 -18 -2 3 -5
1532262137422160 2 -12 0 -1 0 -2 -18 9
1532262137469034 -2 16 7 -4 24 4 18 -7
1532262137513914 13 0 -9 -3 -10 -2 0 12
1532262137521893 -5 1 12 -5 -54 -5 -10 -6
1532262137672491 -21 31 3 -4 -20 -4 -6 -42
1532262137710389 2 -15 -10 9 25 3 -10 -5
1532262137732330 -16 -90 -11 2 -35 -11 -2 -1
1532262137776213 1 12 -8 -48 -95 1 3 1
1532262137843034 -4 -7 -1 12 -27 8 -4 -8
1532262137987647 -1 5 4 16 7 -6 -9 -5
1532262138016570 0 0 -5 -3 -2 -1 -2 0
1532262138056463 -4 -2 0 3 -51 -6 -1 0
1532262138077407 -1 -1 -4 6 -2 -4 -6 -1
1532262138099348 -2 -4 -1 0 -9 -5 -17 -8
1532262138136250 -2 -1 1 6 8 -1 4 3
1532262138160186 -1 -1 0 -2 25 0 0 -1
1532262138182128 -3 -3 -6 -3 -13 -6 -9 -8
1532262138270890 3 4 11 -2 -64 2 1 1
1532262138284853 -6 -7 -12 -22 7 -2 -4 -4
1532262138421488 1 6 5 -2 1 5 6 1
1532262138609983 -1 -1 -5 -2 -3 4 12 3
1532262138720687 -1 1 0 -7 8 -5 -3 1
1532262138782522 -1 -2 -1 3 35 8 1 -1
1532262138833386 -2 -1 0 0 -8 0 -1 -3
1532262138893226 1 1 1 19 10 4 0 -1
1532262138930128 1 0 -1 7 49 8 8 -1
1532262138977999 -2 0 0 -3 -2 -3 -2 1
1532262139059780 -3 -4 0 12 9 0 -6 -4
1532262139087706 0 1 3 13 -4 -3 -8 -3
1532262139162506 0 -1 -2 -6 -10 -7 8 6
1532262139207386 -4 -3 -5 -11 38 2 2 -3
1532262139306127 1 -1 0 2 12 0 1 -1
1532262139379925 -1 -1 -2 4 -8 -19 5 -1
1532262139433781 -3 -1 -3 -5 1 7 -5 -2
1532262139486639 1 0 1 -2 -10 2 0 1
1532262139525535 -2 0 -2 -1 2 10 -1 -1
1532262139569418 -1 2 -2 -3 -24 11 5 3
1532262139613301 -21 -33 -7 -2 16 4 -2 0
1532262139657183 4 -2 -2 -1 -4 18 19 2
1532262139719018 4 -14 1 -5 8 -13 9 -1
1532262139740959 3 6 10 4 -8 -7 4 2
1532262139808778 -2 -8 -6 2 12 5 -1 1
1532262139823738 1 8 9 24 -6 1 6 1
1532262139868618 -3 -4 -2 -8 15 -58 -3 -4
1532262139876596 0 -1 -3 -9 7 29 1 0
1532262139913498 0 2 7 12 -2 26 7 2
1532262139973349 1 0 -11 -13 -28 -19 -2 2
1532262140003258 0 -4 -13 -13 -11 -10 -3 1
1532262140021210 1 2 8 9 13 20 4 0
1532262140078058 -2 0 1 -4 -10 -6 3 -1
1532262140169812 -5 -5 -5 -26 -41 -10 -15 -4
1532262140182778 2 4 0 11 -7 -8 0 -1
1532262140298468 0 5 2 5 -3 -3 -6 0
1532262140363295 -2 -3 -2 -3 14 5 -1 -2
1532262140447071 -2 0 0 -1 6 12 -11 -1
1532262140515887 -3 -2 -1 -1 -9 3 3 1
1532262140555781 -1 20 -1 1 14 8 22 -1
1532262140576724 11 -9 5 -2 -13 -13 16 3
1532262140596671 -11 -7 -3 -5 -23 -3 21 1
1532262140707374 -3 -11 -8 -2 1 1 6 9
1532262140734303 0 0 3 1 -2 16 3 -3
1532262140800126 -2 0 -1 -1 8 9 2 2
1532262140844009 -2 -3 -5 1 0 2 4 -2
1532262140944740 0 1 0 0 -4 1 2 -2
1532262140964686 -2 -2 -2 0 5 -5 1 -1
1532262141002585 -4 -1 -1 4 26 -5 0 -5
1532262141038489 -1 -7 -3 -4 -4 -2 0 2
1532262141085364 -3 -3 -3 -3 -7 -1 -1 -2
1532262141098329 -3 -12 -6 -7 -10 13 -2 -4
1532262141128249 -9 -5 -8 -14 -14 2 -4 -7
1532262141174126 -13 2 3 3 -1 -7 1 8
1532262141213026 16 -5 9 10 8 2 -1 -18
1532262141264883 -1 -2 -2 3 9 10 14 -1
1532262141300788 0 2 -1 -2 8 -1 -4 1
1532262141360628 2 -7 -3 -3 -2 -11 6 4
1532262141390547 -2 6 2 -3 6 1 4 -3
1532262141446399 -2 0 -2 1 -12 -23 -2 -2
1532262141490281 -2 4 -10 -6 -7 -14 -1 0
1532262141520201 14 6 1 -6 -3 5 -2 -2
1532262141558099 2 5 0 8 -17 -12 -7 3
1532262141601983 2 -1 0 1 19 13 4 4
1532262141623924 2 -1 -6 -3 19 24 -5 -2

1532262141684762 -17 -21 -5 -15 -22 -32 -4 -9
1532262141833379 7 8 3 -5 -22 -18 -4 1
1532262141909177 -5 -17 -8 -1 11 -12 14 0
1532262141978453 -3 -9 0 6 61 11 5 -7
1532262142103776 2 -5 -8 -3 -6 19 -2 -3
1532262142154640 -2 -20 -13 -6 -3 -25 -4 -8
1532262142185557 -7 10 1 -2 -8 -3 -6 -4
1532262142276315 -5 -26 -11 -4 -3 45 -13 -6
1532262142404970 2 -4 8 4 6 0 -2 -6
1532262142426912 -13 2 -10 -7 -5 -45 3 21
1532262142639344 1 4 2 5 9 11 4 1
1532262142683232 1 -9 -8 -3 4 9 0 0
1532262142750054 3 -1 -2 3 2 8 4 4
1532262142814881 -2 -4 -3 -1 -1 -3 -7 3
1532262142855772 -9 -48 -2 -2 -1 3 11 10
1532262142875719 -10 -12 -4 -3 -6 -10 -11 1
1532262142908631 9 9 1 8 -2 1 5 3
1532262142966476 9 -7 -9 -10 13 10 -13 -1
1532262143040278 0 5 -1 -4 21 48 5 0
1532262143133054 -4 -1 1 -1 -6 -3 5 -1
1532262143139039 -1 -3 -3 0 -15 -12 -3 5
1532262143183965 2 -2 1 2 -4 -15 -3 1
1532262143220866 0 -2 0 4 5 7 -4 -2
1532262143265746 0 -1 -2 -1 1 -7 -15 -2
1532262143288685 1 -1 1 -1 -8 -3 0 0
1532262143350520 -2 -1 -1 -1 5 14 0 -4
1532262143417341 0 -1 -1 -1 2 0 4 -4
1532262143433298 -4 0 -1 1 -3 -8 -6 0
1532262143454242 -1 -1 0 -2 -2 -12 -3 -1
1532262143506104 -1 -1 -1 0 1 7 -2 -2
1532262143529041 -1 -1 -2 0 -1 -4 -1 1
1532262143550984 1 3 2 6 5 1 -4 -2
1532262143582898 1 -2 -3 -8 -3 3 0 -1
1532262143625783 -5 -18 2 5 4 -1 2 -4
1532262143664679 5 8 -4 -9 11 -4 -4 -1
1532262143685623 6 12 4 1 -14 -1 -1 1
1532262143708562 -3 -4 -9 -17 -9 -5 0 0
1532262143753442 2 2 3 6 -2 8 4 1
1532262143782364 -2 -2 -7 0 14 -15 -5 -2
1532262143806301 0 1 -7 -3 -5 0 -4 -3
1532262143829239 -3 -4 1 -9 -9 -3 -2 -2
1532262143866141 -7 -10 -11 -7 2 -3 -10 -4
1532262143880103 0 -13 -1 7 -8 -11 -5 -1
1532262143904039 1 13 0 -17 7 14 2 -1
1532262143947922 1 -10 1 16 -5 -12 2 -3
1532262143963879 -7 11 8 12 -2 4 2 -2
1532262144069596 -4 -5 -7 -10 25 35 5 -1
1532262144076578 0 -26 5 -1 -12 -3 6 1
1532262144099516 1 7 7 7 16 13 5 1
1532262144122455 1 -1 2 -2 57 40 5 -1
1532262144250114 16 -16 2 2 -15 -30 -2 -6
1532262144292999 -37 -9 -7 -2 -19 -5 0 -4
1532262144356830 5 -11 -6 1 -21 -15 -15 -7
1532262144402705 -2 -22 -5 0 0 4 3 -1
1532262144527372 -3 0 4 -1 -16 -2 -1 -2
1532262144540338 -3 -10 -4 0 -3 -23 -2 -1
1532262144563276 1 16 0 -2 -7 0 1 0
1532262144617145 2 -23 -10 -2 -7 -11 2 8
1532262144624114 -27 -6 -8 -5 -7 -9 -8 -24
1532262144661015 3 -6 -4 -7 -1 -1 -4 -2
1532262144706892 9 4 2 4 9 15 -1 10
1532262144735815 -1 2 2 1 -3 -2 2 -1
1532262144780695 5 0 -3 -9 -16 -18 -7 -2
1532262144850508 3 -3 3 5 15 9 12 2
1532262144871452 2 9 -2 -3 0 -5 -3 -5
1532262144886412 -6 5 3 -13 -5 2 -9 -8
1532262144922346 -9 -8 -5 -2 -4 6 0 -7
1532262144939271 -2 9 -1 0 11 4 -1 2
1532262144969191 1 -3 1 -4 -50 -3 -2 2
1532262144991132 -18 2 -9 6 -17 -22 -6 -4
1532262145059948 -3 -13 -3 -7 -5 -7 -4 0
1532262145118791 -8 -10 -1 -4 -11 21 12 -3
1532262145150705 0 2 6 1 -10 -4 2 0
1532262145193591 -3 2 -2 3 7 4 -2 -5
1532262145291329 2 1 -1 -3 -4 -21 -4 -1
1532262145316263 15 3 0 -2 -22 -14 -3 3
1532262145382087 1 -1 -2 1 19 8 -2 5
1532262145404028 -3 0 -3 -12 -14 -9 -20 -3
1532262145442924 -3 -1 0 2 16 11 -16 -5
1532262145478828 -4 -3 -4 -4 19 19 2 -3
1532262145591527 2 -2 -2 -3 1 9 1 -10
1532262145636406 -27 -8 -2 -1 -5 1 -2 -1
1532262145681290 -4 -2 -2 1 -7 3 1 -3
1532262145736140 -4 -2 -2 -6 -37 -15 -14 7
1532262145755089 1 3 3 4 15 -3 6 19
1532262145793997 -11 1 2 1 6 -1 6 -22
1532262145929622 -11 0 1 0 2 5 5 9
1532262145958545 -7 0 -3 -3 2 4 -3 3
1532262146071244 -1 2 0 -2 -1 0 0 2
1532262146147041 -7 -1 -1 -2 -2 -6 -6 29
1532262146192919 -4 -1 -1 1 14 10 9 -14
1532262146294646 3 0 -1 -2 -7 -9 -9 3
1532262146333543 5 3 3 -2 -14 1 -8 7
1532262146484140 12 -3 -3 3 9 3 0 -12
1532262146521041 -9 -1 -1 -1 11 10 -13 -12
1532262146551958 -19 -1 -2 -3 -13 -29 -7 -44
1532262146581878 -21 0 0 0 10 2 -4 -11
1532262146613793 -23 -6 -3 -4 -4 1 -7 27
1532262146656690 75 -37 -7 -2 -1 7 23 98
1532262146725494 19 3 -3 -2 -11 3 -10 -9
1532262146747436 -30 -17 -7 6 1 67 19 -16
1532262146762396 -1 -21 -15 1 -51 70 17 -18
1532262146784337 18 -7 -1 -1 7 7 -16 14
1532262146827223 -10 2 0 -1 -39 0 5 -6
1532262146859137 3 10 4 -1 11 18 1 -12
1532262146904016 -5 -1 -3 0 3 -6 4 -29
1532262146933937 -9 -7 2 3 23 9 5 19
1532262146994774 -2 0 0 -1 -5 -10 1 -7
1532262147062593 -2 2 1 -1 0 -4 -1 0
1532262147136396 2 -8 -4 1 6 6 3 2
1532262147157339 -5 -7 -4 -4 -7 8 3 -13
1532262147240118 4 11 16 10 2 4 -9 4
1532262147300955 1 1 -2 -11 17 4 4 2
1532262147339857 -2 -22 -14 -5 5 -5 3 -3
1532262147346833 -7 12 7 -2 0 -5 21 -8
1532262147436592 -4 -7 -5 1 5 -2 -5 -6
1532262147503414 -1 16 -2 -4 14 -1 -5 10
1532262147618108 -2 11 -2 -4 -3 -5 -3 0
1532262147639051 2 -5 -2 -3 -3 -1 5 5
1532262147735793 -3 4 -12 -2 36 -4 3 -3
1532262147758732 6 -19 0 1 -8 5 3 2
1532262147807601 -2 11 3 0 -12 -1 -4 -6
1532262147849488 -1 12 -5 -2 -6 0 5 0
1532262147908331 -2 -21 -5 -5 -4 -2 1 -3
1532262147939249 -4 -20 -6 -2 15 1 1 -2
1532262147967174 -4 -11 -8 -8 -15 -1 -1 -1
1532262147999088 -1 -1 -3 -5 1 1 -1 -1
1532262148034992 -2 1 -4 -11 -1 2 3 0
1532262148094833 1 4 3 7 -55 -3 -6 0
1532262148187584 -3 -6 -5 7 -11 0 3 -1
1532262148200550 2 5 16 -20 -26 -7 -8 -3
1532262148250432 1 1 6 10 14 0 -5 -1
1532262148261387 -2 0 -2 0 8 4 3 0
1532262148427941 -35 -27 -3 -2 -1 -1 0 -3
1532262148455867 0 4 2 0 3 0 12 7
1532262148537648 0 -1 -3 -14 -2 -2 1 3
1532262148560587 -5 -3 1 15 18 7 -19 -7
1532262148681264 1 6 18 51 20 2 6 0
1532262148711184 -3 -6 -16 -23 4 -6 0 -2
1532262148791975 1 4 -5 -1 -4 -2 -3 2
1532262148823883 -2 -8 -3 -6 -3 -4 14 2
1532262148966501 1 -1 0 -5 5 -6 4 1
1532262149050277 0 3 -1 -15 -6 7 11 -2
1532262149146022 0 -3 -7 -12 -1 -3 14 4
1532262149168960 -1 -1 -1 6 4 -1 -9 -7
1532262149197883 -1 -1 -5 -11 -10 -3 -4 -4
1532262149318561 -1 -2 2 17 18 -13 28 6
1532262149431259 -3 -1 1 3 15 -7 12 1
1532262149523023 -2 -3 -2 -1 -14 -2 6 2
1532262149545952 0 1 0 -3 2 10 -10 -1
1532262149567893 -1 -2 0 0 -10 -16 10 0
1532262149589845 0 0 -3 2 14 29 2 1
1532262149641696 -12 -26 0 3 3 11 7 -5
1532262149701536 7 15 -9 -7 -13 0 2 0
1532262149714501 -2 -19 -10 -3 4 -32 16 -3
1532262149775339 0 14 4 -3 13 8 4 4
1532262149838176 -4 5 -4 -5 -5 9 20 -2
1532262149868091 0 9 11 26 46 81 14 -2
1532262149903995 -7 -93 -8 -12 -20 4 -10 -2
1532262149925936 0 -10 -1 2 -5 4 -7 -2
1532262149954859 -3 7 1 7 -6 1 -5 -2
1532262150001733 -2 -7 -4 0 -11 -32 -4 -2
1532262150047610 -5 16 6 3 22 1 -8 -5
1532262150070549 -3 2 6 7 0 13 4 1
1532262150091493 -2 3 9 -8 -11 16 1 1
1532262150115429 0 13 -16 -2 -11 -2 1 0
1532262150136373 1 2 3 1 -28 -9 -10 -1
1532262150143355 -3 -3 0 10 17 1 -20 -6
1532262150158315 -1 0 0 -17 -8 1 -9 -2
1532262150181253 3 6 8 6 4 9 -10 -2
1532262150264031 -2 -1 -3 -1 -4 23 -8 -9
1532262150277994 0 -11 -2 2 17 3 -3 3
1532262150315899 -5 -4 -5 -5 1 -2 4 -6
1532262150355787 1 19 5 1 11 -3 6 2
1532262150398672 -2 3 -3 -6 -9 -13 21 5
1532262150424614 -1 0 -4 -25 -26 -14 -46 -3
1532262150511370 -8 -3 -2 -1 4 -13 6 1
1532262150521344 2 0 -5 -5 -12 -9 -13 -4
1532262150683909 11 1 1 2 -2 -2 16 2
1532262150699866 -3 -3 -1 -2 -19 -14 0 0
1532262150727792 6 9 9 1 -8 -2 5 3
1532262150757712 5 13 -1 -1 3 0 -1 -10
1532262150794613 -6 -2 -1 2 0 -7 -1 0
1532262150833509 9 -1 -1 -3 -4 -2 2 9
1532262150856448 -2 -2 -1 -4 -7 1 -1 -3
1532262150885370 0 1 2 0 10 -3 -5 -1
1532262150977125 19 -7 -6 -7 -7 8 -5 4
1532262150992085 3 -1 1 7 -11 -1 0 5
1532262151000064 -6 -3 -1 -3 -14 -6 -2 2
1532262151024997 7 -1 2 0 -6 -1 -12 -1
1532262151034970 -5 -4 -1 1 26 18 8 7
1532262151065888 4 -4 1 0 4 8 2 -3
1532262151133707 10 2 1 -1 -6 -4 1 -5
1532262151144677 -5 -3 -3 3 11 7 3 1
1532262151202522 -5 1 1 -4 -17 -11 -4 -2
1532262151223479 -10 -23 0 -6 -27 -35 -14 -8
1532262151253386 4 -60 -25 -2 7 -6 1 7
1532262151260367 3 14 5 -7 -18 -24 -1 -4
1532262151291285 13 36 5 9 11 50 0 7
1532262151314224 2 0 -8 -6 -5 11 1 0
1532262151329184 0 -3 -3 -6 -7 -12 7 -2
1532262151366085 -6 1 -6 -14 -22 21 3 -1
1532262151389035 -4 -4 1 -4 16 6 1 1
1532262151456843 2 5 1 -6 -9 13 -4 2
1532262151492746 -5 6 2 -2 -9 -34 -1 1
1532262151524661 3 -1 -2 -6 65 -2 -7 4
1532262151546602 -3 1 -4 5 9 10 -6 -7
1532262151583503 1 -4 -6 1 16 21 -3 -3
1532262151643344 3 -2 0 1 -4 33 -2 1
1532262151689225 -2 -1 -1 0 0 -3 1 0
1532262151719141 -3 -4 -2 1 -1 10 4 0
1532262151799925 0 -4 -5 -1 -4 -5 -2 -3
1532262151845802 0 -2 -2 1 0 -1 1 -2

1532262151929578 0 -3 -3 0 -1 -3 -2 0
1532262151995402 -1 -1 -2 -1 -6 -7 0 -1
1532262152071200 -1 -2 1 0 -4 -6 0 1
1532262152116079 -1 0 -1 0 8 1 -2 0
1532262152130042 -2 1 0 -2 2 5 1 1
1532262152168940 -1 -2 -3 -1 -4 0 2 2
1532262152198858 1 -2 -2 -2 -3 -2 -3 -1
1532262152222795 1 -1 -2 -3 -5 -7 -1 -3
1532262152266684 1 0 1 0 -12 -4 -1 1
1532262152288623 -1 1 0 -2 -4 -6 -1 -1
1532262152335493 -2 -3 -2 1 5 1 3 1
1532262152358432 1 -3 -1 -2 -3 -4 -1 0
1532262152363418 -2 -2 -2 -1 -2 -3 -1 0
1532262152422261 1 -1 -1 -3 -2 -5 -1 -2
1532262152468138 1 -1 -1 1 0 1 0 0
1532262152499054 0 0 -1 1 0 2 -2 -1
1532262152520996 0 -1 0 -2 -9 -4 -2 -1
1532262152596794 0 0 -1 -1 -7 -9 -4 0
1532262152637685 -1 -4 -2 2 3 1 -1 -1
1532262152658629 1 -2 -3 1 1 -1 -1 -2
1532262152708495 1 -1 -4 -4 -7 -1 0 1
1532262152745396 -3 -5 -6 -12 6 2 -15 -2
1532262152783307 -1 -3 -3 -8 -5 -2 0 -1
1532262152837151 -2 4 4 7 6 -3 2 -2
1532262152844132 -1 -3 -1 0 -16 -35 -2 -2
1532262152882031 2 2 1 7 3 -5 -2 0
1532262152892005 0 -1 -8 -2 4 -7 0 -2
1532262152918932 -3 -3 2 -4 -8 -4 -3 -4
1532262152934890 -2 -6 -4 -7 11 -12 -5 -2
1532262152955846 1 2 -1 5 3 3 2 2
1532262152970794 -2 -2 -5 9 47 28 -2 -3
1532262152993732 2 -2 -1 -3 -17 -12 -1 0
1532262153015674 1 -1 1 6 14 35 -1 -1
1532262153022655 2 -2 5 8 -15 -4 -4 -1
1532262153212148 -5 -6 -9 -20 10 -4 0 -2
1532262153235087 0 7 5 4 -13 -10 -3 0
1532262153258025 -1 -2 -1 -3 -8 -4 1 0
1532262153271988 -1 7 6 1 3 -3 -3 -3
1532262153293930 -3 -3 -1 0 -5 -13 -4 0
1532262153315871 1 -3 -7 -1 -2 -1 2 -2
1532262153338810 1 0 -5 0 0 -9 -3 2
1532262153353770 -3 -6 -12 -19 -7 -5 -1 -3
1532262153407626 0 -1 2 9 -1 19 -1 0
1532262153430579 -3 -4 -4 -10 11 9 0 -2
1532262153443529 1 2 1 -1 15 2 2 1
1532262153465471 0 -1 -2 3 -15 -14 -9 -2
1532262153497385 -3 -2 -5 -3 16 -2 -5 -2
1532262153518329 -3 0 7 24 25 14 15 0
1532262153572186 -5 -3 -8 -19 25 -5 -1 -6
1532262153596122 1 -4 -5 -6 19 10 2 -3
1532262153682889 0 -2 0 13 13 10 12 2
1532262153769658 1 2 -1 4 6 3 7 3
1532262153789609 14 -18 -8 -11 -4 -14 8 2
1532262153834484 -32 -2 -13 -6 -3 8 -2 4
1532262153898314 -5 -24 -6 0 -7 -11 5 -4
1532262153930228 -7 -22 -15 -6 5 -50 -3 -5
1532262153941199 -1 -11 -5 -2 1 -44 5 -1
1532262153977103 4 13 6 5 7 -22 10 10
1532262154029961 -7 -25 -6 -10 -7 -12 34 5
1532262154044922 -1 0 9 42 16 -18 13 0
1532262154073856 5 26 5 -5 -14 -9 1 2
1532262154163604 0 3 -3 1 11 -15 9 1
1532262154322195 -3 3 2 -1 12 8 -2 0
1532262154383017 -5 -1 1 2 9 -6 -7 -2
1532262154450837 -1 -18 -2 -11 16 5 -4 -1
1532262154517657 0 5 2 7 -3 15 6 0
1532262154563535 -6 -5 -12 -25 -6 -9 -21 -6
1532262154778959 -3 -2 -3 -9 -28 -49 -8 -5
1532262154815860 2 -1 -1 0 -47 -42 -1 1
1532262154936537 -2 -4 -3 -4 -1 -3 -3 -4
1532262154996377 -1 -1 0 2 4 6 7 2
1532262155100099 16 2 -2 0 2 13 2 0
1532262155244713 -5 2 0 -1 -8 -6 -4 -11
1532262155343449 -11 -5 -3 -3 -5 -11 -8 1
1532262155425230 6 -2 1 2 9 14 3 0
1532262155432212 8 0 -1 -3 -15 -16 -1 -40
1532262155708473 5 0 2 -1 7 10 -1 -3
1532262155755347 3 3 4 5 13 -12 0 -12
1532262155783273 -3 -1 -2 0 24 4 -6 -7
1532262155853086 4 -3 -3 -11 -77 -50 -15 -2
1532262155883007 -12 -3 1 -1 1 20 13 28
1532262155894987 -3 -2 0 3 4 -14 2 -6
1532262155942846 -62 -8 -9 -5 -7 -38 7 43
1532262155962793 4 -2 -2 0 4 -12 -2 47
1532262156015652 -5 -9 -10 3 7 12 -13 -29
1532262156046569 28 -16 -12 3 -1 -26 11 -4
1532262156107423 35 1 -2 -2 -12 -7 -10 25
1532262156160265 -1 -1 -2 0 -1 10 4 -20
1532262156198164 -17 -7 -3 1 0 3 -2 -23
1532262156250025 -20 -4 -2 -1 1 -13 -2 -2
1532262156264985 -3 -7 -5 -5 -9 -6 3 11
1532262156315849 9 -5 -1 -1 -1 -9 1 17
1532262156337790 1 -5 -3 3 0 -3 -3 5
1532262156360729 8 6 -8 3 1 -10 2 34
1532262156382670 3 15 17 16 4 1 14 17
1532262156406606 -7 -55 -20 2 -1 -17 14 -61
1532262156428547 17 -16 -1 -8 -3 23 -4 43
1532262156474425 6 -8 -7 -7 -1 25 -5 38
1532262156504345 4 26 5 5 -6 -3 -2 -6
1532262156518307 9 24 3 -23 27 4 -11 19
1532262156549246 -10 -55 -3 24 34 10 1 7
1532262156578169 9 10 30 50 22 6 15 11
1532262156592131 3 -15 -21 -21 17 -3 2 2
1532262156645987 6 -17 -4 -11 -16 -3 7 12
1532262156668926 5 70 18 -6 17 -1 -9 5
1532262156691864 0 -15 2 4 -17 0 0 -1
1532262156712822 2 12 3 4 -22 -6 4 -4
1532262156739736 17 37 -1 1 -29 -11 -16 -33
1532262156759683 -5 -39 -5 0 -9 -1 -6 -3
1532262156783619 -7 -10 4 3 -8 3 1 -3
1532262156819523 -5 -16 -5 -1 -6 -3 -6 4
1532262156863406 -9 18 0 4 20 3 -11 -25
1532262156901304 -9 -84 -11 4 72 -1 -5 -7
1532262156924243 -2 -6 -3 1 50 2 0 -5
1532262156946184 -2 24 8 -3 -29 -2 3 17
1532262156991065 -4 43 -3 -10 -13 -6 -5 1
1532262157014003 -2 23 2 -3 6 1 1 2
1532262157037939 4 0 -2 4 -32 -1 0 -8
1532262157059880 4 7 8 23 16 -2 2 5
1532262157082819 1 1 9 3 -2 -7 2 4
1532262157095784 -3 -5 -16 -17 2 0 -9 -3
1532262157117726 -3 -3 -8 -4 24 -3 3 2
1532262157149640 3 4 1 -22 -3 -3 -2 -1
1532262157156622 0 -5 -2 1 21 6 5 1
1532262157208483 1 4 7 19 -59 2 0 2
1532262157230424 -2 -5 -10 -9 -17 -5 -8 -5
1532262157262339 0 0 7 12 10 -3 7 0
1532262157285278 0 0 4 15 60 -3 -3 1
1532262157306230 -2 -2 -7 -16 -73 -3 -13 -7
1532262157385011 2 0 -1 -2 40 2 1 -2
1532262157417923 -6 -5 -3 -8 8 -3 -10 10
1532262157440862 2 -1 -1 1 42 -3 3 6
1532262157479757 0 -1 0 1 -21 -2 -2 0
1532262157516659 -3 0 1 -9 -10 -3 -2 -1
1532262157539605 0 1 1 4 10 -2 3 1
1532262157643337 -2 -2 0 10 3 -1 -8 -2
1532262157675234 0 -2 -1 1 5 -2 2 6
1532262157689198 -1 1 3 -2 13 -4 0 -1
1532262157704157 -3 0 0 -2 35 -1 -2 -1
1532262157749036 -1 -3 -5 -13 -15 -2 1 0
1532262157794915 -2 -3 -4 6 -6 -4 -6 -4
1532262157840802 18 -11 -5 0 -14 -1 -1 1
1532262157860739 -23 -3 -4 -2 -16 -5 -8 0
1532262157891655 -3 -4 -3 -2 -1 -7 -14 -3
1532262157957480 0 -4 -5 -29 -2 0 -1 -5
1532262158049247 -4 -4 -3 -5 -9 0 -2 -2
1532262158170909 0 -13 -4 0 0 -1 1 0
1532262158191853 -2 14 2 6 -1 -2 -9 -2
1532262158243715 -2 -2 -4 0 -4 -7 10 0
1532262158415256 2 3 7 26 34 5 0 0
1532262158649629 -1 -3 1 3 -18 -6 2 5
1532262158671570 -1 -4 -3 -4 -9 -10 42 4
1532262158747367 0 -2 -3 -11 -24 -15 36 10
1532262158904946 -1 0 -2 -2 1 1 1 -1
1532262158948829 -2 -3 -2 -1 0 10 7 1
1532262159068509 10 -24 -9 -3 0 -10 -13 -5
1532262159105410 1 27 2 -5 -23 -17 5 0
1532262159166248 -1 18 2 -2 7 -17 -10 -2
1532262159175224 -4 2 2 2 10 -18 6 -2
1532262159227084 -3 3 -1 5 -10 1 0 -1
1532262159284930 2 -10 6 12 4 0 4 -2
1532262159316845 2 7 2 7 27 -31 -2 0
1532262159345767 0 -6 -1 16 2 9 2 0
1532262159419570 22 -5 -6 -15 -10 -14 -1 0
1532262159443507 2 8 17 5 -35 -21 -3 -1
1532262159466445 -2 -6 -31 -30 -19 4 5 -2
1532262159505347 1 -1 -14 20 -23 6 3 -1
1532262159527282 4 1 13 12 10 13 2 0
1532262159593106 -3 0 0 7 9 -4 -1 -1
1532262159630007 -4 0 1 5 12 5 6 0
1532262159668903 0 -1 -3 -6 24 18 3 0
1532262159872363 0 4 6 2 -11 1 2 -2
1532262159877346 -2 0 -1 -2 -3 9 -7 -3
1532262159909261 -2 -3 -1 -2 -6 -1 -1 0
1532262160042903 13 -3 -1 -3 -2 -7 2 -2
1532262160150615 -3 -6 -3 -3 1 -5 -1 -1
1532262160156599 3 65 9 -2 3 7 -1 4
1532262160246359 0 -8 1 0 26 2 -3 0
1532262160389007 -2 4 -1 2 -6 -5 4 0
1532262160436850 0 4 4 -3 -75 -3 -1 1
1532262160456797 -7 1 0 2 23 32 -3 -6
1532262160493698 -3 12 1 0 -7 5 -2 -1
1532262160568498 -4 5 3 -4 3 0 -1 0
1532262160690173 1 6 0 3 2 -9 2 3
1532262160706130 -6 -8 -1 2 5 -7 0 -8
1532262160749015 20 1 7 -1 3 -2 3 26
1532262160778935 -19 4 -2 -3 -4 0 1 -5
1532262160952471 1 -11 -8 -3 -1 2 -1 7
1532262160959452 0 -2 -1 -3 1 -1 5 12
1532262161027271 -6 -32 -19 -8 -5 -2 -3 -3
1532262161079132 -6 -16 -5 -16 -7 2 4 -1
1532262161125010 -4 -15 -5 8 -3 -1 -3 -3
1532262161242695 8 1 -1 -7 9 -4 5 -1
1532262161279596 4 -2 -12 -20 2 -4 1 0

1532262161537906 -16 -2 -5 1 -7 -14 -1 0
1532262161558850 -4 0 -4 -21 -12 25 -1 1
1532262161582785 -1 3 -6 -8 1 11 -1 -1
1532262161753329 -2 -20 -8 -7 -5 -10 -3 0
1532262161845084 3 4 8 22 8 -3 -1 2
1532262161866028 -2 -7 0 -8 -8 2 0 1
1532262162158246 3 -2 -1 0 -7 4 -3 0
1532262162385638 -1 18 -1 -12 -3 -3 0 -3
1532262162390625 -1 -6 -5 -14 -11 -2 -3 -3
1532262162474421 -1 0 -1 -4 2 0 22 0
1532262162498356 0 24 1 9 2 13 -8 4
1532262162647956 3 16 3 0 -3 -5 -2 -3
1532262162706812 3 4 4 12 1 -1 -6 1
1532262162863455 -4 1 -3 -7 -1 0 -1 -1
1532262162939749 -1 -2 -2 -19 -4 -1 5 1
1532262163006570 3 2 4 0 0 -2 17 6
1532262163241941 -2 1 1 -7 -3 -4 13 -2
1532262163285824 -3 -4 -4 -4 -4 11 -3 -6
1532262163411499 0 2 4 1 3 14 5 1
1532262163437418 -1 -3 -1 5 2 1 -5 -2
1532262163478308 0 -1 -4 -4 -1 0 -2 -2
1532262163598919 0 -3 2 -1 -1 1 -1 0
1532262163635821 0 -1 -2 -1 12 10 0 -1
1532262163690673 0 2 0 -16 -13 7 0 0
1532262163714609 -1 -1 -5 2 -28 13 2 -1
1532262163734559 1 -5 -3 -1 -7 15 5 -2
1532262163838279 -5 0 0 6 31 13 4 -3
1532262163868199 -1 0 -2 2 14 17 0 -3
1532262163935020 -4 -1 -5 -1 7 3 -2 -2
1532262163981895 -2 -1 0 -1 -3 -4 1 -1
1532262164034753 -2 -2 2 11 67 9 0 1
1532262164077639 0 0 5 9 -12 -12 -2 -1
1532262164116535 -2 -1 7 33 10 -15 0 -1
1532262164145458 -2 -6 -9 -28 -7 9 -3 0
1532262164155431 -1 1 0 20 9 6 5 -2
1532262164246189 -1 -5 -7 -7 -4 1 5 1
1532262164267132 -2 10 -3 -4 8 1 0 -2
1532262164311015 -3 -1 -6 -17 -5 -1 -1 -1
1532262164372867 -1 17 12 5 2 2 -1 -3
1532262164400775 -4 -22 -4 -26 -15 -18 7 -1
1532262164907420 0 16 -1 2 -10 -16 4 -1
1532262165000172 -9 -11 -22 -21 -11 -12 -13 -7
1532262165031089 -4 -17 3 21 4 5 8 0
1532262165099906 -9 -43 -36 -19 -8 13 9 5
1532262165121847 -4 -38 -20 -3 51 19 1 -3
1532262165143788 -2 -13 -8 0 4 12 6 2
1532262165232551 0 4 14 3 -25 -23 -3 0
1532262165417057 -1 -6 -7 -6 -5 -4 -5 -1
1532262165444983 -1 2 2 -9 -2 4 -3 0
1532262165547708 -4 0 -2 -1 5 30 1 -3
1532262165701297 -2 -13 1 -9 21 -18 -4 -2
1532262165790060 -1 -3 -1 -5 1 4 13 2
1532262165903773 -2 -3 -1 0 -7 -8 -12 -4
1532262165937665 2 4 3 -1 -11 -9 -15 -2
1532262166066321 -6 7 -1 -3 -7 -20 -8 -15
1532262166095244 -20 -5 -3 -4 16 8 -7 -2
1532262166186000 3 -1 -1 -7 -30 -24 -16 0
1532262166240855 -1 -1 0 -1 2 -3 -1 12
1532262166465255 -12 4 4 -3 -25 -13 -2 -23
1532262166488193 26 -1 -7 -3 -1 -3 -10 3
1532262166554017 -10 -1 1 1 -5 10 0 10
1532262166810332 -1 -2 -2 -3 8 -71 -8 -14
1532262166831276 -20 -2 1 0 -17 -18 5 0
1532262166876155 -7 -3 -3 -2 12 0 3 -1
1532262166998827 5 -2 -1 0 5 10 8 -1
1532262167041713 -16 -7 -1 3 16 22 10 -1
1532262167088587 -15 9 8 1 7 -1 9 2
1532262167131473 -2 1 -1 0 5 -11 -2 7
1532262167153414 26 -2 2 0 3 -2 -6 -47
1532262167250155 -45 -9 -8 -3 23 0 16 -24
1532262167296033 4 -1 2 -1 -6 13 -3 2
1532262167320966 -17 -7 -5 -4 -11 -19 -11 -13
1532262167408731 -6 17 7 1 2 5 -4 -4
1532262167485526 -7 -32 -17 -5 -3 -10 -7 -7
1532262167596231 -21 3 9 2 0 -11 -7 -18
1532262167626166 0 13 4 -3 -7 -3 4 2
1532262167662054 -4 18 25 0 -2 16 7 -4
1532262167738849 2 -7 -3 -11 -3 -2 5 -5
1532262167784726 8 4 -5 -2 11 -2 10 6
1532262167808661 -3 -10 0 14 -18 1 9 -1
1532262167836587 0 -10 -9 -6 -15 -2 6 6
1532262167880472 5 -7 -1 -4 -4 -4 -12 7
1532262167902411 1 -1 2 -1 4 0 5 -2
1532262167957266 -53 9 10 25 -4 4 -3 5
1532262167978209 9 36 3 -8 -3 -4 1 -16
1532262168000150 22 -11 -1 3 2 3 1 -9
1532262168026081 4 3 -4 3 6 4 15 14
1532262168068966 -4 0 -2 -3 9 -5 -14 -6
1532262168112848 -21 -50 -24 1 15 -4 5 4
1532262168212582 17 2 3 0 1 3 6 -3
1532262168226544 3 -19 -12 -14 -8 -4 -12 -17
1532262168295360 3 7 9 19 22 0 10 0
1532262168347222 -3 -9 -10 -22 -6 1 9 5
1532262168465904 -1 4 0 -8 -7 1 1 3
1532262168517766 -1 -2 -2 0 -7 -4 -7 -10
1532262168571622 -1 2 4 16 8 1 -6 -20
1532262168601542 2 -2 -4 -9 2 0 -2 12
1532262168668366 0 -1 -7 -11 11 -1 10 -1
1532262168692299 4 0 -4 -14 -8 1 0 14
1532262168751142 -1 0 7 25 23 -3 1 0
1532262168795027 -1 -3 -9 -21 -13 0 8 0
1532262168960582 0 -1 -1 9 17 1 4 -2
1532262169028400 3 -1 2 13 3 0 -2 5
1532262169126139 -1 -1 -6 -17 -5 2 -2 2
1532262169171019 -2 -3 -4 -5 5 1 6 5
1532262169270752 -2 -2 -5 -19 0 -4 1 -20
1532262169292693 -2 -3 -3 -4 10 5 8 2
1532262169327600 -1 2 -1 -7 12 1 5 -8
1532262169351536 -5 -4 -3 -5 -5 -5 -9 -2
1532262169381456 -1 -3 -4 -14 -5 -2 -6 -4
1532262169435312 0 0 4 10 5 -5 -3 5
1532262169479207 1 1 8 38 22 -2 3 3
1532262169517093 -1 0 5 0 -1 3 0 -1
1532262169569959 -4 -3 -7 -14 -5 4 -9 -1
1532262169635782 1 0 -5 -11 -6 -2 -3 2
1532262169689639 -3 -1 -3 -5 2 -7 28 -4
1532262169747484 2 1 1 1 6 2 -17 4
1532262169817297 2 -1 -2 8 8 0 2 2
1532262169884118 4 1 -1 -4 3 0 -5 1
1532262169949942 -3 0 0 -3 -4 2 2 2
1532262169980860 2 0 0 -2 3 -2 3 -2
1532262170025740 -1 -1 0 4 -17 -9 1 -2
1532262170055660 0 -2 -2 13 10 -3 -5 -1
1532262170077601 2 2 0 -3 -6 -5 5 3
1532262170118491 0 0 5 22 22 22 1 2
1532262170138438 0 -3 -4 -5 21 24 -6 -3
1532262170175339 -2 -2 -3 -2 16 23 5 -1
1532262170235181 -16 24 -5 -20 -17 -28 -9 -27
1532262170283056 3 -7 -4 4 38 22 -3 9
1532262170303995 18 -18 -4 -5 -6 -1 -8 11
1532262170357852 2 15 0 -3 2 18 7 -2
1532262170393755 -7 0 -3 -8 -32 -9 2 4
1532262170415697 0 -28 -5 6 51 20 0 -3
1532262170452599 -4 -18 -3 10 10 -9 -11 -1
1532262170475537 -2 4 6 -14 -56 -9 5 -1
1532262170513436 0 2 4 3 -25 30 -7 0
1532262170537372 -1 4 -5 -6 5 -9 -8 2
1532262170580257 -2 -9 -4 5 -10 -1 -9 -5
1532262170625137 -1 0 -4 2 2 -8 0 1
1532262170656069 -3 -5 -1 -8 42 15 -1 1
1532262170715894 1 3 6 6 -12 -4 4 3
1532262170729857 -1 -1 -2 3 12 -1 5 -2
1532262170752796 1 0 0 5 13 1 -1 2
1532262170775734 -3 1 2 4 6 -16 -14 -2
1532262170801665 1 0 -2 3 19 4 16 2
1532262170835574 1 2 1 2 14 8 5 3
1532262170905387 -4 -2 0 -5 -17 5 16 5
1532262170993153 2 -3 0 0 -86 -6 2 -1
1532262171055991 1 -8 -3 -1 19 1 -3 -3
1532262171143750 2 2 1 0 -8 -3 -5 1
1532262171195611 1 -1 1 2 -29 -32 -8 1
1532262171214561 -3 -4 -5 -2 26 1 -5 -4
1532262171258444 3 4 3 4 13 -12 -1 -4
1532262171278390 10 3 0 1 40 -11 3 -4
1532262171289361 -7 -9 0 -5 -13 18 -6 -4
1532262171385105 -3 8 5 -4 -17 -8 0 -2
1532262171465889 1 2 -1 2 -4 0 1 -2
1532262171514758 -2 -4 0 -1 -8 5 0 1
1532262171532710 -1 -6 -5 -1 -8 -2 9 0
1532262171580582 0 -2 1 2 8 -6 -8 -2
1532262171768080 -1 -3 -2 -8 -49 -13 -9 -1
1532262171793014 1 2 2 1 19 0 -7 0
1532262171827921 -9 -37 -6 -6 -6 60 -3 -2
1532262171855846 -4 -5 -1 0 13 -30 -1 -6
1532262171901723 -8 -11 -3 -1 -10 -4 1 -2
1532262171923665 1 -11 1 -5 -5 -10 3 0
1532262171953584 -3 1 -2 -1 7 0 -9 -4
1532262172000459 1 1 3 0 18 -4 -7 -2
1532262172021403 5 4 0 3 17 -4 3 37
1532262172035366 -6 1 -1 -1 25 21 11 -27
1532262172081243 -9 0 -2 -3 -13 -10 1 -1
1532262172104182 15 -1 1 -1 -16 0 -2 -9
1532262172119141 -3 -4 -3 -6 -11 -25 7 -7
1532262172199926 -6 0 -4 -2 -13 -10 0 0
1532262172226854 -2 -1 -1 -2 -5 -21 -7 11
1532262172291680 -8 1 0 1 3 22 2 -5
1532262172313621 -4 -1 -1 2 6 -22 -10 -2

1532262172388430 -5 -1 1 6 23 29 -18 -3
1532262172418352 -9 -2 -2 -4 -14 3 2 -6
1532262172464259 -17 -4 -1 -1 -1 -22 -1 -2
1532262172524099 -1 1 -1 2 2 1 4 2
1532262172574962 17 -4 -3 -5 -27 -74 -1 30
1532262172598899 4 -1 -1 2 6 51 1 -2
1532262172657741 -4 1 2 1 6 23 -2 -2
1532262172694642 -6 -1 -1 -2 2 5 -1 -1
1532262172717581 -1 -2 0 -1 12 17 -2 -6
1532262172810333 8 -1 0 0 1 -2 -7 -6
1532262172876158 4 -1 -1 -3 -13 0 1 -4
1532262172890129 -10 -3 0 2 0 -4 -5 -2
1532262172921037 2 -1 -1 -2 -2 3 22 12
1532262172943976 2 0 0 -1 -8 -6 -8 -3
1532262172980877 1 -1 -1 -1 -11 -12 -5 -2
1532262173003816 -2 -1 -1 -1 -7 0 -3 0
1532262173033736 -2 -1 -2 -2 5 -10 -4 -1
1532262173041716 -2 -3 -2 -1 -5 9 0 -1
1532262173063657 -1 -1 1 -1 -1 6 -2 0
1532262173078616 1 -2 -3 -2 24 15 -1 -2
1532262173130478 1 -1 0 3 3 1 -1 1
1532262173148430 -2 -3 -1 0 -2 -6 -1 1
1532262173169374 2 -2 -1 -3 -4 -3 -1 -2
1532262173191314 1 6 13 51 12 0 3 2
1532262173221235 1 -1 5 7 3 -2 1 1
1532262173244173 0 -2 -2 -7 -11 -7 -1 0
1532262173304014 -1 -3 -10 -13 -12 -2 1 -1
1532262173343917 1 2 13 14 5 8 1 0
1532262173386804 -2 -2 -3 -11 -14 -6 -4 -2
1532262173408742 -1 1 4 -1 8 -4 -5 -2
1532262173424699 0 -2 -7 -14 6 4 -2 -3
1532262173446640 -3 -7 -6 -6 -2 -2 1 -2
1532262173489530 -6 -49 -20 -11 -10 15 20 5
1532262173506480 -1 -9 3 3 7 11 0 1
1532262173543382 -1 19 2 -4 -2 -6 -12 -2
1532262173550363 0 -7 0 8 1 5 0 -2
1532262173612215 2 16 4 3 -6 -6 -3 0
1532262173618182 0 22 -8 -6 -22 32 5 -1
1532262173790721 0 36 10 11 13 0 3 1
1532262173988193 -2 17 -7 -5 -6 3 -4 -3
1532262174001157 4 5 12 2 4 4 -1 -1
1532262174025094 -2 -15 -7 -9 -1 3 -10 -4
1532262174075957 -2 -3 -4 -12 11 17 6 -1
1532262174104880 3 2 0 9 7 6 0 2
1532262174195638 0 -1 0 -3 -5 -1 4 0
1532262174214587 -3 -1 -2 -6 -27 -13 1 -4
1532262174235531 0 -2 -1 -2 5 8 -13 -3
1532262174256491 -9 11 9 0 8 12 1 -1
1532262174289388 6 22 8 -1 -2 1 7 -1
1532262174309334 -3 -5 -7 -10 2 0 -5 -3
1532262174353216 -1 3 -1 -5 12 10 -12 -2
1532262174468907 1 3 -2 1 -14 -31 -5 -2
1532262174487856 2 -3 -1 0 8 23 -1 1
1532262174539717 -1 -16 -5 -3 -5 -4 -3 -1
1532262174631472 12 -10 0 5 -7 20 2 16
1532262174776086 3 -1 1 1 -12 -18 -3 -1
1532262174893770 -5 -1 -8 -45 -14 -13 -1 -4
1532262174968570 -1 -2 -1 1 3 -2 18 1
1532262175052346 1 -2 -2 0 19 -9 4 -6
1532262175075286 -3 -2 -4 -4 3 -10 -8 -4
1532262175156101 18 -2 -2 -3 -6 -3 -1 2
1532262175411386 1 -1 0 3 4 -9 0 2
1532262175449285 -1 -2 1 4 13 -2 1 -1
1532262175508128 4 -2 -4 -3 -6 -4 -3 -7
1532262175599882 -26 -4 -4 -1 11 8 -8 -19
1532262175793364 -1 -8 -3 -5 -8 -2 0 1
1532262175868165 -8 -5 -6 -9 -6 4 -4 19
1532262175989840 2 -1 -3 0 2 20 4 -4
1532262176011789 11 1 0 1 22 3 -8 -14
1532262176024747 -5 0 0 -2 -11 -10 -20 -38
1532262176071621 -12 -5 -9 -7 -4 -8 -5 -3
1532262176078602 -5 -7 -5 -4 -43 -16 -5 -19
1532262176163376 -21 -1 1 1 6 -15 -2 -16
1532262176229199 -20 39 9 0 -12 12 11 38
1532262176244159 -9 -24 -15 -3 17 -7 14 35
1532262176274080 24 8 1 5 21 22 17 4
1532262176310981 1 2 7 0 -13 4 12 -2
1532262176324943 -8 3 1 -1 10 -1 -1 -7
1532262176373821 -7 -8 -10 -5 -3 3 10 -26
1532262176393760 8 0 0 -1 -9 -3 -2 9
1532262176463573 0 -7 -4 0 8 5 -1 -8
1532262176478533 -8 0 1 0 -3 10 4 -2
1532262176500474 3 -9 -3 -2 -1 -2 3 11
1532262176543359 -1 13 8 0 -2 -1 -4 -13
1532262176552336 -10 33 -5 -9 0 -5 0 13
1532262176604197 2 17 7 -1 -1 -28 -4 -9
1532262176625141 9 -3 4 15 7 14 3 4
1532262176663039 1 45 12 -6 0 3 -4 -4
1532262176708916 9 -17 4 0 -2 1 -2 4
1532262176734848 -2 1 4 -1 -2 4 4 -2
1532262176786713 -6 70 13 1 -2 0 -1 -2
1532262176801681 5 15 -3 -8 -9 5 1 -6
1532262176827599 -2 -18 -10 -9 2 -6 4 -12
1532262176836576 -18 -35 -10 6 7 -2 -11 -8
1532262176881455 -8 9 2 3 23 3 23 -39
1532262176918356 -5 -2 -1 -1 -31 2 -4 11
1532262176926336 -12 -11 0 -5 -15 -3 -3 3
1532262177077930 -2 -16 0 2 -15 0 -8 9
1532262177083914 -10 -48 -6 -5 -54 -7 -8 -33
1532262177136773 6 -25 5 7 2 -2 12 -5
1532262177250468 -3 -3 2 10 3 0 6 20
1532262177271412 -6 26 20 10 -4 -2 2 5
1532262177355193 -5 5 -4 -2 2 -4 -24 -16
1532262177371147 4 -10 -4 -6 -5 1 -20 -4
1532262177392090 6 26 -2 4 -3 0 12 3
1532262177437967 -1 -44 -14 -30 -13 -2 -27 10
1532262177527727 0 -23 1 -5 7 4 15 -11
1532262177548671 -3 -12 -7 -13 -43 -2 8 2
1532262177555653 0 -29 -9 -2 -1 1 -1 1
1532262177633449 -5 -60 -4 26 15 -1 -26 -4
1532262177668351 -1 3 1 -15 -12 -1 10 9
1532262177714228 0 1 2 -6 -1 -2 -32 -9
1532262177752127 -1 -1 -7 -5 -5 3 -6 3
1532262177842884 0 2 4 4 2 1 8 7
1532262177953588 -7 -9 -8 -6 -5 -4 -20 -12
1532262177975530 1 28 11 4 -2 1 0 -6
1532262178098202 -3 -11 -4 3 4 1 3 -5
1532262178150063 2 -11 0 -3 -4 -1 2 23
1532262178173002 1 10 3 5 -2 -2 3 -11
1532262178215887 -2 2 4 4 1 0 -12 -34
1532262178252788 2 -2 -3 -6 -1 -1 -1 4
1532262178282707 2 2 0 1 2 -1 -1 1
1532262178321604 7 -14 12 -14 -8 1 4 7
1532262178359503 -5 13 -10 19 -9 -3 -13 -5
1532262178383439 -2 -36 -35 -51 -10 -2 -5 10
1532262178426324 -3 2 3 -6 -9 -4 -5 -11
1532262178478186 3 12 17 31 13 6 14 -5
1532262178517082 -2 -2 0 -9 3 1 -17 -12
1532262178546004 5 5 5 3 5 20 -48 -1
1532262178597865 -1 -1 -1 -2 -2 -10 17 2
1532262178698597 0 -3 -3 -1 0 3 10 2
1532262178718543 -1 -2 -2 4 -7 -1 -4 15
1532262178778382 3 2 5 10 3 3 -1 4
1532262178816281 -2 -2 0 9 17 2 13 7
1532262178839221 -3 -1 -2 -6 4 -1 -7 5
1532262178883103 4 4 3 -4 -6 0 7 17
1532262178914020 6 9 18 60 25 4 -5 3
1532262178960905 0 3 3 -27 -6 -2 0 -11
1532262178972863 -7 -9 -15 -7 -1 -5 -13 -6
1532262178995812 1 -10 -103 -25 -1 3 18 -2
1532262179078579 3 17 44 14 1 38 2 -2
1532262179092543 -6 2 14 -8 -5 -5 -18 -13
1532262179138420 -1 2 2 -27 -9 -12 -6 4
1532262179281039 -1 0 3 22 -6 1 -4 -7
1532262179348857 -2 -2 -5 -8 -4 -17 3 2
1532262179378777 3 1 4 5 -5 1 6 5
1532262179401716 2 0 4 5 -6 1 -1 1
1532262179468544 0 -1 0 4 -2 17 2 -2
1532262179491476 -5 -6 -9 -12 10 -2 -5 -6
1532262179537354 -2 -4 -8 -7 7 -8 -1 -3
1532262179551324 -1 -1 -2 -5 -4 17 3 -1
1532262179581236 -1 -1 -2 -2 1 28 -2 -3
1532262179604175 -2 -2 -5 -6 3 1 -4 -2
1532262179649054 -2 -19 1 -3 4 24 2 5
1532262179670996 4 22 3 -2 7 4 4 2
1532262179704905 -3 0 -2 -6 -36 -10 0 -1
1532262179716874 -9 8 -1 -4 -24 40 4 0
1532262179760756 6 -3 0 -1 13 -30 6 0
1532262179799652 -8 -6 -3 -3 -8 -34 -7 -2
1532262179820596 -5 17 -2 1 -5 -7 -3 -6
1532262179834558 18 9 0 -8 6 31 9 4
1532262179895396 1 3 5 7 -6 -8 -5 -2
1532262179904372 4 -7 2 17 11 -9 -7 -3
1532262179955236 4 0 2 30 16 10 -1 -3
1532262179979172 -2 0 15 12 -7 -17 9 -5
1532262180039012 -2 -1 -2 6 -10 3 -1 -1
1532262180060953 2 3 3 4 -4 -6 13 2
1532262180083908 -3 -4 -8 -10 9 2 0 -1
1532262180107828 -3 -2 -3 -8 -20 -5 -4 -1
1532262180130767 -1 -1 1 -1 -10 -2 4 -2
1532262180149716 -3 -1 -1 -4 -8 -27 -3 -4
1532262180160687 -2 -5 -8 -8 49 40 10 -3
1532262180226510 -1 0 1 -4 -13 -32 11 2
1532262180272388 -4 2 0 3 34 34 -10 -4
1532262180405033 0 -4 -2 -2 -13 -4 12 2
1532262180555630 -7 -4 -2 -1 -8 6 -11 -5
1532262180602505 0 -2 0 -1 -9 21 -12 0
1532262180646388 1 5 -2 -5 -13 -7 -3 -6
1532262180716201 5 3 1 2 -8 -3 -1 -2
1532262180752105 1 3 -1 0 -25 14 -1 1
1532262180900707 -4 -5 0 2 4 -20 -6 -1
1532262180962542 -1 -2 -5 -6 -15 0 -2 -2
1532262180969524 -1 0 -2 -4 6 -9 0 -2
1532262181005427 0 -11 -2 1 -4 5 -1 -1
1532262181103166 3 2 -2 0 3 0 -1 -2
1532262181239801 -4 -13 -4 -5 -5 -1 -3 -2
1532262181261742 -5 -2 -6 -1 3 11 -9 -6
1532262181275705 -4 -7 -5 -3 -4 -47 -7 -3
1532262181284681 3 7 6 3 1 11 -7 0
1532262181336542 -6 -14 -5 -15 -16 -29 0 -3
1532262181404360 7 4 7 8 34 38 12 3
1532262181434280 3 2 4 1 -3 -40 1 3
1532262181448243 -1 1 -1 0 -1 4 12 4
1532262181479161 1 3 2 4 11 39 -6 0
1532262181515065 0 -6 1 8 -2 -11 12 -4
1532262181568920 -1 -3 -3 -3 9 -3 -2 -3
1532262181619785 -1 0 2 1 4 11 -3 -4
1532262181733481 -4 1 -3 -1 7 40 4 -4

1532262181786339 -3 -1 -1 1 -10 15 -2 -3
1532262181824238 7 2 -2 4 1 23 9 2
1532262181876099 -10 -4 -1 -1 -12 -20 -2 2
1532262181913998 -5 -3 -2 -1 -4 4 -1 -2
1532262181958878 9 -2 -1 -3 1 -9 1 3
1532262181965859 -7 0 -1 0 4 1 -1 -7
1532262182026696 -4 -1 -2 -1 -2 5 1 -3
1532262182071595 -1 -3 -2 1 16 12 -8 -1
1532262182191275 -3 -2 0 0 1 11 5 0
1532262182259093 -1 -2 -2 -2 -3 17 -3 -1
1532262182302978 -1 -2 -1 0 -4 -9 0 2
1532262182325915 -1 -2 0 -1 0 13 1 1
1532262182386752 -1 -2 -1 0 -4 -2 -1 -1
1532262182468534 -12 0 0 2 12 3 1 -5
1532262182559291 2 -2 -1 1 0 4 0 7
1532262182602177 -1 -3 0 0 -7 -1 1 2
1532262182649051 -4 -4 -2 -2 -1 -7 -11 -4
1532262182670992 -4 -3 1 3 3 1 -1 -32
1532262182685952 -2 -1 -1 -1 -3 4 4 11
1532262182708891 3 6 3 4 1 0 1 7
1532262182747786 -4 -4 -6 -5 0 -5 -2 -3
1532262182791669 -2 -2 -8 -13 -6 9 1 1
1532262182812613 1 0 4 8 -12 4 -1 2
1532262182830565 2 0 -7 -20 -10 2 -1 0
1532262182866469 -2 -2 0 -6 -2 1 2 0
1532262182888411 0 0 0 -2 3 5 -2 0
1532262182919328 -3 -4 -6 -27 6 -3 0 0
1532262182950249 -2 -4 -4 -9 -9 -3 -4 -1
1532262182981163 -1 1 -3 -5 -3 -4 -4 -1
1532262182994128 -3 -3 -4 10 13 -3 0 0
1532262183004110 2 3 8 0 -10 3 -9 -3
1532262183069925 -4 -6 -5 4 -7 -5 -10 -4
1532262183165669 1 34 3 6 -24 -15 -3 -2
1532262183205562 -5 3 -6 2 -2 3 -2 -2
1532262183228501 1 -15 -1 7 -9 -6 -3 -3
1532262183250443 1 40 9 -5 24 25 2 -1
1532262183371120 0 1 3 -5 -7 -9 0 -1
1532262183422981 0 -18 -8 -6 -7 -8 1 -1
1532262183437941 -2 4 3 -4 -5 0 1 -2
1532262183452901 -8 -21 -11 -10 -15 0 -2 -5
1532262183482821 2 -4 0 0 6 4 -16 -3
1532262183497781 1 0 1 1 -6 -18 -13 0
1532262183503765 -4 -2 0 3 -10 1 5 -2
1532262183541664 -2 -3 0 5 15 6 2 0
1532262183578565 -1 0 0 3 7 9 9 0
1532262183584549 -1 -1 2 5 2 -1 1 -1
1532262183608485 -1 0 1 2 0 4 5 0
1532262183691264 0 6 0 -6 9 -16 -3 -2
1532262183743125 -2 1 0 3 0 -3 1 -1
1532262183833883 0 5 8 1 0 7 -3 1
1532262184038335 -2 5 0 -5 -7 6 -7 -5
1532262184050304 -1 4 5 3 -14 -34 2 0
1532262184067258 -5 -5 -4 -4 8 -14 -11 -5
1532262184118123 1 1 1 19 21 -24 -1 0
1532262184202895 -1 -2 -3 1 19 -1 2 -1
1532262184322576 1 1 4 16 6 0 -4 -4
1532262184342522 3 4 3 -4 13 17 -10 2
1532262184412336 -1 1 -1 -5 -27 -24 1 -2
1532262184419317 -1 -1 1 -2 -3 -6 -2 -1
1532262184443253 -3 -4 -1 -5 -47 -10 2 -1
1532262184464197 -1 -2 -2 0 18 3 0 -4
1532262184501098 1 -1 0 2 -2 -2 -4 2
1532262184599834 5 2 -2 0 6 -8 0 3
1532262184621776 4 0 -2 1 -51 6 4 1
1532262184672639 2 1 0 -3 -57 -22 2 -4
1532262184943914 17 3 -1 0 -6 -4 -6 11
1532262185102490 3 1 -1 -3 -6 -2 2 0
1532262185153354 9 1 -2 -3 -4 3 -9 -15
1532262185422635 1 8 0 1 -3 -20 -7 -4
1532262185445573 -9 -5 -1 -1 19 -23 -6 -8
1532262185491450 -8 -19 -5 3 7 -16 -7 -23
1532262185528351 6 -3 -22 -4 -11 1 -9 -25
1532262185679945 -30 -21 -6 0 0 28 -7 15
1532262185702884 18 52 20 -2 -15 -8 0 24
1532262185724826 -2 -2 -6 -11 -14 -3 -8 0
1532262185747765 -5 3 -1 -4 -6 4 1 -1
1532262185957212 8 4 0 3 10 2 3 5
1532262185993109 0 -23 -19 -4 -3 18 -8 3
1532262186016047 3 20 3 1 1 -27 -6 1
1532262186083865 3 15 3 3 -1 5 1 2
1532262186120767 -3 -20 -8 -10 3 -1 -5 -11
1532262186135727 -9 10 -1 -5 -11 -14 -46 -39
1532262186174623 4 23 6 -1 -2 -11 15 3
1532262186210527 7 67 17 2 10 3 -9 -4
1532262186233466 -3 0 -2 -15 -14 2 -5 -6
1532262186285327 9 7 1 9 12 4 24 15
1532262186362122 1 -32 3 44 33 0 -10 -5
1532262186383066 9 31 6 4 -7 -3 -1 -13
1532262186429940 -2 -69 -12 -7 -6 -2 -2 2
1532262186474821 -6 -29 -6 0 1 0 2 -8
1532262186497759 -9 -44 -17 -1 -31 -4 -1 -1
1532262186511721 -7 2 -9 -14 -18 -2 4 -3
1532262186555604 -1 2 5 11 -15 -2 -13 -1
1532262186578543 1 12 2 7 -2 1 3 -3
1532262186593503 -2 3 3 7 10 1 -5 -9
1532262186662328 -3 -4 -6 -7 13 -2 -1 -2
1532262186685258 1 -3 3 10 10 -1 -15 3
1532262186751081 -1 0 2 5 9 1 3 3
1532262186791972 0 -3 -2 5 1 1 0 5
1532262186813913 -3 -3 2 -1 9 1 -3 1
1532262186871769 -2 -3 -5 3 -3 1 4 1
1532262186917636 -3 -4 -9 -23 -4 -4 -10 -1
1532262186955534 -2 -2 -2 -2 -5 -1 6 -2
1532262186976479 0 -1 2 -6 -7 3 6 0
1532262187067236 -1 1 5 15 8 1 0 -2
1532262187090175 1 1 1 -3 -2 -1 -6 -7
1532262187100148 1 -1 -2 -3 0 -1 4 4
1532262187119097 1 -2 -4 -8 -8 2 -2 -5
1532262187170959 2 0 2 -1 0 -4 -6 -2
1532262187238777 -2 -4 -4 -10 -10 1 13 5
1532262187262714 0 0 -2 4 -5 -3 0 5
1532262187330532 -5 -4 -8 -20 -5 -7 -7 -1
1532262187352474 -2 2 5 18 0 1 5 9
1532262187442233 -4 -12 -19 -27 -3 3 -8 -6
1532262187503071 2 6 6 -26 -17 -2 1 2
1532262187623749 0 1 2 6 9 -11 2 -2
1532262187657657 1 -1 -3 -4 -5 0 -6 0
1532262187673615 -1 -1 -5 -3 -1 0 3 0
1532262187717497 -2 -1 -1 6 -1 0 -1 -3
1532262187741433 0 -5 -8 -12 2 0 -1 -5
1532262187771353 -3 -2 1 1 -3 -4 2 9
1532262187792297 -1 0 -3 -5 -4 -5 1 -3
1532262187832190 1 -1 -1 0 -2 1 6 0
1532262187852137 0 -1 -9 -24 4 5 8 4
1532262187920952 0 -4 15 6 0 2 -3 -2
1532262187950873 1 6 2 8 0 -2 -7 -4
1532262188026670 1 -3 -4 -19 -24 -2 1 0
1532262188054596 -1 1 7 -6 -1 0 -2 -1
1532262188095486 -2 -5 -11 -22 -20 1 2 1
1532262188162308 -2 -2 -2 -1 0 -3 -2 -2
1532262188221150 0 39 5 -4 -6 -1 1 -1
1532262188250073 -4 2 -1 0 -2 -1 -3 -3
1532262188365763 0 -1 4 4 -1 2 -4 -2
1532262188536308 -6 -81 -16 -11 -3 15 2 -3
1532262188557252 4 53 18 5 -4 29 18 -5
1532262188664963 3 21 36 12 26 37 8 4
1532262188710856 -2 -8 -8 -7 -10 -12 -11 -8
1532262188797609 5 -10 0 -7 -12 14 15 4
1532262188813566 1 -27 -6 0 46 65 8 4
1532262188851465 0 11 1 1 4 46 9 1
1532262188857449 0 5 5 8 1 23 5 1
1532262188887369 -1 -12 2 -1 -16 -8 3 0
1532262188918286 -3 -7 -15 -23 15 6 -11 -3
1532262188986104 -2 0 2 -1 26 35 11 -1
1532262189007049 3 4 1 30 4 3 6 2
1532262189105784 -2 -2 -5 1 -4 -4 -12 -4
1532262189210505 -2 -1 1 -7 -33 -10 -13 -4
1532262189323204 2 -2 -3 -9 -4 -8 2 -1
1532262189391022 -11 -2 -1 -4 -18 0 -9 -10
1532262189480782 2 2 1 -1 19 29 6 -1
1532262189565555 -5 -1 -2 -2 -13 6 6 -2
1532262189609438 -6 -14 -6 1 11 -5 0 -5
1532262189758041 1 -6 -4 -1 -3 -5 -3 1
1532262189841817 -4 0 2 -4 -13 -6 2 9
1532262189865752 3 7 -1 -2 -7 -1 -5 -2
1532262189948531 -5 2 -1 1 2 10 -1 -3
1532262189954516 1 -4 -2 -1 1 29 -5 8
1532262190105112 3 4 -2 2 13 18 11 21
1532262190112094 -4 3 -1 -3 -3 -9 -3 -1
1532262190164952 -5 2 -1 -4 0 -14 -4 -1
1532262190184899 -2 -6 -3 -5 30 9 -4 -1
1532262190201854 -5 2 -1 -2 7 15 7 -9
1532262190226788 -24 -2 -2 -3 -19 -55 -3 8
1532262190267678 -9 -1 1 1 14 -2 7 0
1532262190330509 6 1 0 -1 -3 49 14 18
1532262190381374 0 -1 1 5 3 5 -3 -9
1532262190426254 -4 2 -5 -4 11 30 -9 0
1532262190471134 10 -3 -1 1 39 -41 0 -4
1532262190523993 -9 -6 -1 -1 -7 6 0 -4
1532262190577849 -9 0 -2 -3 -9 -3 0 -15

1532262190688553 6 -1 0 1 1 -4 1 -5
1532262190748393 -2 -1 1 1 -1 -5 2 -2
1532262190802248 0 0 0 1 3 1 1 4
1532262190817208 -2 0 -1 -3 -7 -8 -11 -3
1532262191011688 5 0 -1 -2 -1 -23 -8 -9
1532262191048590 3 1 0 -4 -7 -7 -2 -4
1532262191118403 -4 -1 -1 -2 -8 -1 -1 -7
1532262191214147 -2 0 0 -2 -3 -8 -2 -3
1532262191288947 -1 -2 1 0 0 -7 -3 -1
1532262191333826 -7 -1 0 0 1 -8 -4 -5
1532262191439544 19 1 -1 -3 -9 -11 -5 -45
1532262191461486 -2 -1 0 0 2 11 2 -2
1532262191498908 0 2 0 -1 -2 -3 -3 0
1532262191528828 20 0 0 0 -3 10 -3 5
1532262191564745 -6 -1 0 -1 -5 6 4 5
1532262191611620 -4 -2 0 0 4 -8 -1 -7
1532262191685422 -6 -1 -1 -1 1 6 -1 0
1532262191858958 -5 -2 0 -1 -4 -9 -1 3
1532262191881897 1 -3 -3 0 4 3 0 6
1532262191910823 -2 0 -1 -2 2 8 2 1
1532262191949715 -4 -3 -2 -2 4 1 1 -4
1532262191978638 2 0 0 -3 -1 -2 6 7
1532262192017534 -2 -1 -1 -1 -14 2 -8 -2
1532262192038478 6 -1 -2 -1 -4 -5 -1 4
1532262192090359 -1 0 0 -1 3 2 -2 -1
1532262192113306 -2 0 0 -1 -5 -5 5 2
1532262192174143 -1 -1 -1 -2 2 -1 -3 -8
1532262192196084 -12 -1 -1 -2 -8 -9 -4 -9
1532262192240964 -2 -2 -1 0 -1 1 2 0
1532262192247946 1 0 -1 -1 1 -4 -1 -3
1532262192301802 7 -1 -2 -2 1 9 5 2
1532262192338703 0 0 0 -2 -1 -4 -3 -5
1532262192375604 1 0 -2 -2 -1 4 -1 1
1532262192421482 0 -1 -1 2 2 9 2 -5
1532262192450404 2 -1 -1 -1 2 -1 -3 -1
1532262192473344 -1 -2 -2 -1 -3 -6 1 1
1532262192534180 3 -1 -1 -2 -4 -2 1 0
1532262192571082 -2 0 1 2 12 14 2 -3
1532262192593023 6 -1 0 -2 -7 15 -2 -6
1532262192669374 1 -3 -2 -2 -3 -8 -4 -8
1532262192721235 -2 -1 -1 -2 -2 -7 -2 -1
1532262192759134 -5 0 0 0 -6 -2 3 -1
1532262192805011 4 -2 -2 -1 0 3 1 2
1532262192827950 -3 -1 -1 0 -8 -12 -7 -1
1532262192872830 1 -6 -2 0 13 -5 5 8
1532262192916712 -1 -1 -2 -1 -2 6 0 1
1532262192952616 -2 -1 -1 -2 1 11 6 5
1532262192976552 0 0 -1 -3 -1 0 -1 -3
1532262193036392 -1 -1 0 0 10 1 -2 -3
1532262193104211 0 -1 1 1 -9 -8 -2 2
1532262193134132 3 -1 -2 -2 -8 -6 4 -4
1532262193156072 -2 -1 -1 0 -6 0 1 1
1532262193276749 -2 -2 -3 -2 -4 -2 -4 -1
1532262193381470 2 -2 1 0 1 3 0 5
1532262193448661 -2 0 -1 -2 0 -11 3 1
1532262193516506 -8 -2 1 -1 0 8 5 0
1532262193598288 1 -2 -2 0 -4 -2 -5 2
1532262193613248 0 -2 -1 -1 -8 -11 1 -3
1532262193681764 -2 -2 -2 -2 0 1 1 -1
1532262193763546 -1 -1 -2 -3 -7 -7 7 -1
1532262193838346 -1 1 -2 -3 -4 -4 1 -1
1532262193900180 -1 2 -2 -3 1 -3 -5 0
1532262193915146 -4 -1 1 2 1 4 0 0
1532262193979967 -2 0 -1 0 -4 -5 -2 -3
1532262194056763 1 -1 -1 0 2 -4 0 0
1532262194078703 0 -1 -1 -2 -1 0 4 -2
1532262194139540 0 -1 -1 -2 -2 -1 -3 0
1532262194161482 0 0 0 0 -1 -1 2 -1
1532262194244274 -1 2 -2 -1 0 0 -5 -1
1532262194272200 -1 -2 -1 0 -1 1 3 -3
1532262194302119 0 -2 -1 -1 -1 -2 9 -1
1532262194320103 -2 1 0 -1 -1 3 -4 -2
1532262194357006 -1 1 -2 -3 -1 -1 -2 2
1532262194422838 0 -1 -3 -3 1 -1 4 1
1532262194461724 -1 -2 0 0 0 3 -1 -5
1532262194491644 0 1 -3 0 -1 -1 0 -2
1532262194536525 -3 -3 -4 -1 1 -4 -2 -3
1532262194572428 0 -1 -1 -1 -1 -2 -1 -2
1532262194596387 0 0 -2 -2 -1 0 0 -1
1532262194619322 -1 0 -2 0 0 -2 -1 0
1532262194686143 -2 -3 -1 -3 -1 4 -3 0
1532262194701103 -1 -1 0 2 0 1 2 2
1532262194731339 -2 0 -1 -1 0 -6 0 -2
1532262194799157 0 -4 -3 -1 0 3 3 -3
1532262194821098 -1 -1 -2 -1 -2 -4 -4 -2
1532262194894901 0 -2 -6 -6 -5 -4 -1 0
1532262194942774 0 -2 -2 -3 -6 -2 -3 -1
1532262195024555 -2 0 1 11 14 4 -4 -2
1532262195075419 -1 -1 4 -38 -35 -6 -2 1
1532262195121295 1 0 5 -12 14 3 12 1
1532262195159195 -1 -2 3 5 -26 -2 -5 -2
1532262195212053 0 -1 5 27 9 -4 -11 -2
1532262195226016 -1 -1 -2 -2 9 14 4 -1
1532262195264913 -3 -14 -7 -15 -19 -17 -6 0
1532262195384591 -2 -2 1 7 -5 -5 -6 -3
1532262195429471 -1 -5 -2 7 -2 -8 2 1
1532262195450415 1 18 11 4 -1 0 -1 -3
1532262195476346 2 19 6 5 -2 -4 -1 -1
1532262195504272 -6 -5 -7 -5 -1 4 -4 -2
1532262195677808 -1 -7 -1 0 -15 -9 3 0
1532262195699749 2 -14 -10 -2 0 -8 -5 -1
1532262195724683 -1 -6 3 -1 -16 -33 -3 -2
1532262195751610 0 3 1 -1 -8 -2 -4 1
1532262195773561 1 -2 -2 2 -1 -10 3 4
1532262195811451 -2 -38 -6 2 6 10 2 1
1532262195931130 1 3 -1 5 28 46 2 -1
1532262196134586 -2 -15 -5 -4 2 7 3 0
1532262196270224 0 2 6 -1 -12 3 2 -3
1532262196360981 0 4 -5 -2 4 4 4 -3
1532262196464703 1 9 -5 -6 -15 -12 2 -2
1532262196525541 -2 1 2 -3 -11 -10 -1 -2
1532262196720021 -4 -1 -5 -9 -22 -21 11 0
1532262196779861 -2 1 -2 5 -17 -6 -2 -1
1532262196801802 -1 0 -2 -1 -9 -19 -10 -1
1532262196831722 -2 -4 -1 3 11 -8 -12 -7
1532262196906522 0 -2 -2 -3 12 -6 1 0
1532262196928464 7 -2 -3 -1 -8 -2 -4 0
1532262196945418 -4 -1 0 1 1 6 -4 -7
1532262197058134 -9 -1 -2 1 6 -13 -1 -2
1532262197086042 -2 -1 -2 1 11 16 3 4
1532262197108981 -14 0 3 4 4 7 6 -15
1532262197229658 -30 -5 0 -4 -9 -12 -9 -48
1532262197333381 16 -1 -2 -2 0 -2 -2 -31
1532262197447077 2 1 0 3 14 -4 -8 10
1532262197520880 -4 -2 -2 -6 -15 0 1 11
1532262197589699 0 0 2 6 9 -12 5 -4
1532262197595680 18 0 -1 2 29 14 -4 -5
1532262197626596 13 -4 -4 -4 -9 -11 -3 17
1532262197662501 3 1 0 -2 -3 -1 -5 -34
1532262197709375 -1 3 1 -1 20 -44 -19 -20
1532262197800133 -24 -6 -1 0 9 -8 5 25
1532262197823071 14 -1 -1 2 27 17 11 42
1532262197868949 62 1 1 7 46 -30 -4 6
1532262197948735 7 -11 -6 -2 1 -17 16 21
1532262197993615 -7 0 -3 0 -29 -7 -7 -9
1532262198055450 -8 -4 -3 -4 10 -2 -10 5
1532262198091354 11 -7 -4 0 10 6 4 8
1532262198151193 2 -1 0 1 3 0 3 6
1532262198196073 6 -17 -5 2 15 -8 -4 3
1532262198219013 -6 -45 -15 -5 2 -15 -4 -6
1532262198262894 8 -6 -13 0 6 -4 0 0
1532262198309770 -5 -8 -11 -4 -3 2 -18 -7
1532262198361631 -1 46 5 -5 -4 -3 14 -2
1532262198375594 -7 -1 6 -2 -4 -6 -18 -20
1532262198428452 -1 -4 -7 -15 -11 8 14 8
1532262198489290 3 48 13 8 5 1 -2 0
1532262198525194 -3 -14 -4 -13 -24 -1 23 2
1532262198571071 -6 -56 -24 -6 -3 -3 6 12
1532262198615951 4 12 16 11 23 -2 -16 -5
1532262198637907 3 -14 -7 0 3 9 9 2
1532262198685764 -1 -15 -12 -6 1 2 4 4
1532262198707705 -3 -2 -8 -2 -19 -2 3 -2
1532262198721668 -11 -64 -24 -25 -19 -10 -2 0
1532262198758570 0 17 5 14 4 3 -2 -10
1532262198764554 4 -8 1 -3 -8 1 5 1
1532262198803449 9 -23 -10 -6 -14 0 6 5
1532262198810431 -5 0 -3 9 22 -6 -4 -1
1532262198827386 -8 -9 -2 21 7 10 19 -11
1532262198953049 4 -1 0 -3 2 -11 -1 -2
1532262199000927 2 -2 0 -12 -11 1 2 -2
1532262199050788 1 6 2 2 0 -3 3 5
1532262199232303 -3 0 -6 -23 -1 1 4 1
1532262199253246 -1 1 1 0 3 3 1 -1
1532262199350985 1 -1 -3 -2 -4 1 0 1
1532262199374922 0 -1 -6 -1 17 3 7 0
1532262199419802 0 -4 -3 -5 -9 -2 0 7
1532262199434761 -1 0 6 21 10 0 -4 -3
1532262199555438 -2 -2 -4 -18 -7 -3 1 0
1532262199590346 4 3 10 4 -13 -3 0 3
1532262199613284 -4 -2 -3 12 4 -1 0 -3
1532262199675123 1 1 4 21 -5 18 4 -1
1532262199688084 -5 -5 -7 -3 1 -14 -7 -5
1532262199763881 -1 -1 -5 -5 0 -5 4 1
1532262199794799 -2 -3 -5 -4 1 1 5 0
1532262199867604 0 -4 -1 -6 1 2 -7 1
1532262199890543 -1 0 5 7 6 -1 -5 -2
1532262199958362 -2 -4 -3 -9 2 -2 1 -1
1532262200018201 -1 0 -1 -4 9 -1 -3 -5
1532262200065076 1 0 -2 -13 0 -3 3 1
1532262200080036 -1 -1 -7 -15 -1 -1 3 1
1532262200114942 -2 -2 -9 -33 -5 -2 1 0
1532262200175780 -3 -2 -15 -11 10 -7 -7 1
1532262200228638 -1 -2 -4 1 2 -2 -6 -2
1532262200317402 0 0 0 5 1 3 -6 -3
1532262200489940 -1 -2 -3 -4 0 -3 -4 0
1532262200552771 -1 -3 -1 2 2 6 -4 -2
1532262200597652 4 0 -3 -2 18 3 0 -1
1532262200663481 -4 2 0 1 13 -2 -3 -9
1532262200685417 4 17 0 -6 3 11 -6 18
1532262200716334 -7 13 0 -2 58 34 1 -5
1532262200762212 6 61 8 10 16 -5 2 14
1532262200830048 11 27 6 1 -7 -33 -2 12
1532262200918793 -10 2 2 0 -16 -5 3 -3
1532262200977636 -2 9 17 -5 15 -9 -8 -1
1532262201016532 -1 -6 -4 -11 31 -21 -2 -4
1532262201045454 -4 -5 -9 -9 -24 -3 0 -2
1532262201083353 1 2 25 21 -23 -6 -2 -3
1532262201136212 -3 -4 4 19 20 2 -13 -4
1532262201210014 -4 -1 2 -9 -20 -13 -13 -6
1532262201255892 -1 -1 -4 -3 29 20 -11 -2
1532262201367593 2 -1 2 -4 -28 -4 -5 -3
1532262201392530 -3 -1 -2 -3 18 44 -5 -5
1532262201542126 0 2 1 1 -16 -26 -8 0
1532262201581022 2 1 2 8 25 10 -1 0
1532262201624904 5 2 -1 4 3 3 4 2
1532262201737606 -2 7 2 -1 0 8 -8 -1
1532262201782483 2 2 -2 -1 -1 0 -2 -2
1532262201806419 -4 1 -1 -2 0 -6 -4 4
1532262201880222 -2 -2 -1 0 4 3 2 -3
1532262201925102 -11 -4 -3 0 5 13 8 1
1532262201985940 -4 -8 -1 1 8 11 3 -2
1532262202005885 -8 2 0 -1 -8 -31 -4 1
1532262202037800 5 -8 2 0 1 -5 -6 1
1532262202059756 -3 -8 -1 1 8 18 0 -1
1532262202066724 -1 -7 -4 -4 -1 0 -4 -3
1532262202103632 -1 -8 1 -1 -3 -3 0 -3
1532262202118585 2 -10 -2 -2 -4 -2 -3 3
1532262202178425 0 -6 -1 -2 -1 -3 -3 -2
1532262202215326 2 14 3 4 0 -3 0 -3
1532262202269182 -1 -12 -3 -3 -3 -1 -1 2
1532262202315059 -2 2 -2 -1 -6 -6 0 -3
1532262202337997 1 -4 -2 0 -2 -7 0 1
1532262202342985 -3 5 -3 -3 -1 3 -1 -4
1532262202372904 1 1 0 -2 -6 32 -2 -1
1532262202403833 -4 -3 -1 -1 -2 -4 -2 0
1532262202448701 -3 0 -2 -4 8 41 4 -1
1532262202524499 -3 -6 8 14 -16 -47 3 -1
1532262202583342 9 4 -1 9 15 5 -4 5
1532262202771840 -8 -1 -1 -3 -16 0 3 -1
1532262202838659 -3 -1 0 0 5 -40 2 -3
1532262202868579 -4 -1 -2 2 6 0 1 -2
1532262202921438 -2 -4 0 0 -1 23 -1 -3
1532262202958340 2 1 -1 1 -13 -14 -15 -6
1532262202981278 0 -1 -2 0 -10 -3 -4 -1
