1532259360725709 0 0 0 -2 0 0 0 -1
1532259360775575 -2 1 -2 -2 0 -1 -1 -1
1532259360798514 -1 -1 1 6 3 -1 0 -2
1532259360836412 -1 -2 -1 -4 -5 -1 -1 2
1532259360859352 -1 -1 -2 -2 0 0 -3 -2
1532259360906226 -2 0 -2 -3 -1 -2 0 1
1532259360941132 -1 0 -1 -2 -3 -1 -2 -3
1532259360964071 -2 -4 0 1 -10 -1 -4 -1
1532259361001970 7 0 -2 -1 -2 -3 -3 -1
1532259361048844 -5 -2 0 -3 -2 0 -2 0
1532259361083751 2 -1 0 -1 -1 -1 0 -1
1532259361113672 -5 -1 -1 -1 -1 -2 -1 0
1532259361143591 1 1 2 -2 -6 -1 0 -1
1532259361203443 -3 -2 -2 0 1 -2 -1 -2
1532259361226370 -1 -1 -2 -1 -1 0 -1 -1
1532259361264268 -1 0 0 0 -2 -2 -2 -1
1532259361361009 -1 -2 -2 0 -1 0 -1 -1
1532259361383948 -1 -2 -1 3 3 0 -1 -1
1532259361458748 0 0 -2 -4 -3 -1 -1 -2
1532259361563469 -2 -2 -2 -1 -3 0 -3 -4
1532259361610343 0 0 -1 -2 -1 0 1 0
1532259361765927 0 -2 -1 0 -2 -4 -6 2
1532259361893585 -3 -2 1 1 -3 -2 0 -3
1532259361916524 -3 -2 -1 -2 0 -1 -3 -4
1532259361976364 -1 -2 -1 -1 0 3 -11 -1
1532259362036204 -2 0 0 -2 -2 -3 0 -1
1532259362096044 -1 -2 1 -1 -3 1 0 -2
1532259362336402 -2 0 0 -1 -2 2 0 0
1532259362389260 -2 -2 -1 0 0 -1 0 0
1532259362441121 -2 0 0 -1 -1 -2 0 1
1532259362456081 1 -2 -3 -1 -1 1 -6 -1
1532259362516934 -2 1 -1 1 -2 -1 2 -1
1532259362531879 0 -2 -2 -2 -2 2 -6 -3
1532259362606679 0 1 0 0 -2 1 -3 2
1532259362628620 -1 -2 -1 1 -1 2 -2 0
1532259362673500 -1 -4 0 0 1 -2 1 2
1532259362704431 -2 -3 1 -2 -4 -2 -2 -4
1532259362749298 -2 2 -1 3 32 -3 -2 0
1532259362764257 0 -2 -2 2 10 21 -3 0
1532259362868977 -1 -1 -5 0 -4 4 6 -2
1532259362922850 -1 -8 0 -6 5 -8 -8 -2
1532259362958737 0 2 -4 -3 -4 -7 11 5
1532259362988657 1 5 -6 -5 -8 -14 8 11
1532259363071436 -2 -2 0 -2 -5 -19 -9 5
1532259363109334 2 0 6 26 9 18 -3 12
1532259363243974 -6 -3 -10 -21 -3 -1 11 -9
1532259363311793 21 3 -3 -14 -7 8 17 69
1532259363356673 7 2 7 13 -15 -12 44 52
1532259363754614 -8 -1 -3 -9 -7 25 43 22
1532259363964049 3 -1 -2 1 2 -26 -39 -10
1532259364076748 5 -1 0 -5 -15 -33 -20 4
1532259364106667 -7 -3 -5 -3 9 -38 -15 -64
1532259364121628 5 5 11 29 9 21 25 29
1532259364136588 1 2 2 -1 22 -26 -4 -28
1532259364188449 11 1 4 -15 7 47 30 23
1532259364241307 -10 -3 -11 -12 32 -9 12 -1
1532259364271228 0 2 5 13 15 16 23 11
1532259364339047 -2 -7 -22 -25 -28 -29 10 -6
1532259364421825 -9 0 23 -4 2 -10 14 8
1532259364541505 -2 0 8 -8 3 -15 5 -19
1532259364670161 -2 0 1 9 -16 -8 -10 -19
1532259364743964 -4 -5 -3 -2 7 1 -11 -11
1532259364796822 -4 -7 -1 1 -9 -4 -3 -13
1532259364833723 -5 -22 -4 -4 -6 -5 -3 -3
1532259364984320 -8 -3 -4 8 3 2 4 -39
1532259365014241 -6 -11 -16 24 3 3 -13 -29
1532259365051142 2 4 5 37 35 -10 -2 3
1532259365074081 0 -2 0 -17 -6 -1 4 12
1532259365097020 2 -5 5 -4 0 4 5 15
1532259365118961 -6 -3 -6 -7 -10 4 5 -11
1532259365201739 -1 -4 0 -4 -7 -1 4 -3
1532259365223680 -2 -6 -6 -7 9 -1 2 -2
1532259365253616 1 0 -5 -15 4 -4 -12 6
1532259365291499 -1 3 1 -5 -8 0 -4 -2
1532259365389238 0 5 1 2 -3 0 3 5
1532259365441099 -1 1 -1 0 2 -2 4 -2
1532259365516912 1 0 -1 -1 1 0 8 -2
1532259365576736 1 0 0 -4 -3 0 3 7
1532259365658518 -1 -1 -3 -6 0 -1 -3 1
1532259365696416 -1 -1 1 0 -3 -3 -2 1
1532259365794155 -1 -2 -3 -5 -4 -2 4 0
1532259365831056 2 -1 1 0 -1 -1 -8 3
1532259365906854 0 -3 0 4 -3 0 3 -2
1532259365928795 -1 0 -3 -4 -3 -1 1 1
1532259365996613 -1 1 -2 -6 -1 -2 1 0
1532259366199073 -2 1 0 1 -2 -1 -7 -4
1532259366333712 -1 -2 -2 -6 1 0 9 3
1532259366423472 -3 -1 -1 -2 -2 -1 5 4
1532259366446411 -1 -4 -1 -3 -4 -2 4 -4
1532259366484309 2 1 -1 0 -5 -3 -10 -5
1532259366536170 0 -2 3 6 1 0 2 -3
1532259366574069 1 -2 -1 -2 -1 -2 1 -1
1532259366663829 -4 -1 0 7 5 -3 -8 -9
1532259366701742 1 -1 0 6 0 2 8 8
1532259366738630 -1 -2 0 -7 -5 -2 -6 -2
1532259366761568 0 -2 -2 -1 0 0 5 3
1532259366904186 -2 0 -1 -1 -3 -2 -8 -7
1532259366934106 -4 -2 -1 6 1 1 -11 -9
1532259366993968 -3 0 -2 0 0 -1 -8 4
1532259367068768 -3 0 1 -4 -5 -2 -5 -6
1532259367113663 0 -2 -1 1 2 -2 -1 -2
1532259367128623 1 -1 -1 1 -3 0 -1 -1
1532259367219380 1 -2 -1 -1 -2 -2 -4 -4
1532259367316121 -2 -3 -2 -2 -3 -2 -2 0
1532259367339059 -3 0 -1 -5 2 -1 -7 -2
1532259367466718 -2 0 -2 -1 3 -2 3 2
1532259367496639 -2 -2 -1 0 2 -2 -9 2
1532259367518581 -1 2 -1 9 5 -1 1 -2
1532259367571439 0 -2 -3 -11 -3 -1 0 -1
1532259367594378 -2 -3 -2 -6 -2 -3 -4 -3

1532259367646239 -1 -1 0 -4 -7 -1 3 3
1532259367684137 -2 -3 -2 -2 1 -1 2 0
1532259367729017 0 -1 -1 -3 -8 -1 -1 0
1532259367773897 -1 -1 -1 -6 -1 -1 -6 0
1532259367811796 0 -1 -1 -5 -4 0 10 2
1532259367863657 -1 1 -2 -6 -1 -3 -6 -15
1532259367893577 -2 -3 0 -2 1 0 5 1
1532259367991316 0 -2 1 6 -3 -1 2 1
1532259368021236 0 -1 -2 4 2 1 3 -2
1532259368068118 -4 -1 -2 0 1 -1 -2 -5
1532259368096036 0 0 -1 -1 -3 0 7 3
1532259368178815 -2 -2 -2 -6 -4 -3 -7 -3
1532259368268574 0 -2 0 -1 -2 -2 -10 3
1532259368322431 0 0 -2 -3 -3 0 4 -2
1532259368449098 -2 2 0 3 0 -3 1 0
1532259368516063 -2 -1 -2 -9 -2 -2 -5 -3
1532259368583882 -1 0 -2 1 -2 0 0 -1
1532259368711541 -3 -1 -2 -1 0 -3 0 1
1532259368771382 -2 1 -2 -3 -5 1 0 -1
1532259368846181 1 -1 -1 4 8 -2 0 -2
1532259368958880 0 0 -3 1 -3 -1 1 2
1532259368982816 -1 0 0 -2 -1 -1 -2 -2
1532259369048640 -1 -3 -1 -1 -1 -1 -3 -1
1532259369116458 -3 -3 -1 -2 -1 -1 -1 0
1532259369146378 0 1 -1 -1 -3 -2 -1 0
1532259369184277 -2 -2 -1 -5 -3 -3 -2 0
1532259369214197 -1 -2 -2 0 -1 -2 0 5
1532259369251098 -2 -1 -1 1 -2 -1 0 2
1532259369274037 -2 -3 -1 -3 -1 -1 0 -1
1532259369310938 -2 -1 0 -2 -1 -1 -3 -3
1532259369341856 0 -3 -1 -7 -3 -1 -1 0
1532259369408693 0 1 -2 -4 1 -1 -3 0
1532259369453557 -2 0 -1 1 -1 -1 1 1
1532259369483477 1 0 -1 3 4 1 0 1
1532259369529355 -1 0 -1 0 1 -1 0 -3
1532259369611136 -1 -1 -2 -5 -2 -2 1 -3
1532259369650045 0 0 -2 3 1 -1 1 0
1532259369746773 2 -1 2 -2 1 -1 -2 -1
1532259369761733 0 -3 -1 4 -1 -1 1 -2
1532259369821573 -2 -2 -5 -5 -3 -1 -1 5
1532259369836532 0 0 0 -1 -1 0 0 -1
1532259369866453 1 -2 -1 -4 -3 0 0 0
1532259369889392 -2 0 -1 0 0 0 -1 -1
1532259369949231 0 0 -3 -6 -7 -2 -3 4
1532259369986132 -1 1 -1 -3 -2 -1 1 -3
1532259370038992 -2 2 0 0 -1 0 -1 -4
1532259370068910 -2 -1 -1 -3 1 -1 1 -2
1532259370136730 0 -1 1 -2 1 1 1 2
1532259370158671 0 -4 0 0 -6 -1 -1 0
1532259370188591 -4 -2 -2 -4 4 12 -7 -3
1532259370218511 1 -3 1 -2 4 -3 4 1
1532259370241450 -1 -1 0 -4 -5 -14 -3 -3
1532259370271371 -1 0 -3 0 17 -7 -1 -2
1532259370309269 -6 -10 5 -2 -1 -7 -6 -5
1532259370339189 -6 -3 -3 -4 7 15 -1 -22
1532259370385066 -11 2 1 -1 -3 -8 -4 -5
1532259370436927 -6 0 -1 2 -25 4 -4 0
1532259370497765 1 1 -6 -2 3 -2 12 12
1532259370571567 -2 -6 -6 -12 -16 -11 -2 -3
1532259370661327 -2 -5 -2 -7 4 6 2 -1
1532259370729146 -2 -2 -2 2 1 -4 -18 -1
1532259370795967 -3 -2 0 2 -1 -2 8 6
1532259370924623 -4 -5 2 11 -2 2 1 2
1532259370946565 -3 -2 -1 -4 2 18 7 1
1532259371276682 0 -2 0 -2 -2 3 13 5
1532259371328542 -4 -3 -2 -2 0 -1 3 -11
1532259371381405 0 1 -2 2 -4 -5 3 -1
1532259371479140 1 3 2 4 -2 -18 -2 -6
1532259371553940 -2 -3 -3 -4 -2 4 24 -4
1532259371718499 -1 -4 -8 -6 -1 -1 -8 -2
1532259371764378 0 -5 -2 -11 4 5 -1 8
1532259371809257 -5 0 -1 -6 -7 -2 0 2
1532259371854138 0 -1 0 -3 -17 -4 -7 -2
1532259372011716 -1 3 0 6 8 14 10 4
1532259372048617 -1 1 2 -1 2 2 13 5
1532259372108457 0 -3 4 10 -4 -2 -2 0
1532259372139374 0 -2 -5 0 -25 -2 11 0
1532259372176275 -2 -3 -1 -12 9 12 -6 -1
1532259372214174 0 -1 -1 4 2 8 4 8
1532259372244095 -1 1 0 -7 1 -4 2 -3
1532259372274015 0 0 -5 -4 4 -1 2 0
1532259372326873 -1 -5 1 0 -6 -1 0 -6
1532259372416633 -4 -1 1 5 9 12 5 2
1532259372544292 2 1 -1 -3 3 6 -2 -3
1532259372619092 -1 -1 -4 -5 -3 5 -7 -1
1532259372686910 -2 -3 0 3 -6 -2 -4 -3
1532259372738772 -2 -2 -1 2 -2 -1 -2 0
1532259372768692 -1 -2 1 0 2 1 6 -3
1532259372791631 -2 -3 -3 -10 12 1 2 0
1532259372836510 0 -1 1 3 -3 0 13 5
1532259372911310 0 -2 -1 1 -2 -2 8 5
1532259372949209 -2 1 5 7 -5 -1 -1 3
1532259373001070 -3 -4 0 -5 3 1 2 -11
1532259373083849 2 -1 2 0 0 0 -1 0
1532259373121749 -1 0 -4 -3 -3 0 2 -2
1532259373151668 -2 -1 -4 -7 3 -2 4 -3
1532259373211508 -2 -1 1 -5 -2 -2 0 -6
1532259373233449 2 -1 -3 -4 0 -1 -2 4
1532259373248409 -2 -2 -2 -2 1 -1 -4 -1
1532259373339166 0 -2 -1 -2 -7 1 -3 1
1532259373399006 0 -2 0 6 6 1 1 -1
1532259373443886 0 1 -2 0 -3 0 -4 -4
1532259373503731 0 0 0 -2 -3 0 3 2
1532259373548606 -1 -4 -1 -2 2 -2 -2 -8
1532259373616438 1 -2 -1 -5 -4 -4 3 -1
1532259373654324 0 0 -1 -2 -3 0 0 0
1532259373699203 0 0 1 2 -1 -1 2 -4
1532259373766025 -1 0 -1 0 -2 0 -5 -1
1532259373841823 0 -1 -1 -3 -2 0 -3 5
1532259373878724 -2 -1 -3 -5 0 -1 -1 -2
1532259373998403 0 0 2 11 5 -1 4 0
1532259374059240 0 0 0 -4 -3 -1 2 1
1532259374074200 -3 -2 -2 4 2 2 2 -1
1532259374126062 1 -1 -1 -4 -3 -2 2 0
1532259374149000 0 -1 1 2 2 0 4 4
1532259374231779 0 -1 0 -3 -5 -1 -12 1
1532259374306582 0 -2 -2 0 1 -1 -7 -2
1532259374381380 -1 0 -1 1 2 2 0 -4
1532259374456180 -3 -1 -1 -1 -3 1 -2 0
1532259374501059 1 -3 0 -1 -1 -1 -1 -7
1532259374606777 0 1 -1 -3 -4 -3 -7 -2
1532259374682574 -1 -2 0 0 0 1 4 4
1532259374733437 -1 -2 -2 -2 -1 0 -2 -4
1532259374780313 -2 1 -1 -5 0 0 4 0
1532259374801257 -2 -1 0 -3 -3 0 -1 -4
1532259374831177 -1 0 1 -1 1 -1 -4 -1
1532259374928915 -2 -3 1 -2 0 -4 0 -1
1532259374982771 -2 0 -2 -1 -2 4 -1 0
1532259375041614 4 8 8 -1 -9 -4 8 2
1532259375116414 -8 -6 -12 -8 -2 3 1 -2
1532259375169272 8 23 0 3 -13 -13 -11 -5

1532259375295934 0 -8 7 5 -2 6 2 16
1532259375431572 0 -3 1 1 -7 -26 -11 -3
1532259375821528 1 0 4 21 14 -2 -7 -2
1532259375926383 6 -1 -2 -1 -11 12 -10 5
1532259376046064 26 -13 -7 -5 -15 -20 -7 -3
1532259376196660 -9 -10 -4 -1 -3 -14 -1 -5
1532259376429232 0 -1 -1 0 3 -6 0 -3
1532259376563872 1 -5 -3 0 2 7 16 5
1532259376593791 -3 0 -2 6 -21 -5 -3 8
1532259376616730 1 4 1 -1 1 -2 0 3
1532259376638672 0 -4 5 13 12 -3 -4 -14
1532259376653632 -1 -3 0 -20 -13 -3 -2 1
1532259376668592 -2 6 3 15 -9 -2 -4 -4
1532259376691305 0 -2 -3 -11 -8 -4 5 6
1532259376722230 -2 -4 -4 -4 5 0 -8 0
1532259376744165 1 -2 -3 -4 -17 -1 2 1
1532259376796025 -3 -3 0 0 0 -1 -3 -5
1532259376818963 1 1 -1 -1 0 1 2 -8
1532259376833924 0 -2 -2 -2 0 1 1 0
1532259376871822 0 1 0 1 -2 -3 -4 -2
1532259376908724 -1 0 0 -1 -3 1 1 -3
1532259376946622 1 -1 -1 0 -1 2 1 0
1532259376968564 0 -2 -1 2 -1 -3 3 2
1532259376992509 -2 -2 0 -1 -1 0 -3 -4
1532259377006462 0 -2 -1 -1 -1 -2 -3 -1
1532259377029413 -2 -3 0 0 0 -2 3 -1
1532259377051342 0 -2 -1 -3 0 1 -1 3
1532259377074280 -1 0 0 3 0 -1 -3 1
1532259377096222 -2 1 -1 -2 -1 0 -2 -2
1532259377128137 -2 0 0 -3 -1 -2 -5 -3
1532259377156062 0 0 -3 -3 0 -3 -1 -1
1532259377179000 -1 -1 -2 -1 -2 -2 0 1
1532259377200942 -4 -3 -1 1 0 -1 -2 -2
1532259377224879 1 -3 -1 -2 -2 -2 -2 -1
1532259377261779 -3 -3 0 -5 -3 1 4 1
1532259377298681 -2 -2 0 -2 -2 -1 -5 -2
1532259377313642 0 0 -1 2 -1 -2 -1 0
1532259377344558 1 1 -2 -2 -4 -1 -1 1
1532259377381460 -1 -1 -1 -1 -3 1 1 -2
1532259377396419 -2 -1 0 -2 1 0 1 3
1532259377428334 0 -2 -1 3 1 -1 0 2
1532259377449277 -1 -1 -1 0 -1 -1 3 0
1532259377473215 1 -2 -2 -1 -1 1 0 -2
1532259377509118 -1 -4 1 2 1 -1 -2 -1
1532259377531059 0 1 -2 -4 -2 -2 -4 -1
1532259377553998 -4 -2 -1 -2 -2 1 1 2
1532259377575939 0 -2 -1 0 1 -1 1 -2
1532259377590899 -1 0 -3 -4 -2 -3 -2 -1
1532259377613838 0 -2 -1 1 0 -2 -1 -3
1532259377636777 -1 -2 -3 -1 -2 -2 0 -1
1532259377666696 -1 -4 -1 1 1 1 3 0
1532259377703601 -1 0 -1 0 -2 0 -3 -2
1532259377741407 -2 -2 -2 0 -2 0 -2 -2
1532259377794265 -1 0 -2 0 0 -1 -1 -1
1532259377809225 0 0 -2 -2 0 0 0 -1
1532259377824186 1 -1 -1 1 1 0 -2 0
1532259377861087 0 -1 -1 -1 0 -2 1 1
1532259377876047 0 0 -1 -3 -1 -1 -4 -4
1532259377898985 0 -3 -1 0 -2 -1 -4 -1
1532259377936884 -2 -1 -2 -1 0 2 -1 -2
1532259377958825 -2 -2 0 0 -1 -2 -3 1
1532259378003716 -1 0 -2 -1 -4 -1 -1 -2
1532259378033633 -2 -1 -1 -2 0 -1 -1 -3
1532259378063545 -1 0 0 1 -1 0 -4 -2
1532259378093465 1 -2 -1 -3 -1 0 0 -2
1532259378131364 -1 -1 -1 1 1 -1 -3 -4
1532259378176244 -3 0 -1 -5 -2 0 0 -2
1532259378206163 -1 -2 -2 -2 -2 -1 0 -1
1532259378221124 0 0 -2 1 0 0 1 2
1532259378236084 0 -1 -1 0 1 1 1 -1
1532259378266004 -1 -1 1 -1 2 -3 -3 0
1532259378295924 -4 1 -1 -2 -1 -2 -1 -1
1532259378311881 -1 1 -2 -1 -2 0 -3 1
1532259378333822 0 -3 -1 -3 -2 0 0 0
1532259378371721 -2 -2 -1 0 0 0 -1 -1
1532259378386681 -2 1 0 0 -3 -2 -3 -1
1532259378431561 0 0 0 -1 -2 -1 -3 -2
1532259378468463 -2 1 -1 1 0 -2 -1 -1
1532259378499379 -1 -1 0 -1 -3 0 -2 -2
1532259378544268 -3 -2 -2 -1 -1 0 2 -1
1532259378634020 -1 -1 -2 -2 -2 -1 -1 0
1532259378783620 -2 -1 -3 -1 0 1 -1 -2
1532259378926239 2 -2 -1 -1 -1 -3 -1 -1
1532259378986079 0 2 -1 -1 -1 0 0 -1
1532259379046916 -3 0 -2 -2 1 -5 -2 -2
1532259379121716 1 0 -1 -1 -1 1 -2 1
1532259379196515 -2 -2 3 0 -1 0 -2 -1
1532259379271318 0 -1 -3 0 -2 -5 -3 -2
1532259379316196 -1 -2 -2 0 10 1 -1 -2
1532259379390996 -3 0 2 -1 -1 4 -5 -1
1532259379421913 1 -2 -3 -2 0 2 -1 1
1532259379444852 -1 -1 -1 -1 -4 -4 -3 0
1532259379496713 -2 1 -1 0 -3 -11 -3 1
1532259379548573 -4 -1 -1 -10 -2 -1 4 -15
1532259379586486 2 -2 -2 6 -17 -5 -1 12
1532259379616394 3 3 4 12 33 6 -4 39
1532259379669251 3 3 2 8 -4 48 24 11
1532259379684211 0 -9 -6 -14 -13 -20 4 -5
1532259379736073 -9 -3 -3 -2 22 -17 -2 -12
1532259379878691 -10 -4 1 -3 17 -20 -15 -30
1532259379999369 0 4 9 26 -4 1 -11 -21
1532259380148969 -3 9 -3 -1 -2 2 1 -3
1532259380216787 4 -10 -1 0 12 -12 -17 35
1532259380276628 -6 -5 -9 -14 -9 -11 -28 -14
1532259380313529 1 1 -14 -13 -6 22 35 26
1532259380336489 3 8 2 -18 8 -11 10 19
1532259380381347 -14 -12 -10 -15 -3 -26 17 10
1532259380404286 35 61 15 -14 -2 0 9 2
1532259380494046 -40 -60 4 -18 -3 16 -30 -19
1532259380576825 -2 -19 -21 -22 -6 8 7 22
1532259380591785 14 -2 8 4 24 -14 28 21
1532259380643658 -9 -15 3 2 -3 5 -11 -20
1532259380764323 -6 -6 0 -4 3 36 -32 -23
1532259380795241 -6 -7 -4 -8 -15 -3 36 -6
1532259380839123 -1 4 4 6 2 -19 15 19
1532259380884003 3 10 -1 17 21 11 30 -33
1532259380898967 -3 0 -6 -12 -10 -34 -1 -7
1532259380914920 2 0 3 -7 -16 -63 -14 9
1532259380928883 0 5 -1 11 1 -11 -35 13
1532259380966782 3 7 19 -22 -9 24 31 11
1532259380990718 2 10 1 -26 -6 11 17 4
1532259381041582 -2 -1 -4 8 -11 -6 -11 -14
1532259381124361 0 -13 -12 2 15 11 2 -34
1532259381191182 -1 -7 -8 -2 -16 18 8 25
1532259381265982 1 2 3 -6 -1 23 -20 -26
1532259381408600 -1 -2 -2 -3 1 -2 7 9
1532259381461459 2 1 1 0 -2 -9 -1 -1
1532259381476419 0 -14 0 -4 5 -1 0 4
1532259381499362 -5 -3 -4 -5 -6 -8 -7 -1
1532259381529278 1 -5 -7 -3 -1 8 0 1
1532259381544238 -3 -8 -6 1 -1 -3 -3 0
1532259381604079 0 6 -4 -4 -2 0 4 3
1532259381642974 0 0 9 5 -2 -2 -2 -1
1532259381686857 -3 -5 -3 2 0 -2 -12 -15
1532259381821496 -1 -1 -2 -5 -13 -4 8 2
1532259381851416 1 -3 -4 -24 -7 -2 -35 -5
1532259381904285 -2 0 -1 2 -1 0 -4 0
1532259381964115 0 2 0 2 -1 -1 13 2
1532259382091773 1 0 -1 0 0 4 -4 -6
1532259382166573 -3 -1 -2 -3 1 -1 -2 -15
1532259382518632 -1 2 1 0 1 -5 18 4
1532259382578472 -2 -2 -1 2 -3 -2 -5 -3
1532259382773949 -2 0 -1 6 -3 -2 -12 -9
1532259382796888 1 -1 -1 -5 -2 -1 -9 2
1532259382856728 3 -1 -1 2 -10 -3 2 0
1532259382923549 -1 -2 -3 -1 5 -1 -5 3
1532259382991368 -1 0 0 -3 -3 -1 6 1
1532259383006328 0 -1 -1 -2 -3 0 0 5
1532259383126007 -5 -2 -3 -6 -5 0 -7 -10
1532259383148946 0 -2 -4 -7 -3 -1 11 5
1532259383208786 -3 0 1 -3 -2 -3 1 0
1532259383231725 -1 0 -3 1 6 1 1 3
1532259383359384 -2 -1 2 0 4 -2 -4 -9
1532259383411245 1 2 -1 -2 -5 1 -3 1
1532259383479064 -1 0 0 17 2 -1 0 7
1532259383553881 1 0 0 -8 -1 2 -3 1
1532259383688504 -3 0 0 -4 -12 0 -2 -10
1532259383809181 0 0 -1 -2 -3 -1 -5 1
1532259383861042 -1 0 0 1 -5 -1 -3 0
1532259383891963 -1 1 -2 9 2 -2 4 4
1532259383966760 -1 0 -1 -3 4 1 -2 0
1532259383988701 -2 -1 2 4 -8 -1 2 -3
1532259384018620 -1 -2 -1 -1 -2 -1 6 1
1532259384094418 2 0 2 5 -4 0 -11 2
1532259384131319 -5 -2 -2 -1 7 3 -9 -9
1532259384146280 -3 -2 1 13 5 -3 8 0

1532259384191159 -1 0 -3 -4 -1 -2 -8 -12
1532259384221079 -1 -3 -2 -4 -2 -2 -5 -8
1532259384267954 0 -2 -1 -1 -8 -3 3 8
1532259384296877 -2 -2 -1 -4 -11 -3 -3 -7
1532259384326797 -3 -1 -3 5 3 -1 5 -21
1532259384342765 -1 -1 -1 0 1 -1 4 5
1532259384356717 -1 1 -2 -4 -1 -1 3 2
1532259384378658 -1 -1 -1 4 -1 -1 -1 3
1532259384401597 2 -2 -1 -9 -1 0 -3 -6
1532259384423538 1 -2 0 4 4 -3 -1 4
1532259384453458 2 0 1 -2 2 -2 -6 -11
1532259384476397 -4 -1 -5 5 3 -2 0 3
1532259384506317 -1 0 -3 -2 -4 -3 -6 -6
1532259384581117 -1 -1 -1 -1 5 -3 9 3
1532259384604055 3 1 4 16 5 7 2 8
1532259384663895 0 -2 0 -2 -4 -2 0 4
1532259384731714 -2 0 0 7 4 2 -4 -3
1532259384746674 1 -1 -2 -3 9 2 0 4
1532259384798535 -3 -1 -1 2 -2 -2 -3 -2
1532259384829454 1 -1 2 0 0 0 -4 -4
1532259384844412 -2 -3 -2 -4 -3 -4 3 -3
1532259384881314 0 0 -2 0 -1 1 2 -3
1532259384934181 -1 -2 -1 -1 5 1 -2 5
1532259384956114 1 0 -3 -9 -7 -2 2 0
1532259384994014 0 0 0 1 6 0 9 0
1532259385008973 -1 -2 -1 -2 1 1 2 6
1532259385023933 -2 -2 0 0 2 -1 10 -4
1532259385068812 0 -3 -2 -6 -1 -3 2 1
1532259385091759 -1 -3 -1 -1 4 2 -2 -1
1532259385128660 1 -1 0 2 -7 3 0 -1
1532259385151599 1 0 -2 -7 -4 -3 4 5
1532259385196479 -2 -1 0 -2 -1 2 0 -2
1532259385219417 -1 -2 0 -1 -3 -1 -7 -7
1532259385241359 -4 -3 -2 -6 1 -2 -6 -2
1532259385271279 -1 0 -4 3 -12 -2 5 -7
1532259385294217 -2 -3 0 -3 4 -1 -12 6
1532259385346079 -1 -1 -1 11 11 -1 -12 -5
1532259385406916 0 -1 -1 -4 0 1 0 4
1532259385436836 -1 0 -2 -6 5 1 6 5
1532259385451796 0 -2 0 -3 -3 -1 -6 -3
1532259385481716 -1 0 0 0 -1 -1 2 -1
1532259385511636 1 -3 -2 3 8 -1 -5 -2
1532259385533577 1 0 0 -1 1 -1 -3 0
1532259385571476 -2 -3 -3 0 -3 -4 6 -1
1532259385609374 -2 0 -1 -2 -7 -2 -10 -2
1532259385639295 -3 -3 -2 -6 -2 -3 -12 -3
1532259385661236 -2 -2 -2 4 -1 -2 -3 -4
1532259385699134 -4 0 -1 -2 -2 -4 -5 -8
1532259385721095 -2 -1 -3 2 0 0 13 -1
1532259385758974 1 1 2 0 -3 -2 -3 -2
1532259385796873 -2 0 -1 0 4 -2 -3 -5
1532259385901593 -2 -1 -2 -5 -1 -2 6 1
1532259385954451 -1 -2 -3 -6 -6 1 2 6
1532259386059172 -1 1 1 0 -2 -2 -13 3
1532259386111033 -2 -1 -2 -2 -2 -5 -21 -10
1532259386193811 -2 -1 -1 3 -1 -2 0 3
1532259386216751 -2 -2 -4 -9 -7 -2 -15 -6
1532259386343411 -3 0 1 5 4 -3 3 -3
1532259386411230 1 -1 -1 -5 -5 5 -11 5
1532259386488025 0 -1 -1 8 2 -1 2 1
1532259386531907 -1 0 -1 0 2 1 2 -2
1532259386583769 -2 0 -2 -11 -5 -3 -1 0
1532259386621668 -1 0 -2 1 0 -2 -3 -1
1532259386681508 0 -3 -1 3 3 0 -1 -1
1532259386764286 -3 -3 -6 -9 -5 2 -1 0
1532259386794205 -1 -4 -12 0 0 -2 -8 -2
1532259386816147 1 -35 0 25 3 0 12 6
1532259386898926 1 7 -3 -5 -5 -18 -9 -6
1532259386921864 0 5 0 -26 2 0 -4 5
1532259386966745 -5 0 -8 -5 2 0 -2 -7
1532259387033566 -1 3 -2 -7 1 15 -1 -2
1532259387071465 -2 -1 1 -3 -2 13 12 3
1532259387101385 -3 -6 -3 -4 -5 -15 -3 11
1532259387146265 1 1 2 -1 0 -2 8 -6
1532259387176184 -8 -10 -1 3 0 8 1 -5
1532259387221065 -1 6 1 0 0 6 -3 -3
1532259387303859 5 0 0 0 -1 6 -7 3
1532259387438483 -3 -2 1 14 -3 -13 -1 -7
1532259387469401 1 -1 4 -1 3 -2 16 4
1532259387514281 2 0 1 -2 -1 -11 -1 6
1532259387536222 0 -1 -2 -1 -6 14 4 6
1532259387589081 -2 2 1 -2 -4 -33 -7 -39
1532259387663880 -1 2 -3 -4 -4 -1 -20 -24
1532259387723720 3 -4 0 -8 6 32 29 -4
1532259387783560 1 -14 -12 -8 -15 13 10 27
1532259387798520 -2 4 9 2 -1 -39 -31 -29
1532259387866338 -2 -5 -3 6 0 -14 -2 -18
1532259388000979 3 -5 -6 4 3 4 -30 13
1532259388068798 0 -1 1 4 9 4 -10 27
1532259388128638 -3 -1 -5 -1 6 6 7 12
1532259388188478 -2 -1 -3 1 5 -6 6 17
1532259388220393 -4 1 1 0 -8 6 -10 -10
1532259388256296 3 6 -4 -2 2 -8 19 3
1532259388279235 -6 -4 5 -2 -1 22 0 1
1532259388346056 0 2 1 9 2 -28 4 -9
1532259388406894 -2 -3 -13 -29 -13 1 20 1
1532259388443795 -1 -1 4 -2 -3 7 -1 -5
1532259388533554 -2 1 2 1 2 5 -1 -2
1532259388609352 0 1 -1 -5 -3 -2 11 -5
1532259388624312 -1 -1 -2 -1 0 -1 -1 1
1532259388781891 -1 -1 -2 4 -1 -3 -3 3
1532259388908552 -1 -1 -2 -3 1 4 -5 -4
1532259388938472 -2 -3 -2 -4 -7 2 -3 -4
1532259389021251 -2 1 -1 -1 0 -1 0 -2
1532259389186807 0 -1 -1 4 9 0 -2 10
1532259389261608 0 -3 -3 -5 -8 -1 11 -2
1532259389329426 -1 0 -1 0 -4 -2 0 8
1532259389434147 1 0 0 4 1 2 -2 -1
1532259389681485 -3 -1 -2 -2 -3 -3 -13 -3
1532259389756285 -3 -1 -4 0 1 0 0 0
1532259389861005 -1 -2 1 2 0 -2 2 3
1532259389883943 -1 -5 0 1 -1 2 3 -1
1532259390018584 -3 -2 -2 -10 1 0 -20 -22
1532259390206103 -2 -1 2 6 4 2 3 3
1532259390296860 1 0 -2 2 3 -1 4 2
1532259390356700 -2 -2 -1 -2 -4 -4 1 9
1532259390423522 -3 1 0 0 -2 0 2 -14
1532259390506301 -1 -1 -1 2 -2 -2 3 -1
1532259390559159 0 -5 1 9 5 -1 -2 -1
1532259390589079 0 -1 1 4 -6 -4 -9 -3
1532259390633959 0 1 3 9 -1 0 8 5
1532259390648918 0 1 0 0 1 -3 2 3
1532259390746657 -1 -3 -3 -4 1 -2 -6 -8
1532259390851377 0 -1 -1 0 -3 -1 0 4
1532259390874316 -2 -1 -4 -9 -3 0 3 1
1532259390949116 -2 -1 0 -4 1 -2 5 -9
1532259391098716 0 0 0 -3 1 -4 -12 0
1532259391181495 2 1 -1 -1 0 -2 -12 -3
1532259391249313 -1 -1 -2 -2 0 0 4 -8
1532259391264273 2 0 0 -3 -6 -1 0 8
1532259391279233 -1 -1 -1 0 -2 -1 -4 -4
1532259391324113 -2 -3 -1 -5 -4 -1 0 -4

1532259391354038 -3 1 -2 -4 -4 -4 -12 4
1532259391383954 0 0 -2 0 1 -2 -2 -1
1532259391436820 -3 -3 -1 -2 -8 -3 13 -3
1532259391465989 1 -1 4 29 5 1 -1 3
1532259391526826 1 -2 -2 0 3 0 6 -2
1532259391563727 -1 -2 -2 -9 -6 -2 4 3
1532259391593648 1 -3 -1 -1 0 2 6 0
1532259391608608 0 -1 0 -1 -3 0 3 -1
1532259391646506 -2 0 0 5 -1 -2 -1 10
1532259391668448 -3 -2 0 4 -1 -3 -2 -4
1532259391706347 -1 1 -3 -6 -3 0 -5 0
1532259391736266 -2 -2 -1 -3 -4 -2 20 -1
1532259391766187 -3 -2 -2 -1 2 -1 -1 -2
1532259391796106 -1 -1 -2 -1 -9 -1 8 1
1532259391826026 0 -2 1 -1 1 -2 -4 5
1532259391878581 -3 -1 0 8 3 0 -10 -15
1532259391893541 -1 0 -2 -4 -4 -1 -5 1
1532259391954390 -1 -2 -1 0 -1 -1 4 -3
1532259391991280 0 1 -3 -7 -3 1 3 5
1532259392014232 0 -1 -3 -2 1 -4 4 -6
1532259392029193 -2 -2 0 -5 -5 0 -7 -15
1532259392066080 0 -1 0 -2 0 -4 -5 -6
1532259392089018 -2 -2 -1 2 4 1 7 6
1532259392110960 0 -2 0 -4 4 -1 15 4
1532259392171797 -1 -2 -2 -1 -1 -1 -2 0
1532259392216677 -3 -1 -1 3 0 -1 -4 1
1532259392231636 0 1 -3 -5 -1 -3 4 1
1532259392246597 -2 -1 1 3 0 1 -4 0
1532259392291477 -1 -2 0 0 -1 -1 -4 -9
1532259392314416 -3 0 -1 2 -1 -1 -10 -8
1532259392344336 0 0 1 0 -5 0 0 6
1532259392374261 1 2 -1 -4 2 -1 -1 1
1532259392404181 -2 -1 -1 -4 -2 1 7 1
1532259392501920 -3 -1 -4 -1 0 -1 -11 -9
1532259392531840 -3 0 -1 -1 -2 -2 2 -1
1532259392583700 0 0 -1 -5 1 -2 1 0
1532259392636559 -2 -2 1 -1 -2 2 -10 7
1532259392651519 -2 0 1 -3 0 1 2 -16
1532259392673461 -3 -1 -1 -4 -3 -2 -12 -1
1532259392696399 0 -5 -1 -2 2 -1 -4 0
1532259392719339 -1 -1 -3 -7 1 -3 2 4
1532259392749258 -2 -1 -2 -4 -3 -1 5 -2
1532259392771200 -2 -1 0 1 -1 -2 6 8
1532259392846000 1 -1 -2 -10 -8 -2 -19 -5
1532259392891877 1 -1 0 5 0 0 7 0
1532259392906837 -4 -1 -1 4 2 -3 -1 -5
1532259392921797 -3 -2 -2 -4 -1 0 -2 -10
1532259392958698 -1 -1 -1 -2 -4 -3 -10 3
1532259392981637 1 -4 -1 -1 0 0 4 6
1532259392996597 -2 1 -1 2 3 -1 -2 5
1532259393018538 -1 -1 -3 -1 1 -1 -5 2
1532259393048458 -2 -3 -1 -4 -2 -3 -6 0
1532259393079375 0 -1 -3 -4 -1 -1 -2 3
1532259393139215 -3 -5 -2 -3 1 -2 -10 -3
1532259393191077 -2 -3 0 1 0 -2 -5 7
1532259393221003 0 0 0 -5 0 0 5 1
1532259393235957 0 -2 -1 -3 -3 -2 -4 -5
1532259393251914 -4 -1 -1 -2 -2 0 -8 -4
1532259393281834 -2 -1 -1 -4 -3 -1 1 -1
1532259393326714 2 0 0 0 0 -2 -1 1
1532259393401514 0 -1 -2 -6 -3 -4 -1 6
1532259393476314 -1 -1 -1 -4 -2 -2 0 4
1532259393618932 -2 -2 0 0 -5 -1 -9 2
1532259393798454 1 -2 -2 -6 -3 -1 -6 -2
1532259393881232 -2 -1 -2 -2 0 -3 -3 1
1532259393964010 -4 -1 -2 -3 -2 0 1 -2
1532259393978970 -1 -1 0 2 2 -1 5 9
1532259394023849 0 0 -1 -5 -1 0 -1 -1
1532259394053787 0 -2 -4 -2 1 0 -3 3
1532259394106629 0 1 1 6 7 0 -16 7
1532259394128570 -1 -2 -1 -1 0 -2 -10 -10
1532259394196388 -3 -2 -1 -1 -2 -2 -8 -3
1532259394226309 0 -3 -2 -5 -3 1 5 -1
1532259394316068 0 -1 -2 -8 -1 0 -3 -2
1532259394383886 0 0 -1 0 -1 -1 1 4
1532259394436745 -1 -2 -3 -4 -5 -1 -1 -2
1532259394466666 2 -1 -1 -4 2 1 -3 2
1532259394488607 0 -2 -6 -6 2 -7 -1 0
1532259394541465 10 1 9 15 6 5 2 3
1532259394579365 -14 8 -5 -8 -8 -27 -13 -78
1532259394796783 3 -1 -1 1 10 13 1 -7
1532259394812740 -3 -3 -1 -2 -8 -16 5 5
1532259394856623 0 0 0 2 0 -10 2 10
1532259394909482 -4 -2 -8 0 -2 -4 21 8
1532259394999242 -2 0 -3 -27 -8 -17 -33 -18
1532259395089002 -3 3 9 22 -11 26 8 -1
1532259395261540 3 -1 -7 -11 0 -15 -29 -27
1532259395411140 9 15 3 17 21 -5 38 37
1532259395493919 -1 -6 1 5 3 7 -39 13
1532259395546778 1 2 8 20 -2 -1 -2 -9
1532259395591657 -5 0 6 9 -2 -6 -18 -37
1532259395696378 -4 -5 -5 -27 -8 0 -9 0
1532259395779156 3 2 2 5 0 19 0 -29
1532259396003561 -5 3 -2 -5 -4 8 7 -1
1532259396026495 2 4 -5 -15 10 -3 19 16
1532259396124233 -1 -4 1 11 -4 15 -2 -3
1532259396169113 -1 0 0 -1 1 6 1 1
1532259396228953 1 0 0 -1 -1 -5 -20 5
1532259396251891 -2 1 -1 -3 5 -6 -7 2
1532259396476292 -2 0 2 4 4 2 -1 -1
1532259396506212 -2 -4 -1 -2 -1 0 -7 -14
1532259396603951 -3 -2 -1 -2 -2 1 6 6
1532259396731610 0 -1 0 -1 5 4 6 1
1532259396761529 -1 -1 -2 3 1 6 0 -9
1532259396889188 2 -1 -1 -1 1 3 2 6
1532259396956009 0 0 0 1 -1 1 -1 8
1532259396993908 0 -1 -1 5 -5 -2 -6 -2
1532259397076687 3 1 -1 -4 -1 -2 -8 3
1532259397121567 -4 -2 -1 -4 0 -1 6 -1
1532259397226286 1 -1 1 4 5 2 2 -6
1532259397376883 1 -2 0 -2 -1 5 0 4
1532259397488585 -3 -3 -2 -4 -5 -4 -5 -21
1532259397713982 1 -1 1 3 -4 1 4 -4
1532259397766840 -1 -1 -3 -7 3 1 -14 0
1532259397811721 -1 0 -1 0 -4 -3 15 5
1532259397856601 -2 -2 0 4 2 0 3 2
1532259397908462 -2 -2 0 0 -3 -4 -11 3
1532259397931400 0 -2 -1 5 7 -1 -1 2
1532259397961321 0 1 0 0 -2 2 -9 -2
1532259398036121 -3 -1 -2 -4 4 0 1 -1
1532259398118899 0 0 1 -9 -3 -1 -4 -1
1532259398186718 1 0 -1 -2 -1 0 4 9
1532259398268499 2 -1 -2 -3 2 -1 8 -1
1532259398389176 -1 -2 0 -3 -3 4 4 -5
1532259398538777 -1 0 0 1 -1 2 -8 -2
1532259398606597 -2 0 -1 2 2 8 -9 5
1532259398719309 0 0 -1 -5 -1 -4 -1 -1
1532259398741241 1 2 -1 -2 1 1 1 8
1532259398794094 0 -1 -2 5 3 0 9 -2
1532259398847949 2 0 0 -5 -1 -1 0 -6
1532259398876883 1 -1 0 5 4 -1 1 1
1532259398921753 -1 -1 -2 -3 -1 0 5 1
1532259398943694 0 -1 -1 -3 -5 -3 7 4
1532259398966636 -1 -2 0 0 -2 -2 -4 -5

1532259399018494 -1 0 -3 -5 -11 -2 7 2
1532259399064370 0 -1 -3 -1 5 -1 3 -1
1532259399079331 -2 -1 0 5 1 -1 -6 -3
1532259399094299 -2 0 -2 -6 -1 -1 1 -1
1532259399116232 -2 -3 -3 -5 -4 -1 22 3
1532259399139170 -1 -2 0 1 -1 -2 -1 -4
1532259399169091 1 0 -2 -6 2 0 -10 -14
1532259399199011 1 -2 -2 -2 -3 -2 8 -9
1532259399220952 -1 -2 0 -3 -2 -1 -1 -1
1532259399281796 -2 -1 -1 -2 -5 -1 -2 1
1532259399303737 0 0 -2 3 1 0 -5 -10
1532259399333667 0 1 -1 -3 -2 1 6 2
1532259399380533 0 -4 -1 0 -4 -3 -2 -4
1532259399408457 -2 -3 -1 -6 -7 -1 -5 4
1532259399431396 -3 -2 0 2 0 -2 -10 -21
1532259399476276 0 -1 -3 -5 -2 0 1 -2
1532259399499215 0 -3 -1 5 3 0 0 -17
1532259399529150 0 -1 -3 -7 -3 -5 -7 1
1532259399551076 -1 0 -1 4 2 -1 -4 -6
1532259399574014 -2 -1 -3 -3 -2 -1 -1 2
1532259399611913 1 1 1 1 -1 -1 6 4
1532259399641833 -2 -1 -1 2 1 1 1 3
1532259399656793 0 0 -1 -6 0 -1 1 5
1532259399708655 -2 -1 0 8 -1 1 5 -1
1532259399731593 -1 -1 -1 -5 0 -1 0 -3
1532259399776473 1 1 1 3 1 -1 6 -14
1532259399791433 1 0 0 1 0 -1 11 8
1532259399806393 -2 -2 0 1 -2 1 -6 6
1532259399836313 0 -2 -1 -1 -1 -2 -5 4
1532259399866234 0 -1 -3 -2 -2 -2 7 4
1532259399881193 1 0 1 0 -3 -1 -2 7
1532259399926074 -2 -1 -3 -4 -10 -3 0 -5
1532259399955993 -1 -2 -2 -1 1 -2 -3 -6
1532259399971950 0 -2 -2 -4 -2 0 5 -1
1532259399986927 -3 -3 -2 -2 -4 -1 1 2
1532259400038772 0 -3 -2 -4 -5 2 6 -1
1532259400053744 0 -2 -1 -6 -1 -1 7 1
1532259400068691 -1 2 -3 -1 0 0 11 5
1532259400113572 0 -1 2 4 2 0 -1 1
1532259400136510 -2 -3 -4 -4 0 -1 0 5
1532259400181390 -3 1 1 6 -6 -2 -4 -3
1532259400204329 -1 -3 -3 -4 1 -1 5 2
1532259400226270 -2 1 0 0 0 1 -6 -1
1532259400256190 1 0 -2 -7 1 0 -10 -11
1532259400271150 -1 -1 -1 -4 3 0 6 -1
1532259400330991 0 -3 -2 -1 -4 -1 7 5
1532259400362904 1 -2 0 4 2 0 1 7
1532259400391828 -3 -1 -1 -3 -4 -1 -4 0
1532259400443689 -1 -2 -3 -4 -1 -2 -16 0
1532259400496547 0 0 0 -2 1 -2 4 8
1532259400518489 -1 -3 -2 -8 -9 -2 -6 5
1532259400541427 -1 -2 0 0 -3 1 7 -6
1532259400586307 -1 -2 -3 0 1 -1 6 10
1532259400624223 -4 -1 -1 -4 -4 -1 -3 -4
1532259400661107 -2 0 1 -1 0 -2 -11 -4
1532259400691027 0 -2 -2 3 -5 -1 -9 -7
1532259400728926 1 -2 -1 -5 -5 0 7 8
1532259400743886 -1 0 -1 1 -3 -1 4 1
1532259400766825 -4 -2 -1 -3 2 -2 3 2
1532259400841625 -2 1 -2 -4 -3 -3 -4 -2
1532259400872543 -2 -2 1 3 -1 0 -8 -6
1532259400908445 1 -2 -1 5 1 3 2 7
1532259400939364 1 -2 -2 -4 -6 -3 -3 -4
1532259400976265 -3 -4 -3 -3 -2 -1 0 4
1532259401015161 -3 -1 -3 -2 -1 2 3 2
1532259401029123 1 0 -1 6 1 -3 -4 7
1532259401066025 -1 -2 -1 -7 -6 -2 -4 -14
1532259401111902 0 1 1 3 -1 -1 -11 3
1532259401148803 -3 -1 -2 0 1 -1 2 -4
1532259401171742 -3 -1 -1 1 -1 -2 -4 -7
1532259401186702 0 0 -1 -1 0 -5 2 2
1532259401321342 -1 -1 -2 0 0 -4 -11 -6
1532259401463960 1 -1 0 0 3 -2 -1 2
1532259401531779 -2 -1 0 -1 -2 0 -15 -8
1532259401553722 -1 0 -3 -2 -4 -7 -8 -14
1532259401598601 3 0 -2 -2 -2 -2 11 9
1532259401681379 1 0 0 0 0 1 0 0
1532259401704317 -2 -1 -1 0 0 -3 -21 -2
1532259401726259 -1 -2 -1 0 -3 -6 3 4
1532259401779153 -2 -1 -2 -1 1 0 6 3
1532259401809038 0 -1 -1 -2 0 -2 -6 -6
1532259401936702 0 0 1 -1 -1 -1 1 -4
1532259402003525 -2 0 -1 -1 -1 -1 1 3
1532259402086297 -1 0 -3 -3 -1 -4 -1 -1
1532259402146146 -1 0 -1 -1 0 -2 -1 0
1532259402205977 -1 -1 -1 -2 -1 0 0 3
1532259402221934 1 1 36 33 5 22 5 0
1532259402251855 -3 -1 -8 -12 -2 11 -2 -1
1532259402266815 2 -2 37 23 -5 -10 1 3
1532259402326655 2 7 -10 -13 -6 -4 10 5
1532259402363555 9 -1 -5 -14 -2 0 -22 3
1532259402409448 -1 -3 3 -2 -27 -6 11 -5
1532259402491214 2 1 1 3 6 -2 31 67
1532259402633849 -13 -61 -6 -20 -87 -46 -4 39
1532259402663752 6 -15 -9 -1 -18 -9 -10 -10
1532259402905107 -4 9 1 -15 -8 -6 17 44
1532259403008830 -1 0 -1 -1 3 10 7 18
1532259403121528 0 0 1 -1 2 10 11 1
1532259403406769 -3 0 -3 -6 1 21 8 2
1532259403473586 6 2 -1 -1 -3 19 2 21
1532259403646131 -3 -2 -3 -10 -2 -2 -11 -2
1532259403676046 1 3 0 -1 2 6 8 18
1532259403698997 -3 -1 -1 1 -4 -6 6 15
1532259403728904 0 0 -1 6 11 -37 0 0
1532259403766802 -1 1 2 -1 4 7 -11 -17
1532259403811682 -2 -2 -3 -4 -4 -4 -28 -21
1532259403841617 5 6 1 2 -7 2 11 18
1532259403886483 -4 2 9 12 -21 0 7 4
1532259403946323 1 1 7 5 1 9 -6 22
1532259404223581 0 1 -1 -3 2 22 -3 -24
1532259404238549 -3 -3 -1 -1 -4 9 15 5
1532259404276439 -3 0 0 -1 1 1 -2 -3
1532259404306360 -16 -2 1 5 -1 0 9 -20
1532259404344258 2 -1 0 1 -1 -3 5 5
1532259404366199 0 -1 -2 -2 -1 -1 -27 -14
1532259404389138 1 -4 -11 0 1 -1 -2 -6
1532259404426054 -5 -2 -4 0 -10 -8 -8 -3
1532259404456957 -4 -2 2 -1 -3 11 -4 -2
1532259404501837 3 4 6 17 6 -3 17 -4
1532259404546732 0 -2 0 4 -19 -7 1 3
1532259404568658 0 -2 -3 -4 11 2 -1 4
1532259404628497 0 -3 -3 -3 -9 0 9 9
1532259404674375 1 1 0 9 8 -1 1 3
1532259404779097 0 0 -1 -9 -3 1 5 -2
1532259404823975 -1 0 -2 -9 -4 -3 -10 -4
1532259404853896 -1 -1 -2 1 -7 2 -12 2
1532259404883816 1 -1 -1 -2 2 -1 1 -8
1532259404928695 0 -3 -2 0 0 -1 -3 1
1532259404981554 -1 1 2 6 -1 0 13 5
1532259405049373 -1 -3 -1 -1 -2 -1 0 -4
1532259405064333 3 1 0 -5 -7 1 -6 2
1532259405086285 -2 0 -2 -3 -4 -1 -3 -11
1532259405131154 1 -2 -1 3 6 -1 -2 1
1532259405198973 -2 -3 -4 -3 -5 -5 0 2
1532259405213933 -4 -1 -2 -4 0 1 2 -5
1532259405251831 0 0 -3 -6 -5 -1 1 0
1532259405341592 0 0 -3 -5 -2 -1 -7 -18
1532259405401431 -1 0 -1 -4 5 1 5 0
1532259405454292 -1 -1 -3 -2 -14 0 -7 -7
1532259405529090 -2 -2 -2 -7 -4 -2 -2 -5
1532259405551032 -1 -3 -1 -5 -3 -5 -2 0
1532259405603890 0 0 -3 -5 0 2 -6 -2
1532259405626829 -4 -2 -2 2 -4 -2 1 -2
1532259405641789 0 -1 0 -3 1 -2 4 -1
1532259405686669 -2 -1 -2 -7 -1 0 -4 -2
1532259405701628 -2 -3 0 3 6 -1 -17 -11
1532259405731549 -1 2 -2 -2 -5 -1 -4 0
1532259405768455 -1 -1 0 -4 -1 1 9 2
1532259405784407 0 -2 -1 -5 2 -1 -15 -2
1532259405867186 -2 -1 -1 -3 -5 -1 1 -4
1532259405889127 -1 -2 -5 0 0 0 5 -3
1532259405948967 0 -1 1 2 0 1 13 -5
1532259405993847 -1 -3 0 -5 -9 -2 -9 6
1532259406023767 -1 0 2 5 1 0 -1 0
1532259406085602 2 2 1 6 1 0 0 -6
1532259406114525 -1 -1 -3 -3 -2 -2 5 1
1532259406159404 0 0 2 7 2 1 -2 -3
1532259406226226 0 -2 0 -2 1 -1 2 2
1532259406286066 0 -2 -2 -4 0 -2 -5 -2
1532259406315986 -1 -1 -3 -11 -14 1 11 9
1532259406436663 3 -2 2 -1 -3 -1 6 6
1532259406511463 -1 0 -3 1 1 0 -3 -4
1532259406594242 -1 -1 0 1 2 -1 -9 -5
1532259406721900 -2 0 -1 1 1 0 -5 -4
1532259406788722 -1 -1 -1 4 -1 1 -7 3
1532259406841580 -1 -1 -2 0 -1 -1 8 3

1532259406931341 -3 -2 -2 -1 1 0 -6 -4
1532259406946300 -4 -1 -2 3 -5 -2 -17 -25
1532259406999159 -1 -1 2 3 1 -1 -8 4
1532259407036060 -1 0 -1 0 2 1 3 -8
1532259407051020 1 -3 1 -5 1 -1 -8 14
1532259407096898 -3 1 -2 0 -4 0 9 4
1532259407126818 -1 -1 -3 -6 -4 -3 5 -26
1532259407156737 1 0 0 4 0 -2 -9 3
1532259407194257 1 0 0 1 -3 -1 6 7
1532259407216199 -2 0 -1 -1 2 1 3 5
1532259407231192 -2 0 -1 -4 -10 -1 -6 -12
1532259407321950 -1 -1 -1 0 -1 1 -3 4
1532259407343890 1 2 1 2 -1 -1 7 3
1532259407373811 -3 -4 -3 -2 0 -3 3 -2
1532259407388771 0 -1 -1 -4 -1 -1 8 1
1532259407418690 -2 -1 1 -2 -2 -1 5 9
1532259407471912 -3 0 -3 -5 3 -2 -15 -7
1532259407493853 -1 -2 -2 -1 -2 -1 -3 -6
1532259407523773 -2 -1 0 0 -3 -1 -7 3
1532259407568666 -3 -2 1 0 7 2 7 -3
1532259407600807 -1 2 -2 -6 -3 2 10 -1
1532259407621754 -3 -3 -2 1 -3 0 0 2
1532259407666633 -2 0 0 0 3 -1 2 6
1532259407703546 0 -1 0 3 -2 -1 -18 -5
1532259407726474 -2 -3 -1 2 0 -2 0 4
1532259407764371 -1 -3 -3 -1 -6 -2 -5 -3
1532259407824212 0 0 0 -2 1 1 7 -3
1532259407839172 -2 1 -2 -3 -2 -1 6 -1
1532259407877071 -3 -2 -2 -1 -2 -1 1 3
1532259407906991 1 -2 -1 -1 3 0 7 5
1532259407951871 1 -4 -1 -2 -1 1 0 0
1532259407966831 -1 2 0 6 1 -2 -8 -3
1532259407988772 0 0 0 -1 0 -1 5 9
1532259408063572 -1 -1 1 4 4 -3 -4 -6
1532259408109453 -3 -1 -3 -4 -5 0 5 3
1532259408155343 -2 -2 -2 4 2 -1 8 7
1532259408199210 1 -2 0 -5 -8 -1 -2 0
1532259408236110 -1 -1 0 0 1 -2 -5 -4
1532259408251071 1 0 -2 -1 -1 -1 9 6
1532259408280990 -2 0 -1 -2 2 -2 -1 -4
1532259408318889 -1 -1 -4 -8 0 -2 -3 -17
1532259408378729 -3 -2 0 0 -4 -1 0 1
1532259408431588 1 -1 0 4 7 0 3 -1
1532259408453529 0 -1 -3 -5 -6 -3 -6 3
1532259408468489 1 -2 0 1 3 2 5 -1
1532259408521348 -3 -1 -1 0 0 -1 -6 -3
1532259408559246 0 -1 -1 0 -1 0 -15 -18
1532259408589167 -1 0 -3 -4 -2 -1 5 9
1532259408611108 -1 -1 -1 5 5 0 -8 2
1532259408655987 -2 -2 0 -4 -1 -1 6 4
1532259408678927 3 0 -2 -5 0 -1 1 0
1532259408746744 0 -3 -2 0 -1 -1 30 5
1532259408798606 1 1 -2 2 -1 1 -1 -3
1532259408821545 -2 -1 -1 2 -4 -1 3 6
1532259408866425 -2 -1 -2 -1 7 0 9 9
1532259408919284 -3 -2 -1 -8 -3 -2 -3 0
1532259408956185 -1 -2 -3 2 0 0 7 -4
1532259409016025 1 -1 2 5 -1 0 2 2
1532259409053925 -2 -3 -1 1 6 -1 -3 -1
1532259409091822 -3 -1 -2 1 1 0 -4 -2
1532259409115758 -1 -3 1 0 3 1 0 -1
1532259409151662 -1 -2 -1 -4 0 0 10 5
1532259409241422 -2 -1 -1 3 -1 -1 3 -1
1532259409361103 1 -1 0 3 3 1 -14 3
1532259409496739 -2 0 -1 6 2 0 2 2
1532259409654319 -1 -1 -1 -7 -9 0 3 1
1532259409714158 3 1 -1 -2 -3 -2 -14 -4
1532259409871737 -3 -2 -4 -2 4 -2 -9 -6
1532259410044276 0 -5 -1 -2 -2 1 -2 2
1532259410396334 2 -2 -11 -8 -6 -1 0 7
1532259410471143 -10 -1 3 4 -39 -21 -3 6
1532259410486094 -2 -7 -1 -2 8 2 4 5
1532259410553912 2 0 0 14 14 20 10 10
1532259410591811 -1 2 -2 -4 -2 23 -3 -1
1532259410651651 2 -3 -3 -4 2 -29 7 -5
1532259410681571 -2 -1 -1 -2 1 11 4 5
1532259410703512 -1 -3 0 -2 -2 -23 -8 7
1532259410741411 -1 0 0 1 -4 38 16 11
1532259410801251 1 1 0 -5 0 21 6 11
1532259410898990 -1 -2 1 1 -8 -39 -14 2
1532259411011688 -2 0 -3 -6 -3 12 -3 -7
1532259411088483 -4 -2 9 21 10 0 7 19
1532259411139347 8 0 -1 1 1 1 46 12
1532259411169267 -5 0 -8 -11 -9 -9 -16 -10
1532259411221128 -4 -2 -2 -2 -1 6 4 -11
1532259411259027 1 -7 1 7 7 13 -4 4
1532259411303906 -1 -5 -2 -5 -4 -6 -11 -20
1532259411348787 -1 2 -2 -9 -10 -5 1 15
1532259411378707 10 -10 1 5 4 13 34 31
1532259411416606 -1 3 5 10 9 -11 -14 -7
1532259411438547 2 3 3 2 1 -16 7 -3
1532259411468467 -5 10 -7 9 11 5 -1 -9
1532259411521326 0 6 13 14 9 -35 -4 10
1532259411656979 -2 7 2 1 -7 -26 -1 -4
1532259411738744 -1 3 0 -3 4 15 9 19
1532259411806562 -3 -6 -6 -8 -5 7 -29 -6
1532259411844461 -3 -2 0 1 -2 -6 -10 6
1532259411889342 0 1 -2 -2 -5 -5 1 -21
1532259411926243 2 2 8 -7 0 -1 5 13
1532259411994062 2 -2 -5 0 -2 21 -3 21
1532259412061880 -2 -3 7 8 4 14 1 -1
1532259412098805 5 0 12 12 7 17 16 22
1532259412196553 4 7 11 6 -4 0 10 -11
1532259412279333 -1 0 6 2 -3 4 1 19
1532259412332195 -1 -3 -3 13 1 1 -6 -24
1532259412346154 1 -5 -2 -3 -4 -2 -9 10
1532259412473813 2 2 -1 0 4 -5 1 1
1532259412563573 -4 -5 -2 2 -2 -6 -9 0
1532259412616431 -1 0 -1 5 -3 -2 -8 -6
1532259412654330 -1 -1 -3 -2 -5 -1 14 6
1532259412699210 -2 -2 -2 -15 7 2 -9 5
1532259412751072 -1 1 1 -6 -5 1 -3 -3
1532259412780991 1 -2 2 6 0 0 -13 -10
1532259412818890 5 16 8 2 4 2 0 1
1532259412841829 -2 0 -2 -2 0 -3 -1 -3
1532259412879727 -1 0 0 -3 -2 -5 -9 -2
1532259412908650 -1 -3 -3 -2 -2 -5 0 2
1532259412961509 -4 3 3 2 3 3 0 -3
1532259412984458 -2 -3 -1 0 -7 3 -7 -7
1532259413044287 -3 -3 -1 2 3 -3 4 6
1532259413104141 0 -1 1 12 -3 -1 -6 4
1532259413178927 -1 -2 -3 0 1 -1 -3 6
1532259413208847 -4 -1 0 -7 -5 -3 -3 1
1532259413261706 0 -2 -1 -1 -6 -1 -1 -2
1532259413298607 1 0 1 -2 3 0 -7 0
1532259413313567 0 -1 -1 -7 0 -4 -4 -4
1532259413345482 -1 -2 2 -4 -6 1 12 1
1532259413389364 -2 -2 0 0 3 -1 18 8
1532259413464164 -1 -2 0 3 10 -2 7 3
1532259413509045 0 -2 -1 1 -6 -4 4 7
1532259413530986 2 0 -4 -9 0 2 13 0
1532259413561903 0 -1 -1 -1 -9 -1 6 7
1532259413606783 0 -1 1 -2 -5 -3 -2 0
1532259413658644 1 9 -3 0 4 0 1 -7
1532259413734442 -2 -1 -3 -2 -2 -2 -9 -4
1532259413869081 1 -1 -2 -1 -2 0 -4 2
1532259413928921 -1 0 -1 0 -4 -1 -9 4
1532259413943882 0 -2 -2 4 6 -2 1 -2
1532259414011700 0 -1 0 -2 -4 -2 -8 -3
1532259414056580 0 0 1 8 -2 -1 10 5
1532259414108442 -1 -1 1 -3 -3 -3 -4 4
1532259414161300 1 -3 -1 -3 -2 -2 -8 -2
1532259414221140 -1 1 -1 -1 -1 -1 -7 -4
1532259414356778 0 0 -2 -5 -12 0 2 -7
1532259414371737 0 -1 0 5 6 -4 -24 -6
1532259414408639 -2 0 -1 -4 11 0 11 -9
1532259414431578 -1 -2 1 2 3 1 0 9
1532259414484436 -3 -1 -3 -5 -4 0 9 0
1532259414514356 -3 -2 0 1 -3 -4 -10 -4
1532259414566217 -2 -1 -1 0 -7 0 6 3
1532259414605113 -1 -1 1 -6 -2 -1 4 8
1532259414708836 0 -2 -1 1 -4 -1 5 6
1532259414836495 0 -1 -1 -2 -1 -2 -7 -6
1532259414890351 0 1 0 7 2 0 0 -2
1532259414979113 -1 -3 -3 -4 -3 -1 5 4
1532259415053913 -2 0 0 0 -1 2 2 -9
1532259415076855 0 0 0 6 5 3 2 5
1532259415098793 -3 0 -2 -1 0 0 -2 0
1532259415128713 0 -2 -3 1 0 1 7 9
1532259415151651 -3 0 3 -2 -10 -1 -7 -2
1532259415188553 -3 -1 -3 -4 -5 -3 -9 -3
1532259415218473 1 -1 1 -4 -1 0 6 8
1532259415241412 -1 -2 -2 -4 -7 -3 -19 -13

1532259415286292 1 0 1 3 5 -1 -4 -9
1532259415339151 -2 0 -1 -9 -15 -3 -3 -1
1532259415384030 0 -1 0 7 5 3 2 6
1532259415428910 -1 -1 -2 0 0 -1 7 4
1532259415458830 1 1 0 -5 -1 1 6 -1
1532259415473791 -1 0 -1 0 2 -2 5 0
1532259415518670 2 0 -2 -4 2 -3 -2 9
1532259415533630 -1 -2 -1 1 0 0 2 5
1532259415602446 -1 -3 0 3 1 0 -1 1
1532259415631369 -1 -2 0 -2 -1 -1 -7 -9
1532259415676248 1 0 0 -3 -2 0 5 0
1532259415706169 0 1 -1 -4 -4 -2 8 -1
1532259415721967 0 0 0 4 -1 -1 -3 -22
1532259415736941 0 -1 -4 -5 2 0 -1 11
1532259415781807 -1 -2 0 0 1 1 5 2
1532259415811727 0 0 1 -1 -1 -1 8 2
1532259415878548 -1 -1 -3 2 3 -3 0 0
1532259415901487 1 -1 -1 -4 1 0 0 -1
1532259415961327 -1 -1 2 10 -2 -3 10 1
1532259416006207 -1 -2 -1 -4 2 2 -18 0
1532259416051920 4 0 -1 -4 -7 0 2 8
1532259416088836 1 -3 0 -6 -6 -3 2 7
1532259416156641 0 -2 -1 -1 -4 0 4 0
1532259416202517 -1 -3 -1 -2 1 -2 1 0
1532259416239419 2 -1 -1 1 0 1 3 1
1532259416284299 -1 0 -1 -4 -4 -2 4 2
1532259416306240 0 -3 -3 -3 -2 0 -5 -3
1532259416441878 -1 1 -1 3 2 -1 -1 2
1532259416501717 2 0 1 -6 -8 1 16 12
1532259416531637 0 -1 2 -2 1 2 6 6
1532259416651317 -2 -1 1 2 1 -1 4 0
1532259416764016 -4 -2 0 3 2 2 6 -15
1532259416786954 0 -2 -3 -3 -1 -2 -2 0
1532259416838816 0 -2 -3 1 -3 2 3 3
1532259416913615 0 0 0 2 0 -1 1 13
1532259416943536 0 0 1 -3 -3 -2 -3 -1
1532259416966474 -1 -2 -1 0 -1 -2 -3 -4
1532259417019332 -3 0 -1 2 -1 -1 9 1
1532259417071195 -3 -3 -5 -5 -1 -1 -1 -9
1532259417139013 -1 -1 -1 -2 -4 0 -6 2
1532259417266672 -1 -1 0 4 1 0 3 -1
1532259417409290 0 0 -1 -3 -3 -3 -1 -3
1532259417536960 0 -1 0 -2 0 -3 -13 -11
1532259417611749 1 -2 -1 -2 -3 -1 4 1
1532259417663610 -3 1 -1 3 -1 -2 1 -6
1532259417693530 -2 -1 1 -5 -14 -3 -4 0
1532259417716469 1 -1 -2 -4 2 -1 2 1
1532259417769340 -2 0 -1 -1 0 -2 -9 -4
1532259417814208 2 -1 0 3 5 2 2 1
1532259417851108 -1 0 -2 -2 -1 -1 3 -1
1532259417889008 0 -2 -1 5 5 1 -2 -1
1532259417910949 0 0 -2 -4 -2 0 4 2
1532259417971786 -1 -2 0 -1 -7 -1 -5 -3
1532259418031632 -1 -1 0 0 1 -1 4 2
1532259418099444 -1 0 -4 -10 -5 0 -5 -2
1532259418114404 -2 -1 1 -1 3 0 -4 -1
1532259418174245 -3 -3 -2 -4 0 -2 1 1
1532259418226106 -3 -6 -3 -5 -40 -18 -5 -4
1532259418249044 1 -2 -1 -2 15 -3 -3 -4
1532259418278965 0 2 0 1 11 27 1 1
1532259418331823 -1 -1 -1 -2 -16 -24 -2 -2
1532259418353764 5 1 0 0 -2 -11 4 -2
1532259418391663 -2 2 0 -1 0 1 -14 -20
1532259418452508 -13 -15 -2 -6 -19 1 18 9
1532259418473452 -4 -6 -1 4 15 3 1 4
1532259418526326 -11 -9 1 4 4 0 22 2
1532259418586150 -3 1 -2 1 -44 -4 7 15
1532259418653985 -1 -12 5 -1 -18 16 14 3
1532259418736748 -4 1 -6 -5 -8 21 4 -10
1532259418788609 0 -3 -9 -12 -11 -27 -6 13
1532259418856428 4 1 5 11 -13 -14 16 14
1532259418984086 -4 -15 -6 -8 4 -10 -12 -40
1532259419058887 0 18 3 -2 -1 -1 16 24
1532259419141665 0 0 -2 -12 -16 3 11 41
1532259419276305 -2 -31 -13 1 -3 -21 7 -10
1532259419366064 0 -1 -1 0 -2 -4 3 16
1532259419456822 2 -3 0 2 2 -2 6 -2
1532259419501702 0 -13 1 8 7 4 6 13
1532259419523643 4 12 0 1 -3 1 -17 16
1532259419538603 1 -7 -4 -14 -4 7 0 -7
1532259419553573 -1 -13 -3 1 -13 -23 -42 -52
1532259419583483 -3 0 3 1 9 38 8 -5
1532259419614401 -4 76 -6 -4 -3 -25 7 9
1532259419636342 1 -30 0 2 9 -16 1 14
1532259419704161 -2 -14 -2 -11 -15 -48 -21 -10
1532259419771984 1 -13 1 -1 3 -1 -5 0
1532259419883680 4 5 8 11 -4 -8 -1 13
1532259419981419 -2 -11 -2 -3 -2 -12 10 1
1532259420056219 2 12 1 0 -1 -2 2 0
1532259420116059 2 -8 -3 1 -3 -1 -9 -1
1532259420183878 -1 -1 0 3 2 -1 -14 -1
1532259420213798 -6 -8 -1 -5 -1 0 15 -4
1532259420258678 -1 0 -3 -3 -11 5 8 -16
1532259420296575 -1 -2 1 7 16 -5 -1 -2
1532259420326496 -1 2 1 3 -5 4 4 -2
1532259420371376 -1 -2 1 6 13 -33 -4 0
1532259420409275 0 -1 -4 6 0 4 -3 3
1532259420439195 -1 -3 -3 0 3 7 4 -4
1532259420515003 -1 -2 0 -3 0 -1 -1 1
1532259420543915 -2 -3 -1 -1 -2 -3 -3 -3
1532259420596773 -1 -3 -4 0 -8 -6 -7 8
1532259420618715 -1 0 -2 -6 -5 0 11 4
1532259420663595 0 -1 -2 0 -1 5 -1 -1
1532259420701493 -3 -1 -2 1 0 -2 -1 4
1532259420723435 -1 0 0 -6 -4 -2 -10 -9
1532259420754369 -1 1 -1 -2 1 -1 0 -2
1532259420806213 2 -1 -3 -3 -2 0 9 1
1532259420844112 -1 -3 -2 4 2 -2 -10 1
1532259420941851 1 -2 -1 -1 -4 0 -2 -1
1532259421023632 -2 0 0 1 2 2 18 10
1532259421129349 0 0 0 -2 -7 0 -8 0
1532259421151291 -1 -3 -3 -8 -1 1 -4 3
1532259421181211 -2 -3 -2 2 1 -2 -3 -1
1532259421219109 0 1 -1 1 -2 -2 -3 -3
1532259421234069 1 1 3 15 7 0 -6 0
1532259421301888 -3 0 -2 -2 -3 2 -2 0
1532259421406607 -1 -2 -3 2 -2 0 10 -2
1532259421421568 -1 -2 0 -6 -3 -1 7 1
1532259421436529 -2 -1 0 1 -4 1 3 -4
1532259421474427 1 -1 -1 -4 -4 -1 8 2
1532259421504354 0 -1 -1 3 4 -1 3 -3
1532259421564194 0 -2 -3 -4 -6 -2 5 1
1532259421586135 -2 0 3 -1 -5 -2 1 -5
1532259421653969 0 -2 -1 0 0 1 0 7
1532259421706812 1 0 -2 -2 2 -2 6 -6
1532259421758673 -1 -2 0 1 4 0 0 -6
1532259421781612 -1 1 0 -4 -10 0 2 -4
1532259421849430 -3 -2 -1 1 -2 -1 9 0
1532259421864391 -2 -1 -2 1 4 1 0 4
1532259421901299 1 -1 -2 -10 -6 -2 2 -3
1532259421939191 -1 -1 -1 0 -3 0 2 -5
1532259422006012 -1 0 1 -4 4 -1 7 5
1532259422043924 -2 0 -3 0 1 -1 -10 0
1532259422096769 -2 -2 -1 -1 -1 0 -6 4
1532259422126689 -4 -2 -2 -4 -4 3 -15 -9
1532259422216449 -1 0 -2 0 3 -1 2 -2
1532259422254366 -2 -1 0 -1 -3 0 13 2
1532259422276289 -2 -4 -3 -7 -3 1 -3 -9
1532259422359068 0 -1 0 -1 -2 -3 -1 2
1532259422463788 -2 1 -1 -3 0 -1 -9 -1
1532259422493708 1 0 -2 -4 -5 -1 0 5
1532259422607411 0 1 1 4 1 0 8 0
1532259422629344 -3 -1 0 8 -3 -3 -5 -2

1532259422696166 -2 1 -1 -3 2 0 9 2
1532259422996364 -1 1 -1 5 -1 0 12 1
1532259423041244 -3 -3 -1 8 -1 -1 4 0
1532259423094103 -2 -4 -1 -3 4 1 -4 -5
1532259423109062 1 0 1 -1 -2 1 6 2
1532259423176881 -3 -2 -2 -3 2 0 -5 -3
1532259423198823 -2 -3 -1 -1 2 0 9 3
1532259423265955 0 1 0 -3 -2 0 8 1
1532259423296872 -2 -2 2 -2 -1 -1 0 1
1532259423423534 -4 -2 -1 -4 -2 -1 -8 -3
1532259423476404 -1 1 -1 -1 1 0 12 6
1532259423521273 -1 0 -1 2 3 -1 -2 -4
1532259423588863 -3 -2 -2 2 -1 -1 -4 -3
1532259423648702 -1 -1 -2 -1 1 0 -1 6
1532259423701974 -2 -1 -1 -3 -1 0 0 -2
1532259423738877 -2 -1 -1 -1 4 -2 1 -3
1532259423768798 -3 -1 0 -6 -3 0 -1 -4
1532259423806696 1 -1 0 3 -2 -3 2 -2
1532259423851576 -1 0 1 2 -2 0 -1 9
1532259423956296 -2 -1 -2 -1 1 1 7 -1
1532259424068995 -3 0 0 3 -4 -10 -2 -3
1532259424099912 0 -1 -2 -5 -1 -3 -22 -21
1532259424175709 -1 -2 -3 0 -3 0 -5 3
1532259424203639 -1 -1 1 6 4 0 -1 -3
1532259424278435 -1 -1 -3 -5 -5 -3 1 -9
1532259424346253 -3 0 -2 -3 -1 -2 0 3
1532259424437023 0 1 0 -4 0 -1 6 1
1532259424458951 -2 -2 -3 -13 -11 0 -13 -6
1532259424481891 -2 -2 -1 -1 -2 1 4 -4
1532259424503843 0 0 0 1 3 0 4 3
1532259424526771 -1 0 -1 2 2 -2 3 4
1532259424548712 1 -1 -1 1 -7 0 3 -2
1532259424578632 -1 -1 2 4 1 1 1 3
1532259424601571 -1 -1 -1 -6 0 0 -3 1
1532259424623512 0 -1 0 2 -2 -1 -4 5
1532259424639468 -2 -3 0 -3 2 1 -2 -1
1532259424676371 1 1 -4 -1 -2 -4 -14 9
1532259424699309 -3 0 -1 2 -2 0 -6 2
1532259424729229 -1 1 2 3 2 0 -6 -4
1532259424759148 1 -1 -2 -4 -1 0 12 4
1532259424781091 1 -1 0 -3 -4 0 3 2
1532259424841928 -1 -4 1 3 3 -1 4 0
1532259424886810 0 1 0 -2 -2 -1 6 0
1532259424976568 -1 1 -2 -3 -2 1 3 3
1532259425051368 -2 -2 0 0 -3 0 3 -1
1532259425238866 0 -1 -1 2 -4 1 8 1
1532259425261805 1 -1 -2 2 2 -1 -1 2
1532259425306685 -3 0 -2 -5 -3 -4 -25 -4
1532259425358546 2 -2 -3 -4 -2 -1 3 -5
1532259425389464 -3 -3 -2 -2 -2 -3 -8 -6
1532259425434344 -3 0 -2 1 -1 -2 -21 -8
1532259425464264 -1 0 -1 -1 -3 0 7 1
1532259425486204 2 -3 -1 -1 0 1 7 10
1532259425509144 2 1 0 1 2 -1 -5 -1
1532259425539071 -2 -2 -1 2 4 0 5 6
1532259425583943 2 -2 -3 -4 0 -1 1 2
1532259425606882 -3 -1 -1 0 0 0 0 0
1532259425636802 -2 -1 -2 -4 3 0 3 3
1532259425666722 1 0 -2 -1 -1 -3 0 5
1532259425733544 -1 -1 2 -1 -7 -1 -2 -2
1532259425794381 -2 -1 -6 -7 -6 -8 -3 2
1532259425869180 0 3 10 11 -1 4 10 0
1532259425943981 0 2 20 5 5 -4 9 -4
1532259425966919 -7 -2 -3 -11 8 1 1 6
1532259426018781 -5 -2 -2 1 -13 2 9 20
1532259426048701 -1 -4 -1 -1 -47 -2 19 -4
1532259426086599 0 10 -1 -3 2 -4 -11 -14
1532259426101559 -3 -7 -5 -1 1 -5 -5 -4
1532259426154419 -1 -7 7 3 -4 2 1 10
1532259426176359 -2 -21 0 0 4 4 -10 8
1532259426191320 -2 -3 -7 -2 0 -25 9 11
1532259426245175 -2 -4 -1 -14 -21 -2 47 10
1532259426289058 -3 -10 9 4 17 12 -4 0
1532259426318978 2 8 11 -10 -6 2 -2 -17
1532259426363858 7 5 4 27 -7 -30 0 13
1532259426378818 -5 -3 -11 -9 -6 0 -31 -9
1532259426446637 3 2 4 20 3 9 -3 25
1532259426574295 -7 -7 -13 -35 7 20 5 -17
1532259426620173 0 4 -2 -13 -12 -16 1 -6
1532259426716914 -2 -1 -2 -3 -3 19 -8 -6
1532259426754813 2 2 1 3 10 -14 -16 -30
1532259426806674 -7 -3 2 -2 -6 -8 1 -1
1532259426828615 -19 -1 -2 -3 -22 -16 2 -14
1532259426881474 -7 -16 -9 0 -12 8 -21 -12
1532259426896433 13 -4 -5 -6 -11 4 -6 3
1532259426979213 -2 -7 3 18 27 14 6 2
1532259427009133 -8 -8 -26 5 23 7 -8 0
1532259427106871 -1 43 10 10 -69 -7 -6 -18
1532259427188653 -5 -13 -4 -20 -66 -8 2 3
1532259427211592 -1 -4 -5 -2 -3 12 -2 3
1532259427331271 -5 4 -3 -2 -2 -12 -19 -13
1532259427414050 -23 -23 -3 -4 -15 -13 10 -4
1532259427473889 -7 8 -6 -2 -13 -22 -10 10
1532259427541708 -16 -16 -1 -3 -5 -14 1 7
1532259427556668 3 21 2 -2 14 -11 7 -3
1532259427616508 -3 6 -2 -11 6 8 -12 1
1532259427676348 -2 -3 -5 -8 -11 3 6 5
1532259427841906 -2 2 -3 -9 -3 2 -5 -4
1532259427893767 -2 -3 -2 -1 3 9 -3 -2
1532259427983527 0 -3 -1 1 0 0 1 -5
1532259427998487 -3 -4 -3 -3 -2 -2 -12 -6
1532259428014444 -2 -1 -1 -2 0 -2 6 2
1532259428044364 -2 -2 -3 -3 -2 1 -2 -1
1532259428066305 -2 2 -1 1 0 -1 5 -1
1532259428089244 0 -3 0 -1 -2 -3 -1 -3
1532259428134124 -2 -4 -1 -5 -7 -2 -4 -1
1532259428149084 -1 1 -5 7 -2 3 6 2
1532259428164044 1 0 0 -1 0 -1 -5 -1
1532259428185986 -2 -3 2 1 -4 2 -1 0
1532259428216903 1 1 0 1 4 -2 6 9
1532259428298684 -3 -2 -3 -2 -3 1 -15 -4
1532259428381479 1 1 -1 -1 7 3 1 9
1532259428419361 0 1 0 -4 -2 -1 1 6
1532259428443298 -2 -1 -2 -1 0 0 -2 -6
1532259428486183 0 -1 -1 -1 0 -3 -8 -6
1532259428509122 -1 -1 -1 -1 -2 -3 -10 -7
1532259428524081 0 -1 1 1 -4 -2 1 -2
1532259428576940 -3 1 2 -1 3 1 0 4
1532259428636780 -3 -1 -1 -4 -2 0 3 -2
1532259428651740 0 -1 -1 -2 -2 -2 7 4
1532259428666700 -3 1 2 4 -1 1 4 1
1532259428711580 0 -1 -2 -3 -1 0 2 3
1532259428726540 -3 -3 1 -1 -3 -2 1 3
1532259428748481 -3 -2 -2 0 -1 0 4 2
1532259428809319 -2 -1 0 2 -2 -1 4 -2
1532259428854198 -1 -3 -1 -4 3 -1 0 0
1532259428921029 -4 0 0 2 0 -2 -6 -4
1532259428988839 0 0 -1 -1 -2 0 5 3
1532259429026738 -2 -4 0 -2 -4 -1 1 0
1532259429078599 -1 -1 -1 -1 1 1 1 -5
1532259429131457 0 -2 -1 -2 2 1 -12 -1
1532259429206257 1 2 -1 -2 0 -2 6 12
1532259429229196 0 0 0 2 1 0 -5 -9
1532259429251138 -1 -1 1 2 -2 -1 -5 -4
1532259429289036 -1 -2 0 5 0 -2 -1 1
1532259429363836 1 -1 0 0 -3 0 12 2
1532259429408716 -3 -2 -2 1 -1 1 5 -3
1532259429476534 -1 -3 -2 -3 -1 -3 -4 0
1532259429536375 2 -3 0 -1 6 2 2 -1
1532259429551335 1 0 -2 3 -2 2 0 2
1532259429693957 0 -1 -1 -3 3 -2 1 2
1532259429753794 -1 -2 -2 1 3 0 -4 -1
1532259429836571 -3 -2 -2 -1 0 -2 -5 -2
1532259429911372 -2 -2 1 2 -1 -1 8 -3
1532259429942289 1 1 0 0 -4 -1 -7 -1
1532259430003127 0 0 -3 -2 -1 1 5 1
1532259430039030 -2 -1 -2 0 -3 -1 -4 3
1532259430113830 0 -1 -3 -2 1 0 -3 -4
1532259430316289 -3 1 1 2 0 -2 -17 -6
1532259430526727 -2 -2 0 -3 -4 -1 0 2
1532259430556646 -1 0 -2 -7 -2 3 1 2

1532259430578588 0 1 9 1 8 3 1 1
1532259430601526 -9 7 -1 1 1 -4 1 -3
1532259430669345 15 12 -4 -10 5 7 -4 0
1532259430714224 -8 12 -10 -6 -46 -6 0 -4
1532259431223884 -5 -7 -15 4 35 61 0 -9
1532259431321551 17 6 0 4 17 -4 -4 17
1532259431531022 -12 -5 3 -5 -4 -1 1 8
1532259431583880 50 10 10 7 -3 -13 -9 22
1532259431636740 8 -1 -6 -13 -7 -4 -8 -31
1532259431711546 1 -1 -2 -10 -16 1 -2 13
1532259431839198 -24 -13 1 5 15 19 -4 -14
1532259431928957 2 -21 -15 -4 -5 -41 4 -2
1532259432206302 2 -13 -4 -15 -10 -30 -6 -3
1532259433098921 -5 -1 -7 -5 6 8 -2 -3
1532259433158761 0 2 2 5 10 2 -7 -27
1532259433241540 3 6 0 -3 -6 -1 2 2
1532259433578638 -4 -11 1 -2 -15 -13 13 1
1532259433691337 2 -3 4 -1 -42 -20 -9 -3
1532259433984419 1 -4 -2 -7 -4 73 1 1
1532259434344463 -19 -3 -1 -4 -19 28 -5 -9
1532259434824266 -2 6 1 -1 -8 -6 -1 -2
1532259434906070 1 -16 -4 -1 39 27 -1 0
1532259434996827 1 16 -6 -6 -29 12 4 3
1532259435093762 -2 -2 7 -7 27 14 -5 -2
1532259435281260 4 23 1 -6 -4 -2 7 5
1532259435341100 -9 -18 2 21 4 -1 3 4
1532259435386981 1 -11 -14 -31 -8 3 3 -2
1532259435453815 -2 19 -11 -24 -11 -4 1 1
1532259435581457 -2 10 5 -14 -6 -6 -6 -3
1532259435649276 -2 -8 -4 7 17 -7 0 -1
1532259435798876 1 -21 3 3 39 12 1 -2
1532259435873676 3 -16 -18 -4 -2 -16 2 -9
1532259436024273 -10 -7 3 -1 -13 -11 -2 25
1532259436136974 -16 36 17 3 -2 1 1 6
1532259436286040 -4 16 6 6 5 -12 -6 -4
1532259436353859 -9 -8 8 -2 0 0 0 -5
1532259436631987 12 -15 4 0 7 0 -11 -6
1532259436668891 -11 -4 -5 5 8 -6 6 -3
1532259436706790 22 -13 -5 -6 -3 15 7 16
1532259436743691 0 -2 0 -3 -20 -2 4 -3
1532259436924208 0 -8 -2 -2 1 -2 -7 7
1532259436946149 -7 -6 1 0 -1 2 -7 -14
1532259437096746 -2 3 -1 1 2 -1 -13 -3
1532259437148607 0 2 2 8 -3 0 12 11
1532259437216427 -1 1 1 25 17 -34 -6 -1
1532259437254325 1 4 3 1 -9 2 -4 -2
1532259437276267 5 0 0 1 11 10 11 3
1532259437314165 -3 -3 -2 -9 -8 -3 -5 -1
1532259437366026 -1 -1 -4 -1 4 3 3 -1
1532259437426864 0 0 1 -1 1 -1 -7 -3
1532259437599402 -2 -2 -1 -1 3 -1 0 -1
1532259437666224 0 -1 -4 -5 -4 -1 2 2
1532259437681183 0 -1 0 0 1 -1 -5 -2
1532259437741024 1 -1 -2 -3 -5 1 1 0
1532259437823803 0 -1 -1 1 2 -3 -1 -1
1532259437913562 -1 -1 -1 -3 -2 0 0 -2
1532259437951461 -1 -1 1 -1 -1 -1 -1 -1
1532259437996341 0 2 0 1 1 0 0 -2
1532259438086101 -1 -3 -1 -3 -4 1 -3 0
1532259438102058 -2 -2 -1 4 -1 -3 0 0
1532259438146938 0 1 -1 -2 -5 1 -3 1
1532259438491018 -2 1 -1 -6 -2 -2 -2 -6
1532259438513957 -1 -2 -2 -3 -2 -3 -2 0
1532259438558836 -1 -1 1 -1 -1 -2 -1 1
1532259438588757 -3 -1 -3 0 -1 0 0 -1
1532259438663556 -1 0 0 -3 -2 -1 1 3
1532259438716415 -1 -3 0 -1 1 -1 -1 1
1532259438754314 -4 0 1 -1 -1 -2 -3 0
1532259438791215 -2 -1 -1 -1 0 -5 -2 -1
1532259438814154 1 -1 0 -1 1 0 0 -1
1532259438866015 -1 0 -2 -1 -2 -2 1 1
1532259438903913 -2 -4 -1 -1 0 2 -1 -1
1532259438918874 -4 0 -1 -1 -1 -1 -1 -2
1532259438956772 -2 -2 -3 -2 0 -2 -2 -1
1532259438993674 -1 0 -1 -1 -1 0 0 2
1532259439069471 0 0 -2 -1 -1 0 0 0
1532259439114351 -2 0 0 0 -1 -1 0 -2
1532259439166213 -1 -4 -2 9 7 5 -8 -2
1532259439263951 -2 -6 -23 -24 -10 -8 -8 -1
1532259439316810 -1 -2 -29 -9 13 15 -1 -2
1532259439331770 1 -3 33 5 -7 -20 9 -6
1532259439353713 -1 8 4 16 -22 6 10 4
1532259439413551 4 1 -5 -10 14 5 7 11
1532259439459429 1 1 -1 -12 -9 -6 -3 -7
1532259439496330 1 0 -3 -2 -2 7 8 10
1532259439519268 0 2 -2 1 7 -2 7 -9
1532259439594068 -5 -2 -5 -13 -3 -4 -7 12
1532259439623989 6 4 6 4 0 9 18 12
1532259439639946 -5 -1 -3 0 3 -8 -6 -9
1532259439668868 1 3 -6 -19 -7 -17 -22 8
1532259439713748 -7 0 4 10 2 32 9 -48
1532259439743685 -9 -2 -7 1 -4 0 -10 -33
1532259439826447 5 -2 2 -7 -15 -17 13 -3
1532259439992005 -12 -17 -1 -7 0 0 12 14
1532259440013945 15 0 -3 -2 9 1 20 1
1532259440096724 -9 4 0 2 21 1 -8 1
1532259440134623 -12 0 1 2 11 -1 6 2
1532259440163546 -6 5 2 10 42 12 10 -40
1532259440187483 -7 -12 1 -2 -21 -18 5 2
1532259440216404 2 17 0 5 -14 -17 -2 4
1532259440231364 -2 0 -6 -7 -57 -1 0 -1
1532259440246324 2 0 -3 -1 1 2 -19 -5
1532259440276245 0 -2 1 12 6 48 8 8
1532259440299182 2 3 1 -4 3 -5 2 -1
1532259440321125 8 9 6 -4 0 1 2 -6
1532259440344063 -4 -1 6 4 8 4 -1 0
1532259440373983 -3 0 -1 3 -9 -5 -9 -3
1532259440396922 -3 -1 -10 -15 23 25 26 3
1532259440426842 -1 -2 17 11 4 -9 -3 -8
1532259440448783 0 4 -28 -33 0 -4 -4 0
1532259440501642 6 -4 -12 -2 -2 -38 -16 1
1532259440591401 12 7 6 6 -5 4 -16 -33
1532259440615338 -4 -7 1 3 7 -21 4 -23
1532259440651241 0 3 3 0 -1 13 -7 -1
1532259440719060 -2 13 0 -1 3 -14 3 8
1532259440734020 -3 1 -2 -1 -2 8 -10 -4
1532259440778900 4 -2 1 2 1 -6 5 9
1532259440824778 3 10 1 -2 5 -14 -1 2
1532259440855695 5 -6 0 -3 1 -8 0 9
1532259440913540 -1 3 0 -1 0 0 -19 -13
1532259440952436 -2 -1 1 8 -1 8 18 -4
1532259441011279 -4 -8 6 3 0 9 -12 -7
1532259441071119 -5 -15 -56 -52 -1 -11 -1 1
1532259441146916 -1 13 24 -18 -2 -16 15 6
1532259441266596 -6 -11 -15 -12 -2 9 -16 1
1532259441341396 -2 0 -1 -2 0 -3 10 10
1532259441410212 -1 -1 -2 -1 -2 -4 3 -5
1532259441455092 2 4 4 6 1 1 1 -12
1532259441476036 -4 -6 -1 -3 -1 2 9 15
1532259441536891 -4 18 -9 1 -4 0 -14 -21
1532259441566793 -4 -9 3 1 0 1 2 -4
1532259441596713 -3 -11 -2 4 -2 -1 1 3
1532259441626634 0 0 -4 -6 -19 -12 -9 5
1532259441686473 -3 -2 -3 24 -1 -7 10 -5
1532259441709412 -2 -1 10 57 -3 5 -26 1
1532259441731353 -4 -4 -4 -11 -1 -5 24 8
1532259441769252 0 0 3 -5 4 -1 -1 2
1532259441791193 -1 0 -2 -10 -2 1 -5 -4
1532259441881951 -4 -3 1 6 -3 -8 9 -1
1532259441912868 -3 -2 -1 -1 -1 -1 1 1
1532259441934809 -3 -1 0 -2 -1 -3 -1 1
1532259441986670 0 -1 -3 1 -4 1 -12 -3
1532259442031550 -1 -1 -1 1 -1 -6 -2 3
1532259442046511 -2 0 -2 -2 -2 -1 3 -3
1532259442106350 -1 2 0 -2 -3 1 2 -1
1532259442160207 -1 -2 -2 -4 -3 -1 -9 -15
1532259442181150 -1 0 -1 -1 -4 -2 2 -1
1532259442219049 0 -1 -1 -2 -2 0 2 5
1532259442248969 0 -2 -1 0 -1 0 1 1
1532259442271908 -3 0 -2 -5 -4 -4 -4 -5
1532259442301828 -2 -1 0 0 3 4 -12 -1
1532259442316788 -3 0 -1 -1 -4 -4 2 1
1532259442346707 0 0 -2 -2 -1 -2 3 -2
1532259442383609 -1 0 0 2 1 -1 -6 4
1532259442398569 1 0 -2 -2 0 -3 6 -3
1532259442415524 1 0 -3 -2 -3 -2 -1 7
1532259442436471 -2 0 -2 -3 0 -1 4 -4
1532259442467385 -2 -2 0 -3 -1 0 -6 -3
1532259442519246 -1 -1 0 3 -2 -3 -5 -2
1532259442541187 -1 0 -1 -1 0 -1 -6 -18
1532259442564126 -3 1 -1 -3 1 -1 1 4
1532259442579086 2 -2 -2 -2 -2 -2 2 7
1532259442646905 -1 0 -2 0 -1 -2 -2 -6
1532259442698766 -1 -3 -2 -3 -2 -1 -2 -1
1532259442751625 0 0 -3 -4 -3 -1 3 4
1532259442811464 -2 -1 -1 -1 -1 -1 -2 -5
1532259442871305 1 1 0 -5 -8 -2 -2 1
1532259442924164 -1 1 0 1 1 1 5 2
1532259443013940 -2 -2 1 -1 -1 0 -6 -2
1532259443066782 -1 -2 -1 -1 2 0 -1 6
1532259443142579 0 -1 0 4 1 -1 -5 -3
1532259443171502 -3 0 1 0 -2 -1 2 -8
1532259443306142 -1 0 -1 -3 -3 -1 -3 0
1532259443373961 -2 -1 0 -2 -3 -1 -6 -10
1532259443403881 -1 1 2 3 0 1 0 -3
1532259443493641 -2 -2 -3 -1 -1 -2 -4 0
1532259443629277 -2 0 -1 0 -2 -1 1 0
1532259443771897 0 -1 -1 0 -3 -2 2 0

1532259443825765 -1 1 -2 -1 0 -1 -13 -11
1532259443906543 1 -1 -2 -2 0 0 -3 -2
1532259444041184 -2 -4 -1 -1 1 0 -1 6
1532259444101024 0 -2 2 -1 -2 -1 -1 -2
1532259444138923 1 1 -1 0 -1 -1 5 6
1532259444251621 -1 1 -1 -1 0 -1 -6 0
1532259444303983 -3 -3 -2 4 4 -2 6 0
1532259444356831 -2 -1 -2 -4 0 -1 0 0
1532259444431631 -1 -2 -1 -4 -1 -1 -3 4
1532259444468532 0 0 0 -1 -2 -1 2 1
1532259444529370 -1 0 0 0 1 -2 -3 0
1532259444604174 2 -2 -2 -1 0 1 -2 0
1532259444634089 -2 0 -1 -3 -6 0 1 1
1532259444761027 0 -2 -1 1 0 -2 6 3
1532259444798926 -1 -2 0 3 0 -1 1 -1
1532259444873726 -1 -2 -2 -1 0 -2 2 2
1532259444918606 -1 -1 -2 -3 -1 -1 1 6
1532259444948526 0 -1 -2 0 -2 0 4 -3
1532259445001384 -1 -1 0 2 1 -1 -4 -3
1532259445024323 1 0 0 -4 -10 -2 -4 6
1532259445099123 -1 -2 -2 -1 0 0 2 -2
1532259445137022 2 0 -1 -2 0 -4 -6 3
1532259445196862 -1 0 0 0 -3 -1 2 7
1532259445316542 0 -2 -1 -2 -2 2 1 1
1532259445406302 -2 1 -3 -2 0 -5 -3 5
1532259445451182 -1 -1 0 2 3 -2 -6 -12
1532259445474120 0 -1 -1 -5 -1 0 -6 -4
1532259445496062 -3 -1 -1 -3 -1 -2 -3 -2
1532259445526988 -2 -1 -1 0 0 -1 3 2
1532259445563880 -2 0 1 -2 -2 2 7 5
1532259445578841 -2 -1 -1 -2 -2 -1 -2 0
1532259445601779 0 0 -3 -3 -5 -2 2 3
1532259445646659 7 1 -8 -10 21 -15 -6 0
1532259445668600 -6 -1 2 3 2 2 -7 0
1532259445714478 -4 -1 0 2 -8 2 1 -2
1532259445774318 -3 -1 0 1 -4 2 3 -3
1532259445849117 -4 0 -1 -1 -6 1 -2 -1
1532259445901976 -3 -3 0 0 -1 -3 0 -4
1532259445947854 -2 -2 0 5 0 -1 1 5
1532259445976792 1 -1 -2 -5 0 -1 -1 -1
1532259445998718 0 0 -2 -1 0 0 3 3
1532259446043598 -2 -1 -1 -3 0 -2 0 1
1532259446104444 1 -3 0 2 0 -1 -1 0
1532259446179235 -1 -2 0 -3 -12 -2 -2 -3
1532259446216136 1 1 -2 -2 -1 0 1 -2
1532259446276973 -3 0 0 -2 1 1 2 1
1532259446328835 -3 -2 -4 -2 1 -1 -1 -2
1532259446373715 -1 -3 -1 -1 -3 0 7 7
1532259446418595 -2 -1 -1 -1 1 0 3 1
1532259446456493 -1 -1 -1 -2 0 0 3 0
1532259446501373 1 -1 -2 -3 -2 2 -2 2
1532259446531293 -1 -3 1 0 -2 -3 1 -5
1532259446561214 -2 -1 -2 -1 0 0 -3 0
1532259446600109 -1 -1 -1 -2 -1 -4 -12 -12
1532259446658952 -1 -1 -2 -2 2 0 2 2
1532259446681891 -1 -1 -1 -2 -2 -2 -4 -2
1532259446703838 -2 0 0 2 1 -2 -1 -6
1532259446727768 1 -2 -1 -2 1 -1 -1 2
1532259446778632 -2 -2 -1 -5 1 -2 -1 1
1532259446793592 1 1 1 -3 0 0 3 0
1532259446823512 1 0 -2 -2 -3 -2 -2 -3
1532259446839469 -2 -1 2 -2 -3 -3 -1 -1
1532259446861410 3 6 3 0 6 0 4 -4
1532259446899310 -6 -12 -9 -22 -15 0 -7 -3
1532259446936211 1 -2 1 -24 6 18 4 0
1532259446974109 1 7 -8 -15 -7 9 -3 3
1532259447063869 7 0 -3 14 -8 -14 -2 3
1532259447108748 -4 -1 -3 4 -5 14 1 4
1532259447153637 -16 -8 -10 -4 -4 -15 -70 -68
1532259447198534 -6 -1 1 1 -12 -5 -8 -15
1532259447213495 -4 1 2 -4 4 -15 7 10
1532259447244412 5 2 4 16 8 -4 12 15
1532259447267350 -1 -2 -3 -11 -15 6 -2 -16
1532259447289292 -5 -5 -6 -3 5 4 -3 5
1532259447319212 -5 -6 -6 -18 -7 0 0 6
1532259447341153 3 9 5 0 4 22 12 12
1532259447364092 -5 -2 1 3 11 1 0 2
1532259447408972 -5 -14 -8 2 -9 22 -9 15
1532259447431911 -14 2 -3 -4 -28 -34 -46 -64
1532259447461831 5 -1 0 -17 -2 -59 17 20
1532259447528652 -2 -4 -9 -22 -12 21 -1 37
1532259447664289 2 -5 3 15 2 21 7 31
1532259447694209 2 -3 1 3 9 -10 28 21
1532259447731110 -1 -1 -1 -3 -3 -8 7 14
1532259447821868 -5 -1 -6 -13 1 -6 -23 14
1532259447873728 0 0 2 4 -5 13 23 3
1532259447912641 -8 3 0 5 0 6 -10 -1
1532259447926588 1 0 -3 -5 5 -5 10 7
1532259447994407 1 -2 -7 4 0 1 -24 -10
1532259448076188 -5 -2 -8 -1 -1 7 -3 -6
1532259448158966 -4 -6 -10 1 9 8 -4 -44
1532259448293606 0 0 0 -2 -1 3 -3 -8
1532259448369404 -2 -3 -1 -12 12 3 11 11
1532259448406305 0 1 2 2 -35 -1 1 3
1532259448421265 -3 -2 -5 -17 8 5 7 1
1532259448438220 1 -2 -1 -4 -8 -4 -7 -3
1532259448489084 0 -1 -1 -11 -3 -4 6 4
1532259448504052 -2 -2 2 4 -9 -1 -3 3
1532259448525994 -2 -2 4 3 11 7 -2 -5
1532259448571872 1 1 6 40 -5 1 2 -10
1532259448601791 0 1 2 -19 -2 -1 5 3
1532259448631711 0 3 3 25 8 -3 0 1
1532259448676591 -3 -5 -6 -15 3 1 -17 -4
1532259448729450 -2 -1 -8 -1 -6 4 -4 0
1532259448744410 1 -2 -6 6 7 3 5 0
1532259448781311 -2 -4 -10 -7 4 -3 7 -1
1532259448834170 -1 -4 0 -8 1 -3 -2 4
1532259448908970 -2 -1 -1 -5 -1 -3 1 3
1532259448983770 0 -3 -3 0 2 -3 -7 6
1532259449006708 -1 2 -1 -2 2 0 -2 -2
1532259449036629 1 -7 -10 -6 -8 -1 5 -2
1532259449051588 2 2 3 -1 -5 0 -4 8
1532259449096468 2 -6 -3 -6 1 -3 -2 3
1532259449119419 0 1 -4 -4 -2 0 5 1
1532259449231108 -2 -4 -6 -3 -5 -1 10 3
1532259449254047 1 -1 2 1 -1 2 13 -9
1532259449276985 -2 -1 -2 -1 1 -2 -2 0
1532259449321865 1 0 2 4 -11 -2 8 13
1532259449336826 1 -2 -1 -1 -4 -3 -4 -1
1532259449351785 -4 -1 1 15 7 2 -2 2
1532259449373727 -3 -1 -2 -3 3 1 3 -3
1532259449411625 -3 1 -2 -6 -3 1 0 -1
1532259449433567 1 -3 -3 -5 -1 -2 -3 -4
1532259449456505 -2 -2 -1 -5 -1 -2 -1 -2
1532259449486425 0 0 -1 -6 -12 1 -6 -3
1532259449516345 0 0 -1 -1 -3 -1 -9 -18
1532259449531305 -2 0 1 -5 1 -2 -25 -15
1532259449561225 1 -1 -3 -6 0 0 7 0
1532259449606106 0 -1 -1 2 1 2 6 5
1532259449637028 0 -1 1 -2 -2 -2 0 -1
1532259449666943 1 1 1 -3 -5 -1 2 14
1532259449704841 -1 -1 1 1 1 1 4 -1
1532259449733764 -3 -1 -1 -3 -1 -1 10 -3
1532259449756703 -1 1 1 -3 -5 -1 0 -8
1532259449778655 -2 -2 -3 1 0 -1 -4 -3
1532259449816543 -3 -1 0 -2 0 1 3 8
1532259449884361 -4 0 -3 -3 -4 -1 -18 -5
1532259449899321 0 -3 -1 1 2 2 4 -6
1532259449944202 1 0 -1 0 2 -2 3 3
1532259449959161 -1 0 -1 1 0 -2 5 0
1532259449996063 -1 0 -2 -5 2 -1 -3 0
1532259450026980 -1 0 0 5 0 1 5 2
1532259450086825 -1 -3 -1 -2 -2 -1 4 1
1532259450108761 -1 0 -3 -4 0 -2 -5 -4
1532259450176579 0 -2 0 -3 -2 1 0 -1
1532259450198522 1 1 -1 2 -1 -2 -5 5
1532259450236420 -3 -2 0 -1 -4 -2 -7 -5
1532259450349119 -1 -2 -2 -4 0 -3 -4 0
1532259450371071 -1 -2 0 4 0 0 4 -1
1532259450446857 -3 -1 -1 4 5 -1 -17 -4
1532259450468799 0 -2 -2 -2 0 1 -1 1
1532259450514675 1 1 -1 -4 0 1 0 1
1532259450588479 0 0 -1 7 -1 -1 4 2
1532259450611417 0 -1 -2 -5 -1 -3 3 4
1532259450634356 -1 0 2 -4 2 2 4 1
1532259450671258 -1 0 -1 -3 -5 -1 -5 -3
1532259450761017 1 -2 -1 -2 1 1 7 2
1532259450798916 -1 -3 -2 -1 2 -1 11 0
1532259450851774 0 -4 -3 3 -1 -1 1 2
1532259451061214 -1 -2 -3 3 0 -1 -1 -5
1532259451121054 1 -1 -1 2 -1 -2 -3 -8
1532259451166932 2 -1 0 -4 0 -1 4 11
1532259451241732 0 0 0 -2 -2 -1 -3 1
1532259451316532 2 0 0 -3 1 0 2 2
1532259451339471 0 0 -2 0 1 -1 0 0
1532259451399310 -1 -1 -2 0 2 0 7 0
1532259451497049 0 -1 -4 -2 0 -1 -11 0
1532259451556889 -1 -2 -1 -4 0 0 8 0

1532259451578830 -1 -1 -2 -1 0 -1 2 0
1532259451623710 -1 1 -1 -1 1 1 4 -1
1532259451646656 -1 -2 -1 -3 4 -3 -2 11
1532259451676576 -1 1 0 -3 0 0 -9 -2
1532259451744395 2 -2 2 2 0 0 6 6
1532259451819025 -1 -1 0 -4 0 0 6 -1
1532259451863905 0 -1 -2 0 1 -2 -4 -1
1532259451908785 0 -1 -2 2 1 1 -12 -12
1532259452051735 0 -3 -2 3 0 -1 -3 -1
1532259452073676 0 0 -2 -8 -7 -1 -2 0
1532259452096615 0 -2 -1 0 -1 0 5 3
1532259452156455 1 -1 1 3 3 0 1 0
1532259452179394 0 0 -2 3 2 -4 8 3
1532259452226269 1 0 -3 -5 -8 -2 7 0
1532259452314034 -1 -1 -4 -6 -3 1 -6 4
1532259452373874 -1 -2 -1 3 -3 -1 9 1
1532259452420749 1 -3 -2 -1 -2 -1 -8 -3
1532259452463634 -1 -1 1 14 1 -1 2 -3
1532259452486572 -4 -2 0 -5 -4 -1 -10 -9
1532259452516492 2 -1 1 1 6 1 -3 2
1532259452576332 0 -1 -3 -3 -2 -2 -4 5
1532259452599292 0 -1 1 7 1 0 0 -2
1532259452636193 0 -2 -3 -3 0 -1 -4 -7
1532259452659133 -2 -1 -1 -4 -5 -1 -7 -1
1532259452689052 -1 -3 0 -7 -10 -3 -5 -2
1532259452718972 -1 -1 -2 -5 -3 1 19 0
1532259452748893 -1 -1 -2 -3 -2 -1 1 4
1532259452793772 0 -2 -1 1 0 0 4 4
1532259452831670 -1 -2 0 0 -1 -2 -2 -4
1532259452868571 0 -3 0 -4 -7 -1 2 4
1532259452907468 -2 0 0 -3 -2 1 -6 -4
1532259452959329 -2 -2 -1 -6 -4 0 11 0
1532259452989249 -2 1 0 1 1 -2 0 1
1532259453035127 -1 -1 -3 0 -1 -4 -15 -9
1532259453049089 0 0 -1 -11 -4 -1 11 4
1532259453066044 -2 -2 -1 0 -2 0 3 -3
1532259453093969 0 -1 -1 2 0 1 5 -4
1532259453108929 -2 -2 -4 -6 -2 -1 -4 -5
1532259453138849 1 0 -2 -3 1 1 8 8
1532259453168769 -2 -1 -2 1 2 -1 0 -2
1532259453191708 -2 -4 -2 3 -1 -1 -9 -4
1532259453221628 1 -1 -3 0 0 -1 -2 -1
1532259453258528 -2 -3 -2 -1 -4 -1 -3 -1
1532259453289463 -2 -1 -1 -3 -4 -3 -5 -3
1532259453341308 -1 1 2 9 0 1 -5 -2
1532259453386188 -3 0 -2 -1 0 -4 -9 -12
1532259453424087 0 -1 -1 2 2 -1 -4 -7
1532259453446044 1 0 0 3 0 -2 -2 -3
1532259453476945 1 -1 2 -2 -1 1 2 1
1532259453491904 -3 -2 -3 -3 1 -1 1 2
1532259453506865 -2 -2 -2 -1 -1 0 0 0
1532259453536785 0 0 -1 5 1 -3 -4 -6
1532259453566705 -2 -3 -2 -6 -4 -2 -6 -2
1532259453611585 0 0 0 1 -2 -2 0 5
1532259453648486 -2 1 -2 4 -1 -1 -7 -17
1532259453686385 -1 -1 3 -2 -7 0 2 8
1532259453724284 1 0 -2 -1 2 -1 2 1
1532259453746225 -2 -1 -3 5 0 0 -4 0
1532259453769181 -1 -1 0 1 2 -1 -7 -4
1532259453814044 1 -2 -2 -6 -1 -1 1 1
1532259453956662 0 -3 -2 -4 -2 -1 -1 0
1532259454031462 -1 0 1 0 -1 1 3 6
1532259454091302 1 -1 -3 -4 -2 1 8 0
1532259454106262 -1 -2 -2 7 5 -1 7 1
1532259454218961 -3 -1 2 -3 0 -1 2 6
1532259454241899 -1 0 -1 2 1 1 7 -5
1532259454286780 -2 -2 -1 -3 -4 -3 -19 -4
1532259454316699 0 -1 -2 -2 0 -1 5 2
1532259454346620 0 -1 -4 -6 -2 -1 -7 0
1532259454376539 0 0 1 0 1 -1 5 -1
1532259454421419 1 -1 0 2 1 -1 -10 -4
1532259454466299 -1 -1 -2 -3 -1 0 6 2
1532259454504198 1 0 -1 3 1 0 -2 0
1532259454549078 1 -2 0 3 0 1 4 6
1532259454573014 -3 -3 -1 -1 0 -4 -21 -19
1532259454698677 -2 1 0 2 1 -1 -2 -1
1532259454728598 -2 -2 0 -4 -2 -1 -1 0
1532259454789435 0 1 0 -1 -2 0 -2 -1
1532259454819355 -2 -3 0 0 -2 0 -1 -1
1532259454849275 1 10 47 27 3 -1 -4 -1
1532259454939035 0 -3 2 10 -3 -4 -1 -2
1532259454998875 -6 -4 -2 7 -2 2 -11 -3
1532259455028794 -2 -1 -1 -4 2 -4 -6 -1
1532259455088635 0 2 0 -1 3 1 9 -1
1532259455156454 -4 -1 1 0 -2 1 -4 -6
1532259455201334 -4 -2 -7 -1 0 6 -9 -12
1532259455224272 -2 -5 -2 -10 -6 -10 1 -8
1532259455306054 2 -2 3 0 -2 -22 13 5
1532259455351930 -1 -3 -1 5 -6 0 5 1
1532259455478593 3 0 1 -2 -2 -10 -8 1
1532259455516491 -3 0 2 6 0 -7 -6 -10
1532259455547415 -4 -2 -1 1 0 -2 17 -11
1532259455569357 -2 -3 -5 -4 -13 -26 62 13
1532259455666098 1 0 -1 -3 -1 4 -27 3
1532259455681058 -1 -1 -3 0 -2 -9 0 12
1532259455726935 -2 2 2 -7 -1 -5 2 -5
1532259455763837 -2 -3 -6 0 -1 10 6 2
1532259455793757 -2 -1 0 -13 -6 -4 -2 -3
1532259455816696 2 -2 -6 1 3 13 -14 -1
1532259455838644 -1 -3 2 -4 -2 -3 11 4
1532259455853597 0 1 13 12 11 36 -5 1
1532259455921415 -3 -8 -29 -17 -3 -2 -6 2
1532259456123874 0 8 22 23 3 -4 2 -3
1532259456258514 -2 -1 -1 -1 -2 2 -4 11
1532259456281453 0 1 -3 0 0 0 -2 5
1532259456319351 1 5 3 6 3 0 2 2
1532259456349272 -2 -4 -2 -2 0 2 -7 -3
1532259456371213 0 -2 -9 -4 0 -4 -17 -12
1532259456431052 2 -2 -1 -7 -1 6 5 3
1532259456461969 -1 3 1 5 3 5 -5 -4
1532259456536770 -3 -3 -12 -14 -2 -1 -5 -1
1532259456596610 0 -2 5 -2 -3 -1 0 1
1532259456701330 0 1 5 4 -1 -4 0 6
1532259456739229 3 -1 -1 -2 1 -5 -5 3
1532259456776130 -2 -2 1 -1 2 0 6 5
1532259456828988 -3 -5 -2 -2 -2 -2 7 5
1532259456866887 2 0 -1 -1 -2 -2 -5 -1
1532259456896807 -2 -3 1 -2 -1 -2 -11 5
1532259456948682 1 0 0 1 1 2 18 7
1532259456971607 -3 -1 -1 -1 -4 -3 -3 -5
1532259457046407 0 -3 -1 -1 0 0 -3 1
1532259457069346 -2 0 -1 0 -1 0 -2 -21
1532259457084306 -4 -2 -2 -2 -2 -2 -5 9
1532259457099266 0 -1 -1 -1 -1 0 -10 -2
1532259457151127 0 0 -1 -2 -3 -3 0 -14
1532259457166087 -1 0 -1 -1 -1 3 3 -4
1532259457226925 0 -1 -2 -2 -1 -2 -7 -13
1532259457241886 -1 0 -3 -1 -1 -2 1 -1
1532259457278786 -2 0 -1 -2 0 1 5 2
1532259457301725 -1 -1 1 0 1 0 -5 2
1532259457331644 0 -2 -2 -1 0 -1 -6 -3
1532259457376525 -2 1 -2 -4 0 0 0 3
1532259457429383 1 -2 -2 -2 -1 -2 -1 5
1532259457526125 -3 -3 -1 -1 -2 -1 6 -2
1532259457572001 -2 -1 -1 -1 -3 -1 -12 -2
1532259457683703 2 1 -1 0 1 -2 -1 2
1532259457743543 -1 0 0 -1 -1 -4 -12 7
1532259457811362 -2 -1 0 -1 -2 1 -1 -4
1532259457849260 -1 -2 -1 -1 1 -1 -1 3
1532259457939020 1 -3 -1 1 0 0 10 6
1532259458021799 0 0 0 -1 -1 -2 -5 -8
1532259458051719 -3 -1 -1 -1 -2 -3 -11 -6
1532259458088620 -1 -1 -1 0 -2 1 15 12
1532259458231239 0 -2 0 -1 0 1 3 3
1532259458284097 -2 -1 -1 -1 0 0 5 1
1532259458328978 -2 -2 -2 -1 -1 -3 -9 -9
1532259458358898 1 0 -2 -2 -1 1 4 5
1532259458418738 0 -2 -1 -1 -1 0 0 1
1532259458478599 0 0 -1 0 0 -3 -8 -7
1532259458554408 -2 0 -2 -1 0 -1 0 -10
1532259458682055 0 -1 0 0 -1 -3 -14 -5
1532259458733916 -3 1 -3 0 -1 -2 -3 -16
1532259458914433 -1 1 0 -1 0 0 4 -7
1532259459138834 -4 -1 -1 -2 1 -1 -7 4
1532259459183713 0 -4 1 -1 -2 -1 -1 -2

1532259459326034 1 -2 -3 -2 1 3 5 10
1532259459386871 0 -2 -1 -2 -2 -3 7 2
1532259459513533 0 0 -1 -1 0 -2 4 -13
1532259459536471 -2 -2 -1 0 -3 0 -4 -15
1532259459574369 0 -1 -1 -2 -1 0 -1 2
1532259459597308 0 -2 0 -1 0 -1 -1 -4
1532259459626231 -1 -1 0 -1 1 1 0 11
1532259459649170 0 -1 -1 0 -2 -2 1 1
1532259459671117 3 1 0 0 -1 -1 -1 12
1532259459702029 -4 -3 -2 0 -2 -3 -15 -14
1532259459715992 -2 -1 -1 -1 -1 0 3 8
1532259459746909 0 -1 0 -1 0 0 6 1
1532259459776829 -1 0 -2 0 -2 0 2 -7
1532259459798769 -1 -2 0 0 0 1 5 4
1532259459836669 0 -2 0 0 2 -1 0 4
1532259459875565 -3 -3 -1 -2 -2 -2 -2 -14
1532259459896509 -3 -1 0 0 -2 -2 13 -2
1532259459919447 1 -1 1 0 -2 0 2 -1
1532259459956348 -1 -1 -2 1 -2 -1 1 0
1532259460009428 1 1 -2 -1 0 -1 0 4
1532259460069268 -1 -1 0 -1 0 0 -4 -4
1532259460129108 -3 -2 0 -1 -3 0 -5 -12
1532259460196927 0 -3 -1 1 -2 -2 -3 0
1532259460219410 0 -1 -2 1 0 1 3 4
1532259460234386 -1 0 1 -1 -1 0 4 5
1532259460271703 0 -2 -1 -1 -4 0 -1 2
1532259460339529 -3 -1 -2 -1 -3 -1 -2 0
1532259460392380 -1 -1 -2 -1 -1 0 0 11
1532259460406343 1 0 0 -3 -1 0 -8 -4
1532259460451223 0 0 -1 -1 -1 0 1 -4
1532259460489121 0 0 0 0 0 -1 -8 11
1532259460505078 -2 -1 -2 -1 0 -1 -9 -20
1532259460563921 -2 1 0 -1 -1 -2 -1 1
1532259460586861 0 -2 -2 0 -1 0 3 3
1532259460616779 -1 -2 -2 -1 -2 0 -7 -3
1532259460631740 -1 0 0 -3 -1 -2 -1 -2
1532259460646700 -3 -1 -2 -1 -1 0 -13 -13
1532259460661660 -2 0 -1 -1 -1 -2 -15 -3
1532259460683601 -1 -2 -2 0 0 0 2 0
1532259460706540 2 -2 -1 -2 -2 0 4 10
1532259460736460 1 2 -2 -3 -1 -1 2 0
1532259460759398 -6 -2 -2 -2 0 -1 1 -2
1532259460774358 -2 -1 -1 -3 -3 1 2 4
1532259460811261 0 0 0 0 -1 -3 1 -1
1532259460834198 -1 -2 -1 0 2 -1 -4 5
1532259460864118 -2 -1 -2 1 0 0 8 0
1532259460902017 -1 0 -2 -2 -2 -1 -4 -5
1532259460946897 0 -3 1 -1 0 -1 -5 8
1532259460961857 -1 0 0 -1 1 -4 -29 -4
1532259460983799 -1 0 -2 -2 -2 -1 -1 -1
1532259461021697 -1 -1 1 -1 0 0 -1 -1
1532259461036657 -1 -1 -2 -1 -1 0 -3 1
1532259461058598 -1 0 -3 -2 0 -1 8 -1
1532259461088518 0 0 -2 -1 0 -1 1 5
1532259461126417 -3 -2 -1 2 1 0 -5 -8
1532259461164316 0 -1 0 0 1 2 17 9
1532259461194235 -2 -2 -3 0 -1 -1 3 0
1532259461216176 -1 0 0 1 0 -2 -8 -10
1532259461246098 -2 -1 -2 0 0 0 -11 2
1532259461261057 0 -1 -2 0 0 0 9 -6
1532259461276017 -1 -1 -1 -2 -2 -1 -4 5
1532259461306934 -2 -1 -2 -4 -2 -2 0 -6
1532259461321894 0 -3 0 -3 -1 0 -2 -6
1532259461358796 -1 -2 -2 -1 0 -2 -5 -16
1532259461413648 -1 -1 0 0 2 1 1 0
1532259461456534 -1 0 0 0 -1 -3 3 -2
1532259461539313 0 -1 0 0 -2 -2 3 0
1532259461614128 -1 -1 -2 -2 -3 -2 -18 -4
1532259461681932 -1 -2 -1 -2 -1 -2 -3 1
1532259461733793 -1 0 -1 -1 -2 -2 -3 -1
1532259461788646 -1 0 0 -2 -2 -2 -12 8
1532259461839510 -2 -2 -3 -1 0 -1 -9 0
1532259461876411 -1 -4 -1 -1 0 -1 -18 -4
1532259461899350 1 -1 -2 0 0 -1 6 0
1532259461944231 0 -1 0 -2 -1 -2 2 0
1532259462011052 -4 -1 -2 0 -1 -1 8 2
1532259462086865 1 1 0 0 0 0 3 -7
1532259462138709 -1 -2 0 -1 -1 -2 6 -3
1532259462213510 -1 -1 0 -1 0 0 2 -2
1532259462289307 1 -1 1 1 -1 0 13 13
1532259462364107 -2 2 1 2 1 -1 -3 1
1532259462379067 -1 0 0 -2 0 -1 -12 -14
1532259462431926 0 -1 -1 -1 0 -1 4 7
1532259462453879 -2 0 -1 0 -1 -2 -2 -12
1532259462506726 1 -1 -5 -4 -2 -3 0 1
1532259462528667 -1 -1 3 15 -2 -4 -1 -6
1532259462627403 7 3 -1 23 -2 -2 2 55
1532259462656325 -1 -1 4 -10 -43 6 0 12
1532259462731126 -7 -1 2 -4 6 -16 -9 -20
1532259462791963 -2 2 2 1 5 -7 6 1
1532259462843825 0 7 -1 -8 -70 4 2 2
1532259462956523 -2 -2 -2 -2 1 2 -34 -15
1532259463001403 -22 -6 -9 -12 -6 36 -7 2
1532259463069222 -14 4 -6 -7 -7 -11 12 10
1532259463137041 6 1 -3 -12 -13 -2 -13 2
1532259463233782 -2 -18 -7 -12 -1 -7 -3 0
1532259463323541 -4 -14 8 4 -2 13 4 -12
1532259463392361 -3 1 -3 -2 -6 23 -16 -10
1532259463421280 0 -6 -2 1 2 -16 -7 0
1532259463459178 -6 1 -2 -6 -4 -3 0 -5
1532259463490096 3 -8 -1 4 2 9 -1 3
1532259463526001 0 -1 -1 3 0 -9 -7 -3
1532259463580854 -2 4 1 -1 0 43 8 4
1532259463616758 0 -5 -4 -2 1 41 12 -17
1532259463744424 -3 -1 -3 -7 -4 2 -8 1
1532259463902003 -2 0 3 3 -4 -24 -3 -1
1532259463961841 3 -2 -1 -2 -2 -8 -1 1
1532259464043624 -2 -5 -4 0 -2 -4 -2 -5
1532259464096482 -1 2 -2 0 -3 -9 -10 -6
1532259464126402 2 6 -1 -5 0 6 4 8
1532259464171298 -2 4 6 1 2 -6 1 -3
1532259464194220 0 -3 -6 3 -2 6 -2 1
1532259464231122 -2 2 -1 0 -2 1 -1 -6
1532259464246082 -2 9 -1 -1 -1 0 21 1
1532259464283981 -2 -4 3 4 3 1 12 6
1532259464298941 -3 1 -2 -5 0 2 -30 0
1532259464366759 -2 0 -4 -2 -2 -6 -2 1
1532259464381719 3 5 2 -2 -1 -2 -5 1
1532259464433581 0 -1 -2 1 -1 -5 8 -4
1532259464456520 -2 -4 2 4 -4 0 -5 -5
1532259464509378 0 2 -1 -5 -5 3 -5 -4
1532259464592157 -3 0 1 0 -2 0 -2 -4
1532259464711837 0 -1 0 0 0 -1 -7 -5
1532259464726796 -1 1 -3 -4 0 1 2 2
1532259464756717 2 -1 1 -6 -5 1 12 8
1532259464801596 0 -3 -2 -1 0 -4 2 2
1532259464846476 -1 1 -2 0 0 1 -9 -16
1532259464861437 -2 0 -1 3 -1 -1 -2 -1
1532259464884375 0 0 0 -1 -1 -1 1 7
1532259464914295 0 0 -2 -2 0 -2 -2 -2
1532259464936237 -1 -3 -2 0 -2 -4 1 -5
1532259464989121 0 -1 0 0 0 0 -3 1
1532259465004081 -2 -2 -2 -1 -2 -2 -3 6
1532259465034001 -1 0 1 -2 0 -2 0 0
1532259465063921 -2 -1 -1 -1 0 -1 -13 -1
1532259465086876 -2 -1 -1 -1 -2 0 4 -5
1532259465138721 2 0 -1 -1 -1 -4 -3 4
1532259465191580 -1 0 0 0 -1 0 5 6
1532259465274358 0 1 -1 -1 -1 -1 6 -4
1532259465296300 -1 -1 -1 -1 -1 2 -1 -6
1532259465349159 -2 0 -2 -2 0 -3 4 0
1532259465423958 -1 0 -1 0 -2 -1 -2 2
1532259465476817 1 0 -3 -1 -2 -1 -10 4
1532259465514716 0 -2 0 -2 -2 -3 -17 -3
1532259465581537 4 -2 0 -2 -1 -2 4 1
1532259465611457 -4 -2 -1 1 1 1 2 7
1532259465686257 0 0 -2 0 0 -2 1 -3
1532259465776016 -1 -1 -1 -2 -1 -1 -5 -1
1532259465858795 0 0 1 1 -1 -1 -5 -4
1532259465911670 -4 -1 -1 0 1 -1 -16 -15
1532259466046294 -2 1 1 -1 -2 -2 -3 -7
1532259466106134 -3 -2 -2 -2 -1 -1 -2 0
1532259466391371 -3 -1 -1 -2 0 -2 2 3
1532259466533990 0 0 -1 -2 -1 0 5 1
1532259466601809 -2 -1 0 0 1 0 -12 5
1532259466623751 -3 -3 1 -1 -1 -1 11 5
1532259466668634 3 -2 -1 -2 0 2 6 15
1532259466691569 -3 -1 -1 -1 -1 -3 -7 -9
1532259466736449 1 -1 -2 -4 -2 -1 -5 -5

1532259466751409 -1 -1 -1 -2 -1 -2 -17 -19
1532259466819227 -2 -2 0 0 -1 0 7 14
1532259466871103 -2 -3 -1 -1 -1 -1 2 -3
1532259466894027 -1 -1 -2 0 -1 -4 3 10
1532259466931942 -1 -1 -1 -1 1 0 -20 -6
1532259466953900 0 1 -1 0 -1 1 8 11
1532259467028700 1 -1 -2 0 -1 -1 -2 2
1532259467043686 1 -1 -1 -1 0 -2 -3 -7
1532259467088566 -3 -1 0 0 0 1 11 1
1532259467104531 2 1 -1 -1 -1 0 -1 8
1532259467141425 -3 0 -1 1 -3 -2 -7 -2
1532259467208981 1 1 0 -1 0 1 4 3
1532259467238902 1 1 1 0 -3 0 0 1
1532259467253863 -2 -1 -2 -2 -2 2 8 6
1532259467283782 -2 -1 -3 0 -1 0 -2 5
1532259467321696 0 0 0 0 0 0 -1 -1
1532259467366575 2 0 -2 -1 -1 -3 5 3
1532259467389530 0 1 -1 -2 -1 -1 -4 -4
1532259467403485 -4 0 -2 -1 0 -3 -9 -17
1532259467426415 -1 0 0 -1 -1 1 -1 3
1532259467464314 -3 -2 0 0 -1 -3 -1 -1
1532259467486255 -1 -3 0 -2 -2 0 1 -9
1532259467509194 0 -1 1 0 0 0 8 7
1532259467539114 1 0 1 -1 2 1 -4 -3
1532259467561074 1 0 -2 0 0 1 -7 3
1532259467583994 0 1 -2 0 -1 1 0 2
1532259467613914 -4 -2 -2 -2 -2 1 -6 -5
1532259467636852 -2 -1 -2 -2 -2 -4 -7 -5
1532259467681733 -4 1 -2 -2 -1 -1 10 2
1532259467696697 -1 0 -1 0 -1 1 -1 -4
1532259467741578 -3 0 -1 -1 0 -2 -4 -3
1532259467778479 0 -2 -2 -2 0 -1 -3 -3
1532259467794453 1 -3 0 -1 1 0 7 -13
1532259467839317 -1 0 -2 -2 -3 -4 -9 -3
1532259467869237 -1 0 -2 0 -1 -1 -3 -3
1532259467906137 -1 0 0 -2 -1 1 5 9
1532259467921098 -1 0 -2 -1 0 0 -11 0
1532259467951018 0 -1 -2 -3 -3 -3 -10 -4
1532259468003877 -2 -3 -2 -2 -2 -1 3 1
1532259468026815 -3 -2 -2 0 0 -2 -6 1
1532259468041775 1 -3 -1 -1 -1 -1 -4 2
1532259468078677 -1 -2 -2 -1 -1 -1 8 4
1532259468101615 -2 -1 -2 1 1 1 3 -4
1532259468123557 1 -2 -1 -2 -1 0 -1 3
1532259468162453 1 -1 0 1 1 -1 0 12
1532259468191375 -2 -2 -1 -2 -2 -2 -1 -5
1532259468223290 0 -1 0 -2 2 -1 -1 -5
1532259468251215 -1 -1 -1 -1 -3 0 4 6
1532259468319035 1 0 -2 0 1 -2 0 1
1532259468401813 -4 -4 -2 -2 -1 0 0 3
1532259468446710 1 -2 -1 0 -2 -1 -3 -2
1532259468544431 -3 1 0 0 -1 -1 7 9
1532259468567370 -4 -1 -2 1 0 1 4 2
1532259468626212 -3 -6 0 0 0 -2 -2 -9
1532259468687050 -4 -3 0 -2 -1 1 5 -2
1532259468731930 0 -1 -1 1 -1 -1 -2 11
1532259468776810 0 0 -1 -1 -3 -1 -5 -1
1532259468821690 -1 -2 0 -2 0 0 4 -7
1532259468873551 0 -1 -2 1 -2 -1 -2 0
1532259468888511 -2 -2 -1 -3 -2 -2 -1 5
1532259468926410 1 -1 0 -2 -2 -2 0 0
1532259469009188 -3 -2 -1 0 -1 -1 -13 -2
1532259469061050 -1 -1 -1 0 1 -1 -3 -6
1532259469098949 0 -1 -2 -1 -1 -3 8 6
1532259469113908 1 -1 -1 0 0 -1 6 6
1532259469166767 0 -3 -1 0 0 0 -6 -9
1532259469188708 -2 -1 1 1 -1 0 2 15
1532259469226607 -1 1 0 0 -1 -2 -3 0
1532259469248548 -2 -1 -3 0 -2 0 1 -5
1532259469301409 -2 -1 0 -1 0 -4 -3 -6
1532259469369225 1 -2 -5 -3 -3 -15 -3 1
1532259469406127 2 -1 0 -6 1 6 -1 0
1532259469437045 -1 -1 3 7 -1 -3 -2 1
1532259469482921 2 -1 -1 2 0 -2 -1 0
1532259469533785 -1 -5 -4 -4 -3 -11 0 -3
1532259469571684 -2 -2 0 0 22 11 -2 0
1532259469616563 2 -4 -1 4 44 22 8 3
1532259469646484 8 -2 -2 -2 -32 -9 -23 -8
1532259469676404 -3 1 0 3 3 -10 6 10
1532259469714303 1 -3 -1 -1 -16 -14 -1 2
1532259469767161 2 -1 -5 -5 8 -1 -13 -9
1532259469796084 2 4 -1 -4 8 4 5 8
1532259469841962 0 -3 -2 1 8 0 16 5
1532259469909780 -1 -2 -8 -2 2 0 -17 18
1532259469961641 -1 -7 -2 1 3 19 -1 -11
1532259470007519 -1 -2 2 -8 -3 -8 6 -5
1532259470021481 3 3 9 -1 0 2 3 11
1532259470074340 1 0 -4 -10 0 9 -1 -2
1532259470171081 0 -5 -3 -3 -16 -24 -4 2
1532259470261839 2 1 -1 2 1 -2 -3 2
1532259470298740 0 -3 -1 0 0 1 11 5
1532259470336648 -3 -4 -3 -2 -2 -1 0 7
1532259470381519 2 2 1 2 -1 5 9 -4
1532259470427396 0 -10 0 -5 2 -7 8 4
1532259470464297 -3 -3 -4 -2 -2 -3 3 5
1532259470524137 0 5 5 2 6 -3 6 7
1532259470613897 0 4 -2 -4 -9 -19 14 16
1532259470735572 -5 -3 6 5 -3 -15 0 -7
1532259470763496 -3 3 -5 -2 -3 10 -4 -13
1532259470816356 0 -3 -3 -6 1 5 2 5
1532259470846276 -3 1 -1 -2 8 1 -2 -7
1532259470891156 0 -1 2 1 -1 7 -6 -6
1532259470929054 -1 4 0 5 8 4 2 0
1532259470966953 1 1 1 0 1 9 10 4
1532259470981913 1 -14 3 4 -3 -9 -7 1
1532259471056713 -3 -3 -5 -9 -3 1 -4 -3
1532259471101593 4 2 -6 -1 1 -2 5 5
1532259471131512 -4 -1 4 -23 -11 11 -9 -6
1532259471176393 0 -1 -1 1 1 -11 -1 -7
1532259471206313 4 9 3 5 2 -5 3 1
1532259471244211 -4 -3 -11 -8 -1 -11 -3 0
1532259471259172 0 0 0 -2 -1 7 1 -3
1532259471393812 20 28 0 3 9 -5 0 3
1532259471491550 -4 -7 -1 -1 1 -1 3 -5
1532259471553400 -2 -2 0 1 -1 -1 0 -1
1532259471596270 -1 -2 0 -10 -8 2 -1 -1
1532259471656110 -2 -1 4 5 -3 4 0 -3
1532259471694008 0 1 5 15 13 0 1 2
1532259471813688 3 -2 -3 -11 -14 -2 -5 -1
1532259471873529 -3 -1 0 0 2 11 -1 -5
1532259471934366 0 -2 -1 1 4 -4 7 3
1532259471986228 -2 0 -3 -5 -3 5 3 -2
1532259472076985 -2 -3 -1 0 -1 0 -2 -2
1532259472143806 0 -2 -1 1 -1 -3 1 0
1532259472218606 -2 -1 -2 -4 -2 -3 -7 -4
1532259472279443 -1 1 1 2 0 -4 -6 -7
1532259472294403 -4 -3 -2 -4 2 2 3 -7
1532259472452979 0 -1 -2 1 -1 -2 -16 -1
1532259472496861 0 -1 -1 -1 -3 -1 1 -2
1532259472526782 0 -1 -3 -4 -9 -2 1 -1
1532259472624520 -1 0 0 0 2 1 1 -3
1532259472699321 1 -1 0 -1 1 0 0 3
1532259472744200 0 1 -1 -2 0 1 5 2
1532259472901779 2 0 1 0 2 -1 -2 1
1532259472931699 -1 0 0 0 0 -3 -5 0
1532259473029438 -1 -1 -2 0 -3 -1 1 0
1532259473074318 0 0 0 -1 0 1 1 -20
1532259473193998 0 -1 0 -2 -9 -1 -5 13
1532259473283758 1 -1 -1 -3 -1 -3 -7 -6
1532259473366536 -1 -1 0 1 0 1 -2 1
1532259473479235 -2 -1 -2 -1 -1 -5 -36 -9
1532259473546056 -1 -1 1 2 1 3 6 0
1532259473598914 -2 -1 0 -3 -3 -1 12 -3
1532259473621854 1 0 -2 -1 4 3 6 1
1532259473643794 1 -1 -3 -3 0 1 -6 3
1532259473673715 0 0 -1 -2 1 -1 -3 5
1532259473703634 -1 -1 -1 0 -9 1 5 -3
1532259473741534 -1 0 -1 3 -1 -1 -5 1
1532259473794392 1 1 2 -1 0 0 -6 0
1532259473869192 2 0 -1 0 2 -3 -11 -3
1532259473891134 0 1 0 1 -4 1 -4 -2

1532259473922055 0 -3 -3 -5 -4 -3 -4 -19
1532259473951971 -2 1 0 -3 -1 0 -6 -3
1532259473981890 -2 -2 -1 -4 -8 -1 1 -6
1532259474003832 -1 -1 0 4 4 1 8 3
1532259474018792 -2 -1 -2 -5 -2 0 1 1
1532259474056691 -2 -3 -2 -2 0 0 5 4
1532259474101571 0 0 -2 -4 2 0 3 -3
1532259474116530 0 0 1 0 0 -1 -7 0
1532259474154435 2 -2 -2 -1 3 -1 -1 3
1532259474200306 -1 0 0 3 6 -2 1 1
1532259474259149 0 -3 -1 0 -2 2 10 4
1532259474274145 0 0 -2 -2 7 -2 -3 -2
1532259474296085 -1 -1 -2 -3 -1 -2 6 -1
1532259474348945 0 -2 -1 1 -1 -1 1 5
1532259474410779 -1 2 1 1 -1 -1 -6 -9
1532259474446683 -2 -2 -1 0 -2 -1 -1 -3
1532259474506538 -2 0 -2 -3 0 -2 -6 5
1532259474544437 1 -2 0 -1 2 -1 0 8
1532259474559397 -1 -1 -1 -2 -3 2 9 1
1532259474589317 -1 -2 -1 1 -1 -2 -6 -3
1532259474604278 -1 0 -4 -3 1 -3 -11 2
1532259474619237 -2 -1 -2 -1 0 1 10 -3
1532259474656138 -1 -2 -3 -3 0 -1 -6 -2
1532259474687055 -2 -1 -1 0 -6 -3 2 -2
1532259474708997 0 -2 -1 1 -2 2 2 -2
1532259474731936 1 -2 -1 -2 2 -1 2 4
1532259474746896 -1 -2 -1 7 1 2 0 -1
1532259474761855 -2 -2 1 -2 -2 -2 2 1
1532259474783797 -2 -1 0 -1 -9 -1 -4 -7
1532259474806735 -2 0 0 -2 0 -1 -6 -23
1532259474851615 1 0 -1 0 2 -1 -2 0
1532259474873557 -1 -3 1 -1 0 0 -1 2
1532259474904474 1 -2 -1 -4 -2 -1 -8 0
1532259474926416 -1 0 -1 4 0 1 5 2
1532259474971296 -1 0 -3 1 -1 -3 -5 -1
1532259475001216 0 -2 -2 -3 -2 -2 2 1
1532259475039114 -2 -1 -2 -3 3 0 4 6
1532259475061056 3 1 -1 -1 0 -1 8 7
1532259475128874 0 0 -2 0 -2 -3 -9 -3
1532259475143833 -1 0 -1 2 -1 -2 0 0
1532259475173762 -1 0 -1 2 -6 -1 4 5
1532259475211653 -2 1 -1 -1 -1 -1 -3 -4
1532259475241573 -2 0 -3 -5 -2 3 -3 2
1532259475271492 1 -1 0 -1 -2 -1 0 -8
1532259475294432 -1 0 -1 -4 -2 -1 -3 1
1532259475339312 0 -1 0 -1 0 1 -4 -10
1532259475384191 1 0 -1 -3 -5 0 -4 4
1532259475429071 0 0 0 3 0 1 0 -1
1532259475466970 -2 0 -2 -2 0 0 -4 6
1532259475488911 1 -1 0 2 0 1 4 -6
1532259475518831 0 -1 -2 -1 -2 -1 1 2
1532259475541770 -2 2 -2 -1 -1 -3 0 2
1532259475563711 1 -2 -1 -1 0 -2 -1 -5
1532259475586650 0 0 -1 0 1 -1 -2 -1
1532259475623551 0 -3 0 0 -1 2 -7 -2
1532259475691370 -3 -4 0 -2 -2 -2 7 -9
1532259475714308 0 -1 -1 -2 -2 0 0 2
1532259475744229 -2 -1 -1 -1 -1 1 0 -3
1532259475766170 -1 0 -1 -3 -2 -1 0 0
1532259475781130 0 -1 -2 0 -1 -1 -1 1
1532259475827009 -1 -2 -1 -2 -2 0 6 13
1532259475848949 1 1 -1 1 -2 -1 4 7
1532259475886852 0 -2 -1 -3 -2 -2 -1 -3
1532259475901806 -1 0 -2 -1 -1 -2 1 -2
1532259475938709 -2 -2 -2 3 -1 -2 2 2
1532259475961647 -3 1 0 -1 0 -3 1 9
1532259475983589 1 -1 -1 2 2 0 0 0
1532259475998549 -3 -2 0 0 1 -2 0 -2
1532259476036447 -1 -1 -1 1 6 -2 -3 0
1532259476096287 1 -1 -1 -1 1 1 4 7
1532259476126207 -1 2 5 -3 -6 -17 0 -12
1532259476164106 -2 0 -1 10 2 0 -11 -12
1532259476187044 -1 0 1 -8 -4 12 -1 3
1532259476238906 0 -5 -3 -12 -1 2 5 -2
1532259476283786 1 2 13 -2 -1 -10 5 3
1532259476336645 0 3 7 -8 1 -9 0 0
1532259476434383 1 1 3 13 -9 24 7 0
1532259476456324 0 0 0 0 8 3 -6 3
1532259476516164 0 2 -4 -4 1 -10 1 -3
1532259476561044 11 -1 0 2 1 0 0 10
1532259476606922 0 1 -2 1 0 3 -17 -21
1532259476628863 -5 -2 0 4 5 -4 9 -2
1532259476658783 1 -2 2 1 1 -18 -10 3
1532259476718622 -3 -2 -2 -10 -3 2 1 4
1532259476733583 0 -8 2 6 -1 6 -3 3
1532259476765498 -1 -8 -13 -16 -10 5 2 -12
1532259476846282 3 8 19 23 3 16 7 -2
1532259476884180 -5 -8 -6 -4 -4 28 -6 -2
1532259477086639 -1 0 -4 -1 -5 -3 -4 9
1532259477154457 -1 -1 0 4 -1 3 -14 -5
1532259477214332 -2 4 -3 -4 -4 3 -5 -6
1532259477251198 -2 4 -3 2 -1 -1 -11 -8
1532259477281118 -3 -9 -9 -7 -3 -2 10 1
1532259477312036 -3 -6 -3 -6 -3 -10 -4 -6
1532259477363897 0 -1 3 -8 -5 -10 -13 0
1532259477416756 -2 4 4 22 14 -27 -2 1
1532259477498538 -4 3 2 7 2 -18 21 -7
1532259477589301 -1 -11 1 -4 2 3 -9 1
1532259477641162 1 1 -3 1 2 2 2 3
1532259477701999 -1 -4 3 6 8 0 0 -7
1532259477731920 0 9 -6 -11 -34 -4 6 10
1532259477776800 -3 18 2 -1 -4 0 5 -4
1532259477791760 -2 -3 -4 1 -4 3 11 -1
1532259477828661 -1 -13 1 9 7 18 3 -2
1532259477858581 -3 0 -5 -11 -9 -4 -2 0
1532259477881520 -1 1 12 2 -2 7 4 -6
1532259477911440 -2 3 39 0 3 0 -5 -1
1532259477956320 -4 -5 10 -2 -17 -10 -9 -5
1532259477994219 1 -3 -13 -7 -10 -3 2 5
1532259478016159 -3 -4 -11 -8 -6 -1 -5 -8
1532259478069017 -3 -2 2 -1 -1 -4 12 2
1532259478113898 1 0 -3 -3 -4 0 -14 -7
1532259478136838 -1 -4 -3 -6 2 -1 5 2
1532259478218618 -1 -5 -2 -1 -1 -4 0 -3
1532259478324336 0 -2 -2 -4 -8 -13 3 0
1532259478406117 -2 -3 -3 -7 -3 -1 0 -5
1532259478451994 -2 1 -1 -1 -4 0 5 6
1532259478488896 -1 0 1 -1 -10 -2 -3 -16
1532259478518815 0 -3 -4 -3 -5 -3 5 4
1532259478533776 -1 -1 0 -3 -5 -4 1 1
1532259478556714 -3 0 -1 0 -4 -1 10 4
1532259478601597 0 0 0 3 4 -2 0 1
1532259478669413 0 -1 0 3 3 2 1 5
1532259478691354 -1 1 1 0 -6 0 -6 4
1532259478744219 0 -1 -2 -2 4 -5 -9 2
1532259478804060 -1 -1 -1 0 -1 0 -8 -4
1532259478918762 1 -3 -3 -2 -4 -2 1 3
1532259479029457 0 1 -4 3 1 -2 3 1
1532259479081318 0 -1 -2 -3 0 -2 7 0
1532259479156118 0 -2 -2 -4 0 1 9 4
1532259479179057 -1 -1 2 2 1 1 4 -8
1532259479216971 -1 -1 0 2 -1 -1 -4 6
1532259479718614 0 -2 -2 -2 -3 -1 1 6
1532259479809378 -1 0 1 -3 1 -1 -1 4
1532259479861233 0 0 -1 -1 -3 -2 3 1
1532259480124529 -4 -3 -2 -3 0 -4 -13 -12
1532259480206310 1 -2 -2 2 1 2 2 -1
1532259480333969 -1 -3 1 -3 -4 -2 5 0
