1532264597447582 2 1 0 1 8 7 1 0
1532264597462544 3 4 -1 1 -1 -17 4 3
1532264597500441 -1 -8 -2 -6 -23 -21 -3 1
1532264597523380 2 6 0 -4 7 -22 -5 0
1532264597598180 -2 -2 -1 -7 0 -20 -3 -1
1532264597635081 -1 -1 -2 3 1 -14 -6 -1
1532264597695918 0 0 -2 0 0 0 -1 -3
1532264597717860 -1 -4 -6 -5 -4 6 0 -1
1532264597740798 -1 -2 -1 -2 -6 -10 -3 -2
1532264597762740 -3 -1 -1 0 1 -3 -9 -1
1532264597792660 -1 -2 -3 -5 -2 1 1 -1
1532264597822579 0 -1 -2 -3 4 -6 1 -1
1532264597852500 -1 -2 0 1 -2 0 -5 0
1532264597912339 1 2 0 -3 -6 1 -1 -1
1532264597928297 -2 -3 1 1 -6 7 -1 0
1532264597980158 3 1 9 14 7 -22 -10 1
1532264598033017 -5 -4 -6 -12 -6 61 4 1
1532264598054958 -4 1 0 -6 -1 -33 -2 0
1532264598084878 -3 -4 -12 -23 2 -9 -1 1
1532264598115796 -2 -2 -5 11 17 -8 0 -5
1532264598130756 -6 -5 -16 -32 -42 -10 -5 -5
1532264598167657 2 9 11 -4 -28 -22 8 4
1532264598190606 1 26 -2 8 9 -19 1 -1
1532264598220516 -5 27 -2 9 1 -19 -7 -9
1532264598265396 0 -24 -13 -11 28 28 1 -1
1532264598288334 4 -11 3 3 26 33 6 5
1532264598333214 -3 2 -3 -8 -7 19 5 1
1532264598355156 -3 11 8 -8 -25 -12 -8 -5
1532264598393054 -3 4 4 -4 8 43 -10 -4
1532264598444915 -4 -16 10 -15 29 -26 7 0
1532264598467854 0 11 -8 12 28 45 -5 -1
1532264598505753 -1 -34 2 9 -9 21 -4 1
1532264598542654 -2 -9 5 -13 -7 -18 1 -1
1532264598595513 5 1 1 -9 41 41 -9 -6
1532264598648386 -4 -19 -6 -17 -27 -42 -32 -28
1532264598693252 1 28 5 -8 -7 -4 3 6
1532264598760073 2 22 9 -9 -11 -9 1 1
1532264598835880 0 -2 -4 -5 0 -13 -5 -2
1532264598880750 1 -18 -1 -1 -12 -11 -12 -3
1532264598895710 -1 -1 -7 0 11 13 14 -4
1532264598925643 2 33 33 1 -8 -4 -13 -9
1532264598940601 -8 -21 -19 -1 10 1 -1 -4
1532264598970510 -1 -17 -10 -2 -1 -1 -8 -2
1532264599000430 -1 15 4 0 7 5 1 0
1532264599022371 -2 -20 -7 -10 -15 23 -1 -5
1532264599045310 -1 8 -8 -7 -19 -10 -1 1
1532264599068248 0 8 2 -4 -1 -10 0 2
1532264599113129 -3 -4 -4 -10 33 -1 -14 -7
1532264599164991 3 8 3 7 -11 10 7 1
1532264599181945 -4 -1 -1 -2 -7 -10 -12 -5
1532264599210867 -2 -1 -3 6 0 -5 -3 0
1532264599225827 -3 -4 -2 2 -21 -6 -17 1
1532264599247769 0 -3 -1 -1 -1 -12 9 3
1532264599270707 0 1 -4 -15 -21 23 2 -2
1532264599285667 1 -5 -3 -18 4 -29 4 6
1532264599300627 -1 4 -1 -8 -10 36 -6 -6
1532264599330547 4 5 0 17 12 0 1 -1
1532264599352489 2 -3 -4 -9 -2 -8 -12 -3
1532264599390388 -1 1 1 0 -14 42 -1 -4
1532264599420308 1 3 0 0 -8 -23 -2 -1
1532264599443246 1 -3 0 -2 -30 -69 13 0
1532264599480147 -4 -5 -5 5 16 -5 -7 0
1532264599503085 0 0 -2 -5 -1 18 -7 -6
1532264599518046 -4 -4 -6 0 15 27 0 -5
1532264599562925 0 1 1 -4 -15 -18 -4 1
1532264599577886 1 -2 0 -1 7 16 2 2
1532264599592846 -2 -2 -6 -3 20 -2 0 0
1532264599607806 -3 -3 -1 -2 15 20 -3 -1
1532264599630745 0 -4 -4 0 -5 -17 -2 -1
1532264599652685 -3 -3 -2 4 -8 -2 -2 -2
1532264599667646 -1 -3 -1 -3 10 39 5 -2
1532264599690598 0 -1 -2 -13 -13 -6 -4 -2
1532264599712528 1 1 1 -3 3 15 -1 0
1532264599735465 0 1 -2 -3 -7 -21 -1 1
1532264599758404 -1 0 1 -3 3 14 10 0
1532264599772366 3 0 0 0 3 2 -2 -1
1532264599795305 -1 1 2 0 16 -1 5 3
1532264599840184 1 1 1 4 -1 14 5 1
1532264599893043 2 1 -3 12 9 -5 6 9
1532264599908003 0 -1 8 18 -33 7 -6 -12
1532264599937923 1 -1 2 17 9 -6 18 11
1532264599967843 -3 0 2 -12 -3 0 -15 -4
1532264599990782 -9 -4 1 -5 -6 21 -10 -9
1532264600012723 17 -6 -8 1 10 22 -3 -5
1532264600042643 -16 -29 -6 -3 -25 -9 14 -1
1532264600057603 -12 -15 1 6 6 4 -3 -2
1532264600087523 8 1 -3 -3 -16 -16 -10 1
1532264600110462 5 -2 2 -5 6 4 6 7
1532264600125422 2 6 0 9 26 21 -5 8
1532264600170302 -3 6 -1 -4 -14 -19 -2 -1
1532264600185261 3 -14 1 -1 16 10 6 4
1532264600230142 9 11 6 6 18 17 1 19
1532264600245102 27 -20 -14 -2 9 8 12 37
1532264600283000 -16 18 -1 -13 -20 -9 19 -23
1532264600350819 -91 0 -2 -20 14 -8 -4 -32
1532264600492440 12 -7 1 8 -70 -13 5 -19
1532264600515379 -4 -2 3 11 -19 -2 0 10
1532264600598158 -1 1 3 -8 -15 6 10 7
1532264600620099 -5 -5 -2 0 3 -8 -1 -5
1532264600635059 -17 -4 -7 -17 -35 1 20 -4
1532264600687917 2 -1 -4 -12 -28 22 -23 1
1532264600725832 10 3 12 61 65 32 2 3
1532264600845496 -1 -2 -2 -3 13 -13 -9 -2
1532264600875422 -4 -2 -4 -5 22 -7 -11 -5
1532264600928281 -15 -2 1 10 27 15 23 -3
1532264600950222 -11 -2 -3 -8 24 43 -7 -7
1532264600980153 11 -1 -1 -10 -4 -18 -12 -2
1532264600995114 2 5 3 5 -35 10 8 -6
1532264601092851 -10 -6 -7 -15 -9 -16 -6 -21
1532264601152692 12 4 1 -9 5 10 4 -7
1532264601182612 -12 -4 -2 3 1 -3 -9 -10
1532264601220510 1 -4 -3 2 7 0 9 -1
1532264601257423 33 -4 -4 -3 -6 -7 0 17
1532264601272372 -4 -6 -2 -1 1 -3 0 6
1532264601318250 4 -12 -15 3 -1 -3 8 4
1532264601378089 -3 -1 43 2 -2 8 17 -1
1532264601400030 -4 0 5 -9 -3 20 -2 -2
1532264601445909 0 17 10 -6 9 -19 1 1
1532264601467848 1 17 0 -2 3 6 5 2
1532264601497769 -2 0 0 -6 7 9 1 -2
1532264601527689 -1 -1 -3 -9 7 -2 6 3
1532264601565588 -2 -30 -10 2 -4 5 -8 -2
1532264601587529 0 1 15 1 7 33 7 0
1532264601602489 0 -2 6 -4 -16 2 3 0
1532264601625428 -1 -7 -4 -2 12 -6 0 -2
1532264601655353 -5 0 -5 -4 -16 -34 -8 -5
1532264601678293 -1 -1 3 8 -19 9 -2 -1
1532264601715205 0 1 -2 -1 0 -2 3 -1
1532264601738144 4 12 13 6 14 6 0 5
1532264601768064 -8 7 3 2 10 2 -15 -1
1532264601797983 -1 7 1 2 -9 -23 -10 9
1532264601850841 -5 21 7 1 32 2 -2 -10
1532264601887743 2 -11 -2 8 18 33 20 -8
1532264601940623 -2 7 10 5 -1 -45 -24 -11
1532264601955562 -3 -8 -11 -1 -4 3 -8 4
1532264601992463 -7 26 -1 -1 16 25 33 6
1532264602007424 10 -3 6 -4 4 11 14 -6
1532264602038358 5 -9 -7 4 3 17 8 4
1532264602053304 10 3 1 -9 21 -13 -15 6
1532264602098180 -7 -14 -13 -10 -11 -32 -27 5
1532264602120122 2 17 16 7 10 5 13 -4
1532264602158039 -1 -36 -5 -2 -24 6 15 1
1532264602172980 1 -7 -5 -3 -4 -13 -7 -2
1532264602217860 -1 1 8 -1 5 -28 3 0
1532264602270720 -1 3 -6 -5 -51 -15 -3 -9
1532264602292660 0 2 12 1 -23 0 -2 -1
1532264602322581 -1 14 2 -1 4 18 7 -15
1532264602367461 6 -6 -18 -11 -3 16 -3 -3
1532264602382421 16 10 -12 -21 3 -4 0 -3
1532264602398378 6 2 -4 -23 -5 -8 13 2
1532264602420320 4 -7 3 -2 9 1 1 5
1532264602443261 32 11 3 24 14 3 -17 -3
1532264602465200 19 -18 -6 3 -7 1 -10 18
1532264602495119 1 -17 -24 -8 2 -3 13 10
1532264602533022 -15 6 7 29 3 2 6 -13
1532264602547978 -19 -18 -27 -6 -4 -7 3 -11
1532264602607818 5 -5 -1 12 2 -11 -17 -10
1532264602630757 0 23 17 -7 -39 -12 -4 -8
1532264602682617 0 -27 -16 -19 21 -3 -44 -6
1532264602727498 -23 14 104 10 7 0 -7 -4
1532264602765396 12 -4 -72 -9 -2 -4 49 8
1532264602781353 -5 -36 -37 -1 0 -13 31 6
1532264602810277 -3 -99 -109 -14 10 1 -53 -12
1532264602848175 -11 28 18 1 34 8 -8 8
1532264602908015 -8 -38 -10 -7 -12 11 0 -5
1532264602937935 3 36 9 -3 3 -12 12 10
1532264602960878 -5 -51 -1 -3 -2 -6 14 4
1532264602997775 -9 25 44 2 -11 -22 4 15
1532264603035674 -20 -16 -19 -4 -1 -26 0 -3
1532264603050634 -5 -51 -21 8 4 7 -35 -2
1532264603072576 6 8 53 9 0 -8 5 -2
1532264603117455 4 28 47 8 19 -15 6 5
1532264603163333 -2 30 21 7 -20 7 -12 -6
1532264603178292 -3 11 11 3 -1 5 1 1
1532264603215194 -1 -11 -17 -2 12 -2 33 5
1532264603260074 -7 20 27 -5 -5 -6 -5 4
1532264603283012 -1 -15 -16 -2 7 19 -8 -11
1532264603327892 3 4 0 -8 6 -5 -7 -1
1532264603395711 6 7 -7 2 7 7 27 -3
1532264603425631 -5 -15 0 -7 -13 -3 8 4
1532264603447572 0 7 -3 0 -3 -6 -8 3
1532264603477492 3 -5 -4 -2 -7 -5 0 -1
1532264603492452 -7 -3 -2 -3 0 0 7 1
1532264603530351 3 11 1 1 -2 0 -6 0
1532264603553289 -1 -2 1 3 0 3 15 0
1532264603590191 -1 -1 2 9 5 0 1 1
1532264603635071 -1 1 -1 7 -4 13 13 2
1532264603664991 0 0 -3 -5 -2 -4 2 2
1532264603702889 0 -2 3 7 -16 5 -3 -1
1532264603724831 0 0 -3 -7 1 -19 -5 -1
1532264603777690 -1 -2 -1 -2 -5 -9 2 -1
1532264603807614 1 -1 1 5 5 0 -8 -3
1532264603830548 0 0 3 9 7 19 4 -1
1532264603852490 -1 1 -1 -6 -37 -12 -5 -1
1532264603867456 -2 -2 -2 -4 2 -1 -8 -4
1532264603890409 0 -1 -1 -2 -1 -16 -8 -1
1532264603905361 0 -3 -3 -4 5 -2 -4 0
1532264603928299 -2 1 2 1 10 -10 -6 -1
1532264603950242 0 -3 -1 1 17 -7 7 0
1532264603980161 -3 -3 0 -2 -8 -1 0 -1
1532264604003100 -1 1 -2 3 -8 -12 -7 -2
1532264604025042 0 -1 -2 -2 9 4 0 2
1532264604063938 -1 -1 -3 -4 5 1 -2 0
1532264604084881 -3 -2 -2 -7 -3 -24 -5 -4
1532264604122779 -2 0 1 0 -2 -6 -2 -1
1532264604162673 -1 -1 0 4 11 9 6 3
1532264604175639 2 0 0 -3 -26 9 2 -1
1532264604227500 -1 -2 0 -3 -1 11 -8 -2
1532264604257442 -1 -2 -3 -7 -7 -19 -2 -3

1532264604310278 -1 -2 0 0 5 7 0 -2
1532264604334214 0 3 2 9 -1 -16 -2 0
1532264604378097 -1 -2 1 -1 -6 -19 -8 -2
1532264604400045 -2 0 -1 -1 -33 6 -4 -1
1532264604437937 -2 1 -2 -3 -5 -5 -3 -1
1532264604482818 0 -1 0 -1 -6 -21 -1 -2
1532264604505756 -1 -1 -1 -4 5 2 -8 0
1532264604572586 -2 0 0 3 -3 14 -6 -2
1532264604602497 0 -3 -1 -6 -26 6 -5 -1
1532264604640397 -1 -2 0 2 7 7 1 -1
1532264604670316 -1 -1 -2 -5 13 27 -2 -1
1532264604753104 -2 -3 -2 -14 -20 -14 -3 -2
1532264604804956 -1 -1 -2 -5 -2 -2 2 -2
1532264604827894 -3 -2 -4 -11 -4 -3 -1 -2
1532264604865793 -2 -1 0 -5 3 21 1 1
1532264604955563 -3 -3 0 -1 -8 -2 3 -1
1532264605022375 -3 -3 -1 -3 -7 2 -3 -1
1532264605120113 -4 -1 -3 2 16 19 3 -1
1532264605179953 -1 3 3 -1 -8 -4 -2 0
1532264605225830 -3 -1 -2 -3 -7 -7 -1 -1
1532264605270710 5 6 16 45 7 -21 1 5
1532264605330550 -2 -1 0 -16 -6 9 5 1
1532264605367452 -5 -4 -7 -12 -28 -5 -2 -2
1532264605398369 -1 -2 -8 -15 -6 13 5 -1
1532264605458209 -4 -6 -11 -15 -31 -40 -9 -5
1532264605495110 0 -3 -6 -10 -13 18 1 1
1532264605518048 -1 -1 -3 -2 1 2 -2 -3
1532264605533008 -1 1 3 17 -7 -12 0 -1
1532264605569910 3 7 12 17 -1 -5 4 0
1532264605607809 -3 -4 -5 -23 -6 31 -2 -3
1532264605645712 -2 -3 -4 -10 -27 -13 -10 -4
1532264605660667 2 -1 1 -8 -27 5 5 1
1532264605682609 -21 0 3 9 27 -30 -2 0
1532264605712528 3 -1 4 42 39 -9 -6 -2
1532264605727489 -1 -1 -7 -29 -19 -16 5 3
1532264605773365 -6 -3 -2 1 3 -17 -13 -6
1532264605810268 3 -1 -2 -14 1 -5 2 0
1532264605833206 -1 -2 0 -19 -61 -13 2 1
1532264605848166 -2 9 4 16 40 65 -6 -2
1532264605900027 2 -9 -6 -12 -9 7 7 1
1532264605915986 -2 14 -5 -12 -22 -36 -3 3
1532264605937926 -2 1 11 -22 -33 -20 0 -1
1532264605959867 -1 -13 -3 20 0 29 5 1
1532264605990786 23 7 2 17 6 -12 -4 3
1532264606035664 -13 2 17 -6 29 39 5 0
1532264606050625 -6 -6 -6 5 24 39 -6 0
1532264606087525 1 -8 -14 5 7 -11 5 4
1532264606140385 -1 -2 0 -5 -49 -16 2 -4
1532264606200225 -3 13 5 -4 -9 -18 5 4
1532264606223164 9 -5 -2 1 9 5 5 2
1532264606253083 -4 10 5 -3 1 9 1 1
1532264606268043 1 -4 -3 -1 48 60 0 2
1532264606312923 -4 -2 -4 -11 50 6 5 4
1532264606395702 -2 -4 -5 -6 17 -8 -10 -3
1532264606455542 -1 0 -2 -1 -37 -44 -2 0
1532264606477483 -1 -2 -1 6 -1 -2 4 2
1532264606492443 -5 -5 -5 -8 -5 -15 -6 -5
1532264606515382 0 0 -1 -1 16 -4 1 3
1532264606530342 -2 -1 1 5 -2 4 1 -1
1532264606545303 -2 -2 0 -2 10 -11 -3 6
1532264606568240 0 -1 -1 -3 -11 0 -9 -3
1532264606598161 -1 2 -1 -1 -3 -3 3 -2
1532264606620102 -1 1 2 4 8 -5 0 4
1532264606636059 -2 1 -2 4 3 -4 -10 -4
1532264606658003 -3 -2 0 -11 -2 -34 4 -4
1532264606679942 -6 -6 -3 -20 3 -7 -5 -6
1532264606732801 -1 0 -2 4 -3 9 -5 -4
1532264606762720 -1 -1 -6 -7 -6 4 -2 -2
1532264606807601 -2 -5 -8 -12 -9 0 -4 -1
1532264606822560 0 1 -3 -1 3 -9 -4 2
1532264606837520 -2 0 2 1 -4 -5 -2 -1
1532264606860459 1 1 11 13 -7 -14 3 0
1532264606890379 3 9 -7 7 -11 -51 -13 -1
1532264606912321 -7 -1 1 5 0 18 4 0
1532264606958198 3 2 -3 2 -30 13 4 4
1532264606989115 1 1 1 1 -3 10 -7 -3
1532264607010058 -11 1 -1 -5 -8 22 5 0
1532264607039980 3 -1 0 0 5 14 10 0
1532264607054940 0 -2 0 -5 -3 1 1 1
1532264607084859 4 -1 2 4 9 1 -3 2
1532264607107798 -1 -1 -3 -3 7 5 1 3
1532264607145696 1 0 2 1 7 -14 -12 -6
1532264607197558 -2 -4 3 -9 -9 18 -1 -1
1532264607212518 -1 -2 -4 3 -12 -12 2 0
1532264607235456 0 -2 -3 -5 -7 -11 4 -1
1532264607257398 -1 2 2 -3 -7 -3 2 0
1532264607280336 1 0 0 -2 -5 11 5 2
1532264607310256 -2 1 -1 0 -9 1 3 0
1532264607333195 -3 -2 -2 1 -16 -2 -4 0
1532264607355136 -1 -1 -1 -2 17 -12 -1 -2
1532264607414976 2 -1 8 15 -7 5 -1 -1
1532264607437914 1 3 0 3 -2 2 7 1
1532264607452875 -2 2 2 -20 -2 -12 5 -3
1532264607467835 -3 -6 -9 -4 2 -10 -6 -3
1532264607497762 -2 -4 -3 -4 -7 -6 -11 3
1532264607535654 -16 -19 -9 -7 -4 2 -6 -7
1532264607557594 5 2 0 3 -4 -8 -5 4
1532264607572555 -4 -1 -4 -6 -9 -2 -7 -2
1532264607602475 -21 -2 5 4 6 -11 5 10
1532264607617435 16 -7 -5 -3 -1 -13 2 9
1532264607647358 -1 2 1 1 -33 -37 5 4
1532264607670294 0 2 1 -7 -19 -27 -1 1
1532264607700213 6 -1 0 -2 -4 -3 -21 0
1532264607738112 -9 1 1 16 18 -8 -11 -5
1532264607760053 -23 -11 0 2 5 -6 -6 -3
1532264607782992 -20 -1 0 8 -12 -3 -15 0
1532264607804934 -8 -8 -5 -6 2 6 -7 4
1532264607827872 -9 -1 4 -3 21 42 -4 8
1532264607865771 7 -5 -12 -6 -14 -4 2 -5
1532264607880731 -2 -10 -10 -1 -23 -19 2 4
1532264607940590 -20 15 18 -3 -7 25 3 7
1532264607955531 6 -7 -7 -1 -15 -17 -1 3
1532264607977472 16 12 11 -12 -9 2 2 -1
1532264607992432 -4 10 8 -14 3 -1 5 0
1532264608015371 35 20 13 -1 13 -22 -8 -5
1532264608053270 -7 -4 -2 17 36 37 2 -2
1532264608135050 -20 -9 -7 -1 -10 1 -1 2
1532264608232789 -11 1 0 -2 -42 -48 -1 0
1532264608262709 0 -3 -2 -14 -18 11 3 -2
1532264608345488 -2 -1 -3 -9 -38 -50 -12 -1
1532264608398347 -2 -3 -6 -20 -44 -46 14 3
1532264608518027 0 0 -3 7 23 1 6 -2
1532264608592827 2 3 3 -9 1 -5 -5 0
1532264608720485 0 -3 -4 0 -12 -11 3 1
1532264608825205 -3 -1 -3 -8 -7 7 -5 -1
1532264608857120 0 -1 -3 -2 -7 -6 1 2
1532264608878064 2 15 -9 1 -4 -1 -1 0
1532264608937904 -3 -18 -1 -1 -2 -4 0 0
1532264608952864 -1 3 9 -8 0 -8 -12 1
1532264608990762 0 -1 16 1 -16 -3 3 -2
1532264609005722 -3 -2 0 -1 -9 25 1 -3
1532264609027664 -2 13 5 -6 -4 -3 -8 0
1532264609042624 -5 -19 4 0 3 2 0 -2
1532264609065562 1 -3 -7 -1 8 8 1 -1
1532264609102464 1 -2 1 -1 0 -15 -2 -2
1532264609132383 -3 -3 16 2 -1 -2 2 0
1532264609171280 -1 12 -6 -3 -9 15 3 -11
1532264609217157 4 0 0 -2 6 9 -1 0
1532264609253063 2 -30 -24 -2 -57 -41 -6 3
1532264609275003 -1 5 5 1 -16 -6 27 7
1532264609304923 0 3 -15 8 31 49 9 -2
1532264609357781 -1 -10 1 -5 -37 0 -5 -6
1532264609395680 -3 8 -10 0 25 14 -16 -4
1532264609425600 0 3 7 16 3 -10 -4 -1
1532264609486437 0 -19 -11 -5 19 35 11 -1
1532264609508379 3 8 5 -2 4 -6 4 -7
1532264609560239 -3 15 -2 3 30 -7 -5 -10
1532264609613098 -1 3 9 4 -18 24 4 -3
1532264609673936 -4 6 3 12 -9 -7 -66 -8
1532264609702858 -2 -11 -5 0 43 10 4 -2
1532264609725813 -1 9 -6 -2 5 -1 15 -3
1532264609786634 -4 1 1 -9 4 15 -9 3
1532264609830517 2 5 -4 -9 32 14 40 -12
1532264609867418 -1 -4 -5 1 -9 -12 -8 -2
1532264609890357 -3 2 6 -4 -7 -28 -22 0
1532264609920276 0 -10 -1 1 6 9 2 -2
1532264609944214 -26 9 -2 -5 -39 29 1 1
1532264609965157 4 -17 -7 -2 1 5 -3 0
1532264609988096 0 -16 -8 -16 6 -8 3 -4
1532264610047936 18 -64 1 -6 13 2 -14 0
1532264610069877 3 14 -34 -10 4 -6 -5 2
1532264610100794 -9 -5 -11 7 7 -9 -4 -4
1532264610130714 9 17 15 1 4 -3 -3 2
1532264610175594 12 19 26 14 -2 1 1 -2
1532264610220474 -15 12 37 -5 -16 -1 2 -11
1532264610250394 2 2 9 45 32 -2 3 6
1532264610273332 -2 -52 -28 3 1 7 -1 2
1532264610318213 8 -14 -6 7 0 -2 -13 -5
1532264610355114 0 28 -3 -19 -8 -2 7 0
1532264610414954 -7 3 -8 3 -31 -15 2 3
1532264610460831 9 5 3 1 -15 4 13 -1
1532264610482773 0 54 33 0 -6 -5 -7 -4
1532264610512693 33 95 -5 -11 -14 -8 -2 5
1532264610535631 -16 -69 -8 -4 -3 -16 -7 -1
1532264610557583 -10 -10 3 2 -4 -2 -7 2
1532264610580511 1 -11 -2 6 -13 -9 -1 0
1532264610602453 4 63 41 -3 -3 -6 12 6
1532264610625391 8 26 22 4 6 5 1 0
1532264610655311 -9 -8 -1 10 18 0 -5 0
1532264610700191 7 -6 -10 -1 0 4 -12 -1
1532264610730111 0 21 6 -5 -11 -3 -9 -3
1532264610768010 -1 1 -7 -1 -4 0 -14 -6
1532264610812890 3 -3 -6 5 -4 3 4 3
1532264610834831 -2 -14 -9 -8 -4 -3 -3 -3
1532264610880709 -1 -3 5 2 0 -1 1 -1
1532264610910629 2 4 -17 3 -15 -3 0 -1
1532264610955508 1 3 8 3 -15 -1 -1 0
1532264611000388 0 -5 -2 5 10 9 -1 -1
1532264611038287 0 -1 3 1 8 1 0 0
1532264611083167 -2 -2 0 -2 4 -2 -1 -2
1532264611149989 -1 -10 -1 2 -1 -17 4 -1
1532264611194868 -3 -6 -1 -8 -25 -38 -6 -3
1532264611232768 2 1 2 2 16 -10 -3 -2
1532264611262687 -3 -7 -4 -6 -15 -25 0 -2
1532264611300586 0 -1 0 0 -8 -16 12 1
1532264611330505 2 -3 -2 -2 -4 -2 0 1
1532264611367407 -2 -1 -2 -9 -3 -2 5 -1
1532264611390346 -2 1 -2 2 -6 41 -4 -2
1532264611420266 -4 1 -2 0 -3 -16 -5 -1
1532264611450186 -1 -1 0 -1 -6 -14 -1 0
1532264611510026 3 -1 1 2 2 -1 2 1
1532264611524997 1 -3 0 -1 -2 -1 -6 -2
1532264611547924 -1 -3 -3 -3 1 -9 2 -1
1532264611577844 1 1 -1 -2 -2 2 -7 -2

1532264611660623 0 -1 -1 -1 1 -2 -7 -3
1532264611712484 -1 1 -1 -4 1 1 -1 0
1532264611735423 -1 -1 -1 -1 -4 2 8 1
1532264611812218 0 -2 1 16 7 -1 -13 -1
1532264611848122 2 -1 -2 0 -2 -4 -1 -1
1532264611878041 -1 -1 -3 -3 -3 -4 -1 -2
1532264611899983 0 -1 2 0 0 -2 -15 1
1532264611945860 -1 -2 -3 -1 -2 3 6 0
1532264611990755 0 -1 0 0 2 -29 -8 -1
1532264612005708 1 1 2 -1 -1 -3 6 0
1532264612027677 -1 -1 -3 -2 -7 3 -4 -2
1532264612072557 -1 1 0 0 15 19 3 -2
1532264612095496 -1 0 -3 -2 1 -15 -3 0
1532264612141373 0 -3 2 3 3 10 0 -2
1532264612163314 0 2 -1 -1 -7 -38 7 3
1532264612200226 -1 0 0 2 -6 -23 0 -2
1532264612230135 -3 2 -1 -3 9 -2 1 -2
1532264612268034 1 5 5 12 17 -10 4 -10
1532264612289975 3 -5 0 -2 3 -2 0 0
1532264612312914 0 1 -1 -1 -3 5 0 -1
1532264612342835 3 3 5 21 14 -6 -1 2
1532264612372754 0 2 1 4 3 6 -3 -2
1532264612387714 -2 -2 -3 -6 2 -1 1 0
1532264612432594 25 44 14 -5 1 4 5 9
1532264612477474 -3 -10 -13 0 -3 -5 1 -18
1532264612500412 -5 -4 2 4 4 7 -2 -2
1532264612515373 -3 -8 -3 -6 -9 8 0 -3
1532264612545293 -2 -2 -2 6 19 -4 -3 -1
1532264612560252 -5 -5 -2 -8 -5 -16 -4 0
1532264612598151 -2 -2 -2 -5 -10 6 -2 0
1532264612620092 -1 0 6 11 7 -9 1 -1
1532264612650013 3 6 8 12 0 -20 0 1
1532264612702871 5 -3 -8 -2 0 -3 -2 -3
1532264612732791 -9 3 10 4 -11 -14 1 -2
1532264612762711 -3 -5 -12 -19 8 5 -1 -4
1532264612785650 2 3 0 7 5 30 1 3
1532264612867431 0 -13 -12 -12 -23 -10 1 1
1532264612890370 -2 -6 -8 -20 -20 -10 -1 -2
1532264612905330 -4 -11 -14 17 16 -2 -5 -4
1532264612943228 -4 0 -1 -2 -3 17 -6 -16
1532264612973148 -3 1 9 30 -33 -29 -11 -9
1532264612988109 -7 -15 -15 -24 1 -19 -11 2
1532264613003068 -2 3 3 -8 1 24 -4 0
1532264613032988 -3 -3 -2 -7 3 -4 -2 -1
1532264613047948 -3 -2 -3 -7 -9 -50 9 4
1532264613077868 0 -1 -4 -6 12 13 3 3
1532264613107789 -1 0 1 7 -13 -4 -3 0
1532264613137708 -3 -2 -2 -2 34 3 1 0
1532264613160647 -2 -2 -4 -9 16 -8 -5 -2
1532264613175607 -4 -4 -3 -4 -12 -4 -4 -6
1532264613265376 -2 -1 6 17 8 -9 3 -6
1532264613303265 -6 7 4 9 25 -49 8 1
1532264613378066 -5 -5 -1 -5 -79 -26 -2 -1
1532264613444887 7 10 6 6 -8 24 0 -5
1532264613482786 9 11 6 -1 -18 -13 -6 8
1532264613595484 -9 -12 1 19 -1 -18 -22 -1
1532264613617425 3 -5 1 -1 -14 14 2 12
1532264613723143 2 -4 -1 6 3 -60 3 4
1532264613753063 -7 -3 0 -4 4 12 -2 -6
1532264613775020 -2 -5 -2 1 -7 11 2 -5
1532264613797943 -4 -1 -6 0 2 9 9 -10
1532264613819884 1 -1 -4 -8 6 -1 -4 -2
1532264613865761 -6 -4 -1 -4 -1 1 0 -2
1532264613895682 1 5 -4 -4 0 -1 4 -4
1532264613947543 -2 -3 -2 -1 -2 -5 -20 -8
1532264614008380 2 -1 -4 0 1 -3 -1 -1
1532264614045282 -4 -2 -1 1 -3 -18 -13 -1
1532264614098140 -3 -2 14 13 16 -16 -8 3
1532264614135053 -22 -7 1 0 -18 -6 -2 -7
1532264614157980 1 0 -2 8 3 -17 -18 -8
1532264614202860 -4 -1 0 -8 -14 -24 3 -1
1532264614217820 -3 2 -1 -7 -21 7 -4 -1
1532264614262700 -6 -1 -1 -3 9 8 -1 -2
1532264614277660 -3 -1 -2 -1 -5 -6 -3 -1
1532264614300599 0 0 4 0 -23 -31 6 -1
1532264614337500 1 -2 -1 -3 -53 -38 8 -1
1532264614369415 -1 1 -1 1 0 -15 -1 -2
1532264614390359 2 1 -3 0 16 32 -1 -1
1532264614450199 -1 -2 0 -1 -5 -22 -3 0
1532264614524999 -2 1 -1 2 9 14 1 1
1532264614539959 -2 -1 -3 3 32 3 -1 -1
1532264614569879 0 -1 -1 -6 1 39 -1 -2
1532264614607778 -3 -1 -2 3 -16 -22 -11 -6
1532264614630716 0 1 0 4 8 8 17 -1
1532264614660636 -3 -2 -3 -5 -13 -49 5 -2
1532264614675596 1 0 0 9 10 2 -8 -2
1532264614705516 -2 -3 -4 -9 -6 -4 -9 -11
1532264614727457 1 2 3 2 5 0 -3 2
1532264614765356 5 -2 -3 -2 -2 -4 -6 -4
1532264614780316 -1 -2 0 -2 1 -1 -3 2
1532264614818214 -6 -4 3 5 7 -47 -3 4
1532264614863095 1 -4 12 11 -3 -4 -12 -5
1532264614899996 -1 7 1 0 4 50 -9 -5
1532264614929916 11 -5 -6 -1 25 -98 -10 -5
1532264614967816 -11 -4 -25 -4 -78 -52 -33 -3
1532264614997735 -5 7 -7 -9 -12 25 5 -2
1532264615035633 3 -9 3 -12 2 -14 7 5
1532264615065553 -22 2 -8 1 -11 4 -4 0
1532264615095473 -4 -4 -6 3 24 9 -4 0
1532264615132374 3 5 5 0 4 -4 11 10
1532264615155313 -1 -6 2 -3 -4 10 -6 -10
1532264615185234 15 -5 -6 -14 7 9 -3 -4
1532264615238092 -5 -2 0 -4 -2 -14 1 -3
1532264615260033 1 -1 -3 -10 3 18 18 0
1532264615304913 0 -2 -2 7 -2 -15 -12 -2
1532264615350790 3 -4 1 6 -17 -14 10 3
1532264615395671 2 -1 -1 -12 -77 -63 -1 -1
1532264615455510 -2 1 1 5 27 101 3 -2
1532264615485431 0 0 -2 -3 43 -9 -2 0
1532264615530310 1 2 4 20 5 -26 -15 -6
1532264615583169 -1 0 -6 -8 -3 -26 11 3
1532264615635030 -1 -1 -1 -5 -5 2 11 0
1532264615687889 1 0 2 10 11 11 6 4
1532264615807574 -3 -2 0 1 4 -40 4 -1
1532264615822529 1 2 -1 1 2 4 3 1
1532264615890348 0 -2 0 1 -2 -1 -4 -3
1532264615958173 1 1 -2 -3 -3 -1 -3 2
1532264616047936 0 -2 -1 0 -1 3 -17 -1
1532264616070872 -2 2 -2 -1 -3 -4 -6 0
1532264616085838 0 -1 -2 -1 -3 -3 -1 -2
1532264616115745 -2 -1 0 6 -29 -2 -1 -1
1532264616167606 -4 -8 -8 -12 18 2 -3 -4
1532264616190562 0 8 4 -9 5 16 2 -2
1532264616325185 -2 -7 2 6 9 8 5 -1
1532264616370065 -1 7 -9 -9 3 -4 -6 1
1532264616393003 1 -5 -2 -9 -5 1 3 0
1532264616430906 2 5 3 3 16 35 2 -5
1532264616482763 -2 -2 -4 -8 4 31 3 0
1532264616505702 -2 3 2 -1 17 -20 1 0
1532264616520663 -4 -6 -3 -4 -7 0 -9 -2
1532264616542603 -1 -1 -4 -2 -3 -15 2 0
1532264616580502 1 2 3 3 -7 -34 -4 3
1532264616602444 1 -8 -6 2 2 -6 2 2
1532264616648337 -3 3 2 -4 26 15 15 -2
1532264616670262 0 3 1 -4 -19 -35 2 0
1532264616717137 -6 11 20 -4 -45 -88 0 8
1532264616745062 2 -13 -10 3 25 5 9 4
1532264616774988 4 -8 -5 1 -9 -39 21 7
1532264616812880 3 0 -2 -2 -16 17 -7 -1
1532264616835819 -1 22 -3 2 5 7 -1 -9
1532264616889676 -3 3 -2 -9 -4 21 -31 -4
1532264616925579 -1 -5 5 4 9 -2 31 6
1532264617000379 3 10 6 -4 -7 -3 12 1
1532264617038278 -2 19 15 -5 -16 33 15 -11
1532264617060219 -2 4 8 5 12 25 16 5
1532264617143000 -1 3 -12 -1 -3 17 7 2
1532264617262678 -3 9 5 -11 -10 8 6 5
1532264617307569 -2 11 13 7 11 21 -3 0
1532264617330497 -3 -9 21 14 24 13 -1 1
1532264617360417 10 2 -8 15 -10 -4 -6 26
1532264617390357 -6 -4 3 -6 3 1 0 11
1532264617405296 3 -4 15 -10 -7 -10 -1 16
1532264617428235 -30 -15 -7 -9 -7 -2 -3 -18
1532264617480096 29 -68 -20 -10 7 -9 -5 -6
1532264617524977 3 7 -17 -6 -4 -9 -9 -23
1532264617600774 -4 -7 -21 -3 -2 -2 14 -2
1532264617637675 -29 -11 -12 -8 -2 6 -14 8
1532264617697515 26 46 48 2 -21 -12 11 6
1532264617742395 -18 -52 -114 -16 10 16 -17 -21
1532264617758355 -16 9 17 14 13 -34 -20 -12
1532264617780294 2 8 7 0 -4 -26 5 -3
1532264617795253 -12 -7 -5 -14 -13 -1 45 4
1532264617818192 -3 -4 -33 -4 1 10 27 1
1532264617855094 -29 -43 -33 2 -2 -18 6 0
1532264617892992 6 -20 -34 -9 -13 -17 -16 10
1532264617937872 20 -8 4 -9 -9 -3 13 18
1532264617982752 2 19 -8 1 0 -1 -14 6
1532264618050571 0 -2 -4 5 -31 4 -26 -6
1532264618095451 7 -20 -25 5 16 -4 -3 -3
1532264618140334 15 23 14 -1 -3 2 2 1
1532264618185211 -2 -3 -7 2 0 3 0 0
1532264618215131 1 -1 -9 -3 -3 1 0 1
1532264618253030 -2 6 11 -3 -3 -1 0 0
1532264618297910 -4 1 2 -2 3 14 1 0
1532264618320848 -4 -2 1 -4 1 13 1 0
1532264618342789 0 -3 -3 1 -2 -15 -1 0
1532264618365728 0 -3 -3 -6 -19 18 3 0
1532264618387670 2 2 2 9 4 -33 1 0
1532264618417590 0 0 -2 -8 -4 -11 -2 -1
1532264618440544 -2 1 -2 -13 -9 -13 5 0
1532264618485408 0 1 2 3 -4 -18 0 2
1532264618523307 2 2 0 2 -10 43 -4 1
1532264618553226 0 2 0 1 -11 -6 4 0
1532264618605088 3 -2 -1 1 -6 4 9 5
1532264618635007 2 1 1 -1 -1 4 -7 -2
1532264618687867 -4 -1 -2 -2 3 -4 -19 13
1532264618762667 -3 0 1 0 -9 -11 0 -2
1532264618807547 -5 7 -1 -1 1 -4 11 0
1532264618853424 -7 -4 -2 -3 -4 4 2 -1
1532264618867390 19 -4 0 1 -1 -10 -9 -8

1532264618995045 2 1 -2 -3 -3 -6 4 0
1532264619055898 -4 -3 1 0 -1 -2 -3 -1
1532264619086800 -6 -1 0 0 -1 1 2 -3
1532264619115723 0 -1 -3 -1 0 12 7 0
1532264619145643 3 -1 -2 -2 -1 -4 -10 -2
1532264619182544 -8 0 -1 0 -1 2 4 -2
1532264619205482 3 1 1 0 -2 0 -1 -1
1532264619220443 -7 0 -3 -1 -4 -7 -11 -3
1532264619242384 -4 -2 -2 1 0 -14 -3 -1
1532264619258341 -9 -1 -2 -4 -1 -2 -2 -4
1532264619273305 1 -1 -3 0 -1 -5 -2 2
1532264619295243 -8 -1 -4 -2 -2 1 -4 -1
1532264619310202 5 -1 0 -1 -2 1 -2 1
1532264619340123 -1 -3 0 -1 0 -1 4 2
1532264619363061 1 -1 1 -2 -2 -1 -1 2
1532264619385003 -2 1 -2 -1 -2 9 -2 -3
1532264619422901 -3 1 -1 -2 -1 -5 -1 1
1532264619460800 1 1 -1 2 0 10 4 0
1532264619475776 0 -2 -1 -1 -2 -5 -4 -2
1532264619497701 -3 -3 -3 -1 -1 -4 -2 -1
1532264619512661 0 -2 -3 -1 1 -2 0 -2
1532264619535600 -1 -2 -1 0 -3 1 6 0
1532264619557548 0 -2 -2 -3 -1 2 0 -1
1532264619572501 -3 1 -2 -2 -1 0 -2 0
1532264619595440 0 1 -2 0 5 10 0 1
1532264619617381 -1 -1 -2 0 -3 -7 3 -1
1532264619640320 -2 -4 2 3 -7 -3 -3 -3
1532264619685200 0 -1 4 0 -12 -21 -5 2
1532264619700160 -2 -3 -3 -10 6 -3 -1 0
1532264619738058 -3 -2 -4 -3 -3 13 -3 -4
1532264619782938 0 -2 4 10 9 26 8 2
1532264619812858 -3 -2 2 8 5 10 -5 -5
1532264619835797 0 1 3 11 2 11 1 2
1532264619857739 -4 2 4 6 17 5 -6 -3
1532264619880677 -2 -2 -4 -8 -11 0 -5 -4
1532264619910597 1 3 -1 -2 -6 -10 5 1
1532264619940519 0 -3 -2 -7 -12 1 -1 -3
1532264619962458 -2 -2 1 -5 -12 -3 0 -1
1532264619993376 -1 -3 -1 6 14 -1 -1 -1
1532264620015317 1 0 2 0 -29 -17 -2 -2
1532264620030277 1 1 -1 2 -5 -3 -2 -1
1532264620060197 -3 -1 -3 -1 11 10 0 -2
1532264620083136 0 0 -2 -5 7 7 3 1
1532264620105077 0 0 -1 0 -12 2 1 -1
1532264620120037 -5 -4 -6 12 14 16 -2 -4
1532264620142976 -3 -4 -14 -21 23 1 2 -2
1532264620164917 -4 -4 2 -8 -16 2 -16 -7
1532264620195842 -1 -1 6 15 19 -13 0 1
1532264620217776 -1 -3 1 20 -2 -3 0 0
1532264620232735 -1 0 51 51 -1 1 -2 -1
1532264620255674 -4 -3 -3 -9 1 -8 3 -2
1532264620270634 -2 -6 -7 -10 -12 1 1 0
1532264620292576 1 1 0 7 12 1 2 -2
1532264620315515 2 5 8 12 -13 -1 3 1
1532264620337456 -4 -6 -9 -17 1 -15 -9 -4
1532264620367376 -1 1 9 -9 -13 0 -10 -2
1532264620405274 -3 -3 -3 5 -2 -4 -4 -3
1532264620435194 -2 4 -3 -3 -4 -9 3 2
1532264620473093 -1 -3 0 -7 -17 -3 -2 -5
1532264620495034 2 0 7 8 -46 -19 3 2
1532264620509995 0 -9 1 11 3 -34 -2 -3
1532264620532933 1 9 -5 -10 35 26 -2 0
1532264620555872 -1 -1 -1 -4 -13 -32 -4 -3
1532264620585791 8 1 3 12 30 15 -6 -3
1532264620600752 3 -8 -3 2 10 24 4 1
1532264620637653 -8 -14 0 16 -12 7 -8 -3
1532264620652613 -2 0 -5 -1 -4 18 -7 -4
1532264620675552 5 18 9 -1 3 5 -2 4
1532264620705471 0 -2 1 34 35 -22 -5 -3
1532264620743370 -5 -15 -12 -6 18 9 8 0
1532264620773290 -5 30 23 0 34 10 -6 -6
1532264620810191 2 -4 4 -3 -27 -16 11 2
1532264620870031 -10 2 -8 -3 -24 -1 -4 3
1532264620937850 1 -6 -3 -7 -11 -10 5 1
1532264621012650 1 -7 -1 0 17 1 -1 -1
1532264621072490 -7 -3 0 -3 5 8 -2 -7
1532264621095429 1 -2 1 -1 1 6 -3 -1
1532264621148287 1 -5 -2 -2 1 -7 19 -1
1532264621178207 -4 -1 -2 -2 -2 1 0 -1
1532264621208128 1 0 -2 3 12 -3 -8 -2
1532264621297887 -4 -5 0 0 -3 -7 -5 -5
1532264621372695 1 1 -3 -4 1 -2 1 -5
1532264621432527 -4 -4 2 -15 -8 -14 -16 -2
1532264621456463 2 3 3 9 -21 -42 26 6
1532264621477407 -3 -4 1 -7 12 -4 -14 -5
1532264621500346 -5 5 3 2 -7 -14 7 4
1532264621515306 -1 -5 0 1 -35 -60 6 1
1532264621538245 -4 6 -1 -8 36 50 -2 -1
1532264621560185 -7 -4 -7 3 -5 27 -8 -1
1532264621590106 -20 -2 -8 -6 -4 2 4 1
1532264621634986 1 -1 -7 -2 -6 -23 -6 -1
1532264621657936 5 0 2 2 2 0 2 0
1532264621710784 1 0 -4 2 9 -1 3 -1
1532264621755663 -1 0 -3 -3 -7 -6 -11 -2
1532264621777605 -1 -1 1 -1 -4 -3 -4 -1
1532264621800543 2 -1 0 1 3 18 0 1
1532264621815510 -2 0 0 -2 7 -26 -5 0
1532264621837444 1 1 1 0 -4 6 -9 -2
1532264621867365 -2 -2 -3 0 2 9 -2 -2
1532264621905269 -3 -3 -3 0 2 5 -1 -1
1532264621935183 -3 -3 -1 2 3 -9 3 0
1532264621965103 0 -1 0 -2 7 27 4 2
1532264621995023 0 1 0 11 0 -27 11 0
1532264622017962 0 -5 -6 -22 -14 -38 -9 -2
1532264622032922 0 0 -4 -14 47 -4 -5 2
1532264622070836 2 -1 -1 8 -1 -11 -1 2
1532264622130661 6 2 4 4 0 -13 1 -2
1532264622160581 -1 1 -2 -3 -6 -7 -2 -1
1532264622197482 -15 1 5 5 3 25 1 2
1532264622235380 1 -2 -3 -1 17 39 4 -2
1532264622250340 6 6 3 -4 1 -6 4 4
1532264622273279 -1 -5 -8 -9 -22 -2 8 1
1532264622325140 2 -1 -7 -15 -26 -11 -12 -19
1532264622340101 -5 -12 -21 -13 -4 -12 -39 -2
1532264622407935 4 13 10 11 7 -28 -1 3
1532264622422879 -17 -10 -19 0 -1 9 24 -5
1532264622475738 -10 4 10 -13 -1 17 9 3
1532264622505658 -11 20 20 -4 3 -9 1 7
1532264622535578 -1 8 17 9 1 16 -15 -4
1532264622550538 3 -2 -6 4 -2 1 -14 2
1532264622580458 7 0 -1 -1 -1 6 -9 6
1532264622610378 4 3 -5 -4 0 -38 6 -5
1532264622625338 1 -5 -7 14 26 -56 8 -3
1532264622655258 -1 8 16 20 1 42 13 -1
1532264622678196 15 -7 -14 -14 -8 -24 -13 0
1532264622715098 1 2 7 -3 -20 5 5 -3
1532264622730057 1 -2 -1 1 5 40 14 2
1532264622759978 -2 1 3 11 34 5 4 5
1532264622812837 0 -2 1 0 36 13 23 5
1532264622887636 -1 -3 -1 -3 13 14 19 -1
1532264622940496 4 0 -2 -7 -11 5 -45 -7
1532264622993353 -4 0 -1 1 50 -21 20 -1
1532264623015295 -5 0 0 8 27 43 8 -3
1532264623164895 -15 -1 -2 1 -9 -8 1 6
1532264623202794 5 -1 -3 -2 0 33 1 0
1532264623232713 -3 -2 -3 -3 3 3 -1 -1
1532264623322473 -2 -6 -6 -4 -1 4 -2 -2
1532264623353391 -2 -8 -6 -15 -7 2 28 -2
1532264623375332 2 -4 -3 9 16 12 -3 6
1532264623405252 -3 1 0 -3 -12 -3 -27 0
1532264623428190 0 -2 9 3 -6 -5 -6 0
1532264623458110 -4 -16 -13 -6 4 2 -2 -3
1532264623488031 0 6 -1 3 -4 6 -1 0
1532264623517951 -1 -3 1 -5 -4 -7 -1 -1
1532264623547871 -3 17 1 -3 -10 -26 -1 -3
1532264623585769 1 -13 -8 3 5 18 9 1
1532264623607727 1 2 3 1 -1 -1 7 0
1532264623630650 18 -19 -1 -2 -3 7 -3 -2
1532264623660569 -1 -2 0 -10 3 19 -6 -3
1532264623735369 -4 3 -2 -3 11 22 1 -1
1532264623765289 -1 -9 -11 -5 4 8 18 -5
1532264623810169 -1 4 3 0 13 -22 -15 1
1532264623863028 -2 -3 -2 1 -12 -13 -11 6
1532264623922868 -6 -13 -9 -2 8 36 -11 1
1532264623975726 0 -1 -4 -2 39 -23 -7 -5
1532264624035566 3 5 -1 -7 -7 11 18 -3
1532264624096404 -4 -7 -3 -12 -23 -5 -8 -8
1532264624148265 0 -8 4 5 23 0 1 3
1532264624230046 0 2 0 -3 -7 5 7 -2
1532264624274927 3 -4 10 -2 -16 -13 0 -2
1532264624365684 29 -18 -10 2 -1 -2 9 25
1532264624538222 13 -16 -19 -1 17 5 1 -2
1532264624560164 -9 -3 8 -6 7 2 3 -11
1532264624605052 12 76 59 16 19 16 13 25
1532264624680841 5 16 9 -10 -10 -4 -2 -10
1532264624702782 -2 -6 -36 -6 -11 8 -1 -9
1532264624732703 6 26 -11 -1 8 0 -1 0
1532264624792541 -1 -13 -3 -1 -3 -11 24 1
1532264624822462 0 -6 -3 18 -12 -9 18 2
1532264624845401 -1 -6 -16 0 -1 -6 -2 1
1532264624883300 -2 4 13 22 1 6 -3 -9
1532264624928179 -1 -5 -4 -15 1 -5 -3 -7
1532264624988020 16 -31 -18 -1 2 6 1 -3
1532264625070798 -1 4 -1 0 -3 1 5 -2
1532264625107700 36 -2 -2 2 -5 -4 -5 16
1532264625175518 8 5 3 1 -14 -1 2 1
1532264625205438 -1 1 -3 -18 -4 -2 2 6
1532264625243337 -3 -1 2 3 13 12 2 1
1532264625273257 -1 2 1 -6 1 9 8 0
1532264625392937 0 -1 3 -1 -10 -33 1 -1
1532264625438814 -5 -1 0 4 -4 13 -9 -3
1532264625490680 -2 -3 -2 -2 -19 -15 -1 -5
1532264625520595 1 -2 -2 1 -11 -42 5 -1
1532264625603374 -4 -2 0 -2 -1 -17 8 -2
1532264625640278 1 -1 -1 1 10 13 -1 -2
1532264625715089 -1 1 0 -2 -3 -4 -2 -2
1532264625745993 -3 -3 -1 -5 -7 -14 1 -1
1532264625782894 2 0 0 1 -3 1 -9 -2
1532264625805832 -1 -3 -1 2 -2 7 8 0
1532264625835753 4 -3 -3 -3 -1 -7 -5 -1
1532264625850713 -2 -1 -1 -2 -1 4 5 -1

1532264625873652 -8 0 -1 -3 5 0 -16 -4
1532264625887614 3 0 0 -3 -3 -2 -3 -3
1532264625917585 -2 -3 -1 2 0 1 6 0
1532264625955488 1 -3 -1 -3 0 4 5 -3
1532264625977424 -4 -1 1 -3 -4 -12 6 2
1532264626000363 -2 1 1 0 0 7 7 0
1532264626045244 0 2 -3 -2 -1 3 -2 -1
1532264626060204 -3 1 -2 -1 -3 2 0 -1
1532264626075163 1 -1 1 1 -1 0 -3 -1
1532264626105089 -3 -1 -1 -3 -3 -2 -1 0
1532264626142988 0 1 0 -1 1 10 -3 0
1532264626157948 0 -3 -1 0 1 -1 6 -1
1532264626180891 -1 -2 0 0 0 -1 -1 1
1532264626202828 -5 -3 -2 -3 -2 -3 -1 -2
1532264626241725 -3 -2 1 0 -1 6 3 0
1532264626255686 1 1 -1 0 -2 -6 0 -2
1532264626285606 1 -1 -1 0 0 11 -2 -1
1532264626300567 -1 0 -1 0 -1 0 8 1
1532264626322508 1 0 -3 -2 1 6 7 2
1532264626360407 -1 0 -3 1 0 -7 -2 -1
1532264626375366 -1 0 -1 -2 -2 1 -3 -2
1532264626420247 -3 1 -1 1 1 0 -1 -2
1532264626450166 0 -4 -3 -1 -1 -5 7 0
1532264626488065 -4 -2 -2 -5 -3 5 1 -2
1532264626503025 -2 -2 -1 5 12 -13 -1 -2
1532264626547905 2 4 7 16 8 -4 4 1
1532264626562875 -3 -3 -4 -6 9 12 4 -2
1532264626585804 -2 -2 -2 -5 3 18 -3 0
1532264626607746 -1 -2 -2 1 3 2 -2 -1
1532264626622705 -1 0 3 31 17 3 -4 -1
1532264626637665 -2 1 2 -1 -11 -5 0 -1
1532264626667585 1 0 -3 -6 5 2 7 4
1532264626690542 2 2 6 23 1 -8 -1 0
1532264626712464 -1 -3 -1 -9 -6 0 1 0
1532264626735404 2 -3 0 1 7 -3 -4 -2
1532264626765324 1 4 3 11 -2 -3 2 -1
1532264626795244 -3 -3 -4 -3 4 7 -2 -2
1532264626818182 -1 -1 -1 0 10 -5 -1 -1
1532264626840138 1 2 -5 7 10 17 2 3
1532264626855083 -3 -5 -12 -18 11 -10 0 -1
1532264626878023 -2 -2 -3 -22 -26 -31 -5 -2
1532264626907943 -4 -4 -10 -17 -19 -26 -5 -2
1532264626937862 -3 -4 4 -16 4 -15 -2 -1
1532264626967782 2 -3 -4 -19 -19 -8 -7 -2
1532264626990728 0 -3 -4 3 -16 -22 -5 1
1532264627012663 -3 -1 -7 -23 0 -7 0 -2
1532264627095441 -2 -6 -5 4 -8 4 1 -2
1532264627170241 2 0 0 3 25 82 6 0
1532264627185201 -1 -1 -4 -6 10 40 -2 -1
1532264627200161 -2 -2 -2 -2 -8 -21 -2 -3
1532264627223100 -4 -5 -4 -20 -2 21 -3 -2
1532264627253019 3 0 0 -7 -9 -48 -4 -3
1532264627282940 1 0 8 17 -18 -26 -1 0
1532264627305883 0 -2 -6 -15 -23 16 0 0
1532264627327820 -4 0 0 -8 -3 10 -4 0
1532264627365718 -2 -2 -5 -3 54 68 2 0
1532264627432539 -1 0 -4 -20 33 32 1 -1
1532264627455478 -2 1 1 4 -6 9 -6 -2
1532264627515330 0 11 3 7 -4 25 3 0
1532264627530278 0 7 4 7 -20 -11 2 3
1532264627568177 -1 4 0 8 -18 22 -5 0
1532264627590118 0 -5 -4 1 -11 -37 -6 -1
1532264627634998 2 -3 -4 -1 3 7 19 18
1532264627680878 18 -3 3 -1 -25 -32 -21 -8
1532264627732737 15 -39 -14 0 -7 -12 2 3
1532264627747697 -16 -35 -1 8 -18 -1 1 -7
1532264627800556 -1 -4 -1 -18 -46 -84 -20 -9
1532264627868374 -1 -2 6 -5 34 -13 18 4
1532264627928214 0 3 -3 0 12 7 -1 -2
1532264627965115 7 9 7 7 -20 -6 -11 0
1532264628017973 -2 2 -3 -7 -18 14 0 -6
1532264628047894 0 6 -2 -4 2 -72 0 1
1532264628062854 -4 7 0 1 13 10 29 3
1532264628077813 3 -2 -4 -1 2 17 -3 0
1532264628100752 3 -3 2 0 -1 15 -1 -1
1532264628130673 0 -3 -5 -4 -3 -8 -11 2
1532264628152614 -6 -2 -2 -5 -10 -13 -22 -19
1532264628182534 0 3 3 0 -1 14 5 -9
1532264628205473 -2 -2 0 2 15 18 -7 3
1532264628235392 1 1 -1 -2 -1 -7 0 4
1532264628273292 -3 1 -1 -9 8 -12 -11 -3
1532264628295233 -10 -16 -3 -6 4 4 8 -9
1532264628348091 3 1 0 -2 -19 -4 4 7
1532264628378039 2 3 -1 -1 3 3 4 3
1532264628399980 -2 -1 0 7 12 -5 -9 -4
1532264628422919 -1 3 -2 1 0 -3 -12 -3
1532264628482760 -3 -3 -2 -5 -5 -2 -5 0
1532264628497719 -12 -2 -1 -4 -3 -35 0 -1
1532264628580497 -15 8 -3 3 23 -13 -8 -2
1532264628617400 -9 1 4 -1 5 -1 -2 2
1532264628640340 15 -4 -2 -5 4 -8 -12 -7
1532264628655298 -6 -8 1 -5 20 -37 -4 -6
1532264628693197 -1 -1 0 -1 -20 4 0 2
1532264628730098 8 12 5 4 4 27 18 1
1532264628753050 -5 -7 2 5 -17 -20 15 -2
1532264628767996 -3 -1 0 0 14 47 -9 -4
1532264628804898 -3 0 -9 -4 17 19 -13 -4
1532264628820855 -3 -2 -2 1 17 44 3 -1
1532264628857756 -2 -5 0 2 -11 -14 -11 -4
1532264628872717 -7 -2 -4 -4 -4 -15 -2 -4
1532264628895656 -6 -1 -2 -8 -9 8 -6 -2
1532264628917596 -1 3 -5 1 -10 -10 5 -1
1532264628940536 0 -2 -4 3 -5 -3 -16 -1
1532264628962476 5 1 -3 4 6 19 3 2
1532264628992397 -1 -1 -2 0 -1 -10 4 -2
1532264629015336 0 1 -2 -1 7 16 13 -1
1532264629045255 1 0 1 8 12 -19 1 0
1532264629060215 0 -1 3 -1 -5 -12 -5 1
1532264629075176 0 3 -1 -4 5 8 1 0
1532264629090136 0 -3 5 8 2 44 -18 -5
1532264629113073 3 7 13 19 9 -14 16 6
1532264629149975 -4 -2 0 -4 -3 -8 -2 -1
1532264629172913 -4 -1 -4 -2 7 -3 -2 -9
1532264629195853 0 1 -8 -13 0 -12 -8 -2
1532264629232754 -2 -2 -5 -4 2 -5 -5 -2
1532264629270652 0 -2 -4 1 24 13 -10 0
1532264629285612 12 0 -1 -6 2 2 8 6
1532264629322514 -2 -2 2 4 3 -12 -10 -4
1532264629375374 -4 -3 -1 -3 -16 -56 -4 1
1532264629405293 -9 -13 -3 -5 -7 -1 -10 -19
1532264629458151 -17 31 50 -1 -8 29 18 4
1532264629480093 -6 29 -9 0 3 -17 1 -8
1532264629524973 12 3 -1 1 15 -4 -4 5
1532264629539933 -1 -15 -11 -5 -15 -15 -20 -4
1532264629562870 -2 -1 7 3 4 0 -1 0
1532264629577831 -5 -8 -1 2 0 6 -18 1
1532264629600770 6 1 0 -4 4 8 7 -1
1532264629615735 3 6 2 -1 1 -30 21 5
1532264629637693 4 -2 4 0 2 18 8 0
1532264629660631 -1 -5 -2 4 0 -4 -10 -4
1532264629675591 -4 4 3 -11 -4 29 -12 -6
1532264629690553 2 -2 -2 -17 13 -2 11 3
1532264629750391 -2 -6 -14 -18 -46 -65 2 -1
1532264629780311 -5 0 14 1 -21 -15 -31 -5
1532264629825192 -3 -3 -5 -20 -21 5 3 0
1532264629967811 -5 -4 -7 -19 -62 -37 -25 -6
1532264629982771 1 2 2 5 -15 -7 -19 -5
1532264630027651 -4 1 1 -10 -67 -15 18 1
1532264630102450 0 -1 -3 -9 -20 5 2 -2
1532264630155309 -1 -2 -2 1 6 -25 -10 -2
1532264630208167 -6 0 2 -1 -15 -44 -6 -2
1532264630253048 -2 2 2 4 -1 -1 9 -3
1532264630282968 -3 -4 -2 1 1 -14 -6 -2
1532264630402648 0 -7 -4 -7 -2 -10 -5 -4
1532264630417608 2 -8 -7 0 4 5 -6 -3
1532264630447528 1 -3 -3 2 4 -13 8 -3
1532264630470469 -1 -7 16 -8 1 11 12 -1
1532264630500386 -2 -3 -6 -1 -2 23 -12 1
1532264630523325 0 30 18 -10 5 1 1 0
1532264630628044 0 -7 -8 -2 -6 -31 1 -1
1532264630672924 -1 2 2 0 7 32 -5 -6
1532264630702844 1 2 -2 4 -2 -46 9 11
1532264630747725 -3 -4 -1 3 14 40 -16 -12
1532264630785623 1 20 13 5 -5 -28 -8 5
1532264630807565 0 9 8 0 10 12 -12 -9
1532264630875384 -1 -7 -11 -4 -10 9 1 7
1532264630988082 -1 -2 0 2 25 16 -7 0
1532264631024984 -1 2 -2 1 8 5 -13 -8
1532264631137682 1 -6 -2 -5 -26 18 5 -6
1532264631212482 1 -13 0 -12 14 -15 -15 9
1532264631414940 -17 -18 14 -7 7 7 -15 -8
1532264631482760 14 24 6 23 7 12 4 -8
1532264631542599 -2 11 -10 0 4 4 1 25
1532264631685217 11 30 -13 -9 -5 5 18 3
1532264631700178 -12 -4 -1 -7 7 -4 -15 2
1532264631745058 5 67 63 13 5 7 -31 -6
1532264631790952 15 -35 -11 5 8 27 -2 -1
1532264631805895 -9 -11 -20 -9 -5 -12 16 11
1532264631842797 -1 11 4 -12 -5 4 8 8
1532264631910615 -5 -11 -13 3 -12 -2 2 3
1532264631932556 3 -12 8 -7 -3 13 -6 -7
1532264632038274 3 6 -8 -3 -1 -3 -3 -2
1532264632090136 -1 -10 -7 -2 -4 -1 -4 -1
1532264632135015 1 -5 2 1 -2 -1 1 2
1532264632202834 -2 -3 -2 -1 0 -8 0 1
1532264632232754 0 3 -3 -17 1 19 0 0
1532264632262674 0 0 2 7 -23 -18 -2 -1
1532264632337474 -2 -5 -4 -2 -1 -69 -6 -1
1532264632390332 -3 0 -1 -3 -2 17 1 0
1532264632435212 0 -2 -5 -8 -20 21 2 0
1532264632465133 -1 -2 1 7 -4 0 -2 -1
1532264632503030 -2 -2 -1 -4 -18 -65 -4 -1
1532264632532951 2 -1 2 4 7 32 5 0
1532264632547911 -1 -3 -1 7 12 3 1 -2
1532264632592791 -1 -1 -3 -2 -2 15 -2 -1
1532264632607767 0 0 -2 -6 -17 -12 -3 0
1532264632645650 -3 -5 -2 -3 -7 20 2 2
1532264632660610 0 2 -1 0 -10 -26 -4 -1
1532264632690530 1 -2 0 -1 -1 3 -8 0
1532264632720449 -1 -3 0 3 40 25 2 0
1532264632750369 -2 -3 -1 0 -9 -2 -6 1
1532264632788268 3 -2 -1 1 2 -7 -2 -1
1532264632818189 0 0 -1 1 -5 -22 -1 1
1532264632848108 -1 -2 -1 -1 3 2 -2 -1
1532264632863068 -1 -2 1 -1 -17 -14 -1 -1

1532264632899969 1 0 0 -4 -2 -8 -4 0
1532264632916925 -3 0 -2 -1 6 -10 -8 -3
1532264632960806 -1 -5 -2 -2 -10 -17 -1 -2
1532264632975767 -1 -3 -3 0 0 6 -6 -2
1532264633020646 -1 -1 0 -1 5 2 2 0
1532264633042588 -2 0 -3 -3 -5 -7 12 0
1532264633072541 0 -1 0 2 21 17 2 -2
1532264633102460 -2 -1 1 0 -4 -17 0 -2
1532264633133377 -3 -3 -1 -1 -2 -8 0 -1
1532264633170279 1 -2 -3 -7 -13 -7 -2 -1
1532264633193218 -1 -1 -1 -4 7 -11 -2 -1
1532264633223138 -1 -3 -2 -3 -5 27 1 -2
1532264633268018 -4 1 0 -6 13 13 9 -2
1532264633282977 -1 0 -3 -2 -15 -27 -2 0
1532264633320882 -2 -2 -4 -7 -5 -10 -3 -1
1532264633372738 0 1 3 2 4 8 3 -1
1532264633395676 -1 -1 1 -1 -8 18 2 -1
1532264633410636 0 0 -1 -2 0 4 -4 0
1532264633447538 1 -1 0 4 14 29 4 0
1532264633470476 0 0 2 -4 -11 -13 -7 -1
1532264633507377 0 1 0 3 7 -11 0 1
1532264633560236 -2 -2 -2 -5 -19 -9 -4 -2
1532264633598134 -1 0 -1 2 21 14 0 -2
1532264633620076 1 -2 1 1 -1 0 3 -1
1532264633672935 -2 3 0 3 18 10 -1 -1
1532264633725793 -2 0 -1 2 -4 3 1 -2
1532264633777655 -3 -4 -9 -13 -10 4 1 -3
1532264633837495 -1 0 1 6 10 14 2 -1
1532264633884370 0 2 1 5 10 -6 2 1
1532264633935233 -2 -2 -4 -26 -18 -2 0 0
1532264633950194 1 2 -7 -12 -3 12 6 2
1532264633980114 2 3 3 18 8 9 1 2
1532264634003051 0 -2 10 32 55 20 0 0
1532264634039956 3 26 -5 3 -81 -19 -4 -1
1532264634062892 -5 2 0 -11 -5 19 -2 -2
1532264634085831 2 0 -2 7 41 57 5 -1
1532264634137692 -1 -30 -9 7 6 15 1 2
1532264634167612 -1 -8 -9 -4 -31 -67 -11 -3
1532264634205511 -6 2 4 4 40 52 -3 -2
1532264634227452 -1 4 -12 -12 3 3 -11 -4
1532264634280311 -2 -11 -8 -18 -20 -31 -4 -3
1532264634333170 -2 0 -7 -6 9 11 5 1
1532264634393009 -6 -6 -11 -26 -8 15 -2 -4
1532264634452849 6 33 9 4 -31 -50 -43 -6
1532264634497729 0 -5 6 45 42 2 10 0
1532264634520668 -3 13 8 -28 -2 16 12 -1
1532264634542609 -18 46 2 1 2 -14 -2 1
1532264634565548 -3 -18 -6 -8 4 6 12 1
1532264634632369 1 -11 6 -13 -30 3 -3 -1
1532264634700188 12 -14 -9 -2 9 23 30 3
1532264634789948 5 -3 1 -11 23 8 -7 -2
1532264634835825 -1 -2 1 -2 1 6 -35 -1
1532264634850785 3 -1 1 2 5 -18 4 2
1532264634872726 2 -2 -3 -4 -9 -28 -14 -2
1532264634910625 -4 -4 0 -3 0 0 5 0
1532264634947561 -6 -2 -6 -9 -1 -3 -1 -7
1532264634985425 -1 -2 -1 3 14 -2 -5 -2
1532264635023324 0 2 3 14 -13 2 0 -3
1532264635075185 0 -1 1 -3 10 3 2 -1
1532264635120065 1 -2 -6 -4 0 -2 0 -1
1532264635135025 -1 0 -4 -1 7 2 -21 -3
1532264635164945 -1 2 6 3 -15 -30 -15 1
1532264635179917 -12 -1 -7 -16 -43 -38 8 3
1532264635210822 -3 6 -1 15 23 -14 -7 1
1532264635240743 3 -6 1 0 -6 -13 -8 -1
1532264635277644 18 -1 -1 -13 3 5 0 -1
1532264635292604 2 5 2 -9 16 -31 -2 -6
1532264635337483 -8 -2 -5 -4 25 42 14 -1
1532264635352443 -5 -6 -4 -2 -35 -18 -6 -1
1532264635383361 -3 -1 -1 -1 -7 -16 0 0
1532264635398321 -3 -5 -4 -2 4 -4 -2 2
1532264635435222 12 -8 -5 -1 -5 -8 2 3
1532264635465142 2 0 3 2 7 -4 -1 -2
1532264635488081 -1 7 -2 -3 3 2 0 -1
1532264635518001 -5 -1 -2 -2 -9 -12 6 -1
1532264635532961 0 0 -7 1 1 22 2 0
1532264635562881 -1 -3 0 -2 8 9 -6 -3
1532264635577841 -1 -1 1 -2 -7 0 -1 -1
1532264635600780 -2 -2 -1 -2 0 13 2 0
1532264635630700 -2 -1 -2 -2 1 -3 -3 -1
1532264635652641 1 0 -1 1 3 2 -3 -2
1532264635675580 0 -1 0 -6 0 0 -3 0
1532264635697521 -3 -6 -2 1 -2 -3 1 -3
1532264635720459 1 -3 2 -2 1 -6 2 -1
1532264635758358 0 -2 -12 12 12 -55 -13 -3
1532264635773318 1 2 15 14 16 -2 -1 -1
1532264635795260 -3 -2 -9 -25 3 -9 0 -3
1532264635818198 0 1 -1 -3 5 13 1 2
1532264635833158 -3 -4 -10 -8 -13 -1 11 -2
1532264635848118 -3 -4 -1 -8 -29 -8 -29 -8
1532264635870060 -6 2 -1 -6 -2 5 5 0
1532264635892998 2 1 3 21 22 28 9 4
1532264635930897 -3 -3 -5 -26 -18 -20 18 2
1532264635967798 -24 -7 -3 0 8 26 -4 4
1532264636012678 5 1 -2 -4 19 -8 -8 -4
1532264636066534 14 0 4 10 18 38 9 -18
1532264636080497 12 2 -5 -6 -33 -11 13 11
1532264636110431 -1 -11 -6 -7 27 26 1 1
1532264636133356 0 22 23 2 -2 -5 0 3
1532264636170257 1 -11 -7 -4 5 1 20 6
1532264636185217 -3 -1 -1 -4 -3 3 -12 -8
1532264636208172 7 7 6 2 5 -1 -4 0
1532264636253036 -1 -5 -6 3 9 34 5 7
1532264636274976 2 3 1 3 9 18 -8 -13
1532264636312875 -9 -3 -4 0 4 2 4 -4
1532264636335814 -21 -2 1 9 42 7 12 1
1532264636372715 8 8 -4 6 16 7 13 -10
1532264636402635 8 1 11 24 6 -10 -21 -8
1532264636440534 -3 -1 -19 -16 12 -6 1 1
1532264636462475 6 2 3 -12 3 3 11 1
1532264636477441 2 -3 -1 -11 -13 -1 0 1
1532264636500374 3 -4 -9 -14 -5 -22 -6 -5
1532264636538273 5 -5 -5 3 11 8 12 2
1532264636613073 7 -3 10 -3 1 12 -20 1
1532264636687873 -1 -2 -4 -11 -11 -22 -25 -5
1532264636717792 -8 -3 -1 -4 6 51 16 1
1532264636837472 -4 -2 -2 6 -8 -7 -24 -7
1532264636890331 -5 0 -2 5 22 -5 -2 1
1532264636935211 -1 -1 0 1 -13 -7 -4 -1
1532264636965131 -7 -4 -4 -7 -4 2 -15 -2
1532264637010011 -2 -11 -5 -11 -15 34 8 -3
1532264637024971 1 -1 0 -2 -9 -6 -5 -3
1532264637054891 -6 0 0 -1 13 1 2 2
1532264637092790 5 2 1 -3 -29 -32 0 2
1532264637107754 -2 1 1 -4 5 14 5 1
1532264637167590 2 -1 -1 -3 8 4 12 -3
1532264637197510 -2 1 0 -3 -25 0 -15 -1
1532264637228426 1 17 13 11 -3 0 -3 -1
1532264637258347 2 8 3 -1 3 -4 2 2
1532264637288267 -2 -15 3 -2 1 -86 -3 -3
1532264637310208 -1 2 -12 -5 -4 9 -6 1
1532264637348107 2 -7 1 -3 4 9 -5 -6
1532264637363067 -3 -4 -4 0 -5 14 0 5
1532264637407952 0 -3 3 2 -2 -9 3 2
1532264637445845 -12 -11 -2 1 2 4 -1 -3
1532264637482747 -1 -1 -2 -3 9 13 -4 -13
1532264637550565 1 1 -8 -9 14 19 -2 7
1532264637595446 2 -4 6 3 -5 -2 3 -1
1532264637625366 -6 -4 -6 -2 6 15 12 -15
1532264637648304 7 -7 1 -6 13 13 -13 -2
1532264637730085 16 27 8 -1 25 20 -8 0
1532264637782944 -17 20 -2 -2 -11 -10 -3 4
1532264637835802 -20 -38 -7 -2 8 -13 9 3
1532264637872708 3 -10 -2 -2 -31 -21 -20 -8
1532264637910603 4 0 -2 1 -4 -5 -21 1
1532264637947504 0 0 9 19 -15 -11 2 3
1532264638015323 0 3 -1 -8 -4 11 61 3
1532264638068182 5 -25 -21 -1 4 1 5 17
1532264638135003 -33 -3 0 10 4 -16 0 -11
1532264638255680 13 -64 -16 1 6 20 -3 -7
1532264638353428 -7 44 34 14 -9 -17 5 -14
1532264638398299 -1 3 0 25 7 6 -27 -5
1532264638495040 -11 -42 -21 -18 -12 -4 -30 -11
1532264638547899 -22 -19 -6 -6 -23 -24 -19 -3
1532264638607755 7 0 3 2 10 23 7 4
1532264638667578 -16 -17 -5 -2 3 8 -15 7
1532264638705478 1 -17 -15 5 -9 -11 -10 7
1532264638855077 -1 1 -4 -3 4 -4 -3 -1
1532264638907936 2 -2 1 -4 -4 -2 -1 -2
1532264638997695 -1 -1 1 -3 10 5 -1 -1
1532264639027630 -1 0 -2 4 14 -26 1 2
1532264639125355 -1 -3 -3 -2 8 -12 11 0
1532264639185194 -2 -1 -1 2 -2 10 -3 -3
1532264639259995 -1 0 1 0 27 -52 -21 0
1532264639289915 -2 -3 1 1 12 1 -2 -1
1532264639320832 -1 0 -1 0 -8 -7 1 -1
1532264639342773 0 -1 -1 -4 -5 2 2 1
1532264639357738 1 1 -1 -2 -4 1 1 0
1532264639387653 -1 -1 -2 -4 6 7 14 -1
1532264639402613 1 -1 -1 -2 1 -15 6 0
1532264639440526 2 3 2 2 5 7 2 1
1532264639477413 0 2 1 0 3 4 -4 -2
1532264639508346 1 -2 -2 -4 -7 -9 -2 1
1532264639523291 -1 1 0 0 -9 -4 2 1
1532264639538250 -3 -1 -1 -1 3 -12 3 -2

1532264639598090 0 -3 1 1 12 6 -3 -2
1532264639620082 -1 -3 -1 -1 -2 -2 1 0
1532264639643019 -1 -2 -1 0 -3 10 -6 -2
1532264639679922 -1 -2 -1 -1 -3 -9 -9 -3
1532264639725799 -1 1 1 -1 -3 13 -1 1
1532264639740759 -2 0 0 0 -10 3 14 1
1532264639762701 1 1 -2 -1 1 -10 -1 -2
1532264639793618 -2 -2 0 -1 -8 8 3 -1
1532264639815559 0 1 -2 -4 5 -4 9 0
1532264639845479 -1 0 5 4 -45 19 1 -3
1532264639867420 -3 -2 -1 -5 -6 6 -4 -2
1532264639883380 0 -1 -4 -9 13 2 -4 1
1532264639905319 -3 -2 -10 -31 16 -9 -3 -4
1532264639928258 1 0 1 13 21 -3 0 2
1532264639950199 0 -3 -6 -2 35 1 1 -2
1532264639980119 -2 -2 -1 7 6 4 -2 -2
1532264640010039 0 -2 0 -3 0 8 -6 -1
1532264640032978 -2 4 -1 -4 -10 -2 -4 -2
1532264640047938 -1 -2 1 1 1 3 -1 -1
1532264640062897 -1 -4 -3 -3 -10 -9 -1 -2
1532264640085836 -3 -2 0 6 0 2 1 1
1532264640107778 -1 -4 -1 0 -1 2 -2 -1
1532264640130716 0 1 2 2 -2 -6 0 -3
1532264640152658 -2 0 1 4 0 -4 -9 0
1532264640175596 -4 -2 -2 2 12 -8 -6 -3
1532264640197537 -1 -4 -4 2 -6 10 2 -5
1532264640212498 -2 -1 -1 0 -5 -7 -4 -1
1532264640235436 -1 -1 2 4 3 -2 16 2
1532264640265356 1 5 -1 3 1 -11 -6 0
1532264640295276 -1 -2 -1 2 5 36 4 1
1532264640310236 -3 -5 -5 -2 -2 10 -1 -1
1532264640333175 0 -2 -3 -12 -16 11 -1 -3
1532264640348135 -1 2 4 15 0 6 0 1
1532264640363109 -1 -1 -1 -3 -3 -3 -3 -2
1532264640385036 -1 -2 -6 -6 4 0 -2 0
1532264640407975 1 1 -1 -10 -19 -9 2 1
1532264640422935 0 -2 5 19 -6 -20 10 -1
1532264640445890 -3 -6 -3 -2 17 -5 -2 -2
1532264640475793 0 -2 2 -4 -1 5 -3 1
1532264640497734 2 3 6 12 -4 8 3 2
1532264640520673 -4 -1 -2 0 -9 -2 -6 -3
1532264640550594 -2 -11 -8 -32 -12 -9 -4 -3
1532264640565554 -1 6 -5 -11 -7 18 -4 -3
1532264640595473 -1 -2 -4 11 57 -6 -2 2
1532264640617415 0 0 -1 8 44 -15 -7 -1
1532264640648332 -1 -3 -3 16 7 -6 -4 0
1532264640685233 0 16 12 28 -24 -13 -4 -1
1532264640723132 -3 -4 -8 -3 -12 -4 -1 -3
1532264640774994 -6 -14 -14 -11 -20 3 -11 -4
1532264640797932 3 2 -4 -4 18 -11 11 4
1532264640812892 2 -1 3 -6 12 11 -22 -5
1532264640857772 0 0 2 14 40 44 9 2
1532264640872732 -1 -3 -8 -11 -26 -28 -10 -6
1532264640895670 19 0 1 -4 -20 -1 8 4
1532264640925591 4 18 9 14 43 -9 -5 -3
1532264640947532 -4 1 -3 -16 2 -15 3 3
1532264641008379 14 5 11 14 9 -9 5 4
1532264641068209 -1 -20 -28 -7 -26 8 7 -2
1532264641105110 -8 -11 -1 -1 12 16 -2 -9
1532264641128049 -49 -123 -25 2 -16 -8 -7 -2
1532264641179910 6 5 6 12 4 20 4 -6
1532264641217809 11 33 -6 -1 12 18 12 8
1532264641240748 15 28 6 -8 -83 -10 -20 -10
1532264641353456 6 8 -4 -7 -2 -24 -14 -1
1532264641443206 1 1 3 4 57 9 -10 0
1532264641465148 -2 -5 -2 -3 -23 0 11 -4
1532264641518006 4 3 3 7 -2 -18 15 -13
1532264641577846 -9 -46 -18 -1 -12 -26 3 -1
1532264641682567 -1 12 6 -3 -4 -6 9 -7
1532264641765348 3 23 12 1 -4 5 1 1
1532264641788283 1 -3 -15 1 -12 -5 10 5
1532264641818204 0 3 1 -8 -8 -2 -7 6
1532264641848124 -1 -3 6 0 -1 -1 -3 4
1532264641907964 2 -3 -1 -5 -4 0 -4 4
1532264641929905 -3 -6 6 38 30 2 5 -10
1532264641982764 1 1 -1 -7 -11 27 3 -1
1532264642012684 -5 -4 -5 -7 -9 17 -2 -1
1532264642027644 2 -1 1 4 -7 -48 -10 -2
1532264642057564 2 -3 4 2 2 -2 6 -2
1532264642080517 -2 -6 2 13 -2 8 9 1
1532264642104438 0 -3 -4 -3 -7 18 9 1
1532264642148321 1 -3 -2 -1 2 11 -2 -4
1532264642163281 1 2 2 7 5 18 -9 -1
1532264642185223 -6 -4 -3 -5 -6 0 -4 -5
1532264642223121 -1 -4 -8 -1 -7 -24 -1 0
1532264642253041 -13 -10 -2 -1 11 11 -1 -3
1532264642282961 -1 -2 -5 1 -1 10 0 2
1532264642312880 -3 -3 -4 0 7 -15 -11 -3
1532264642350780 1 0 -1 -1 -3 3 -2 -1
1532264642372721 3 -1 -2 3 14 29 4 0
1532264642402641 -4 -5 3 -1 6 0 1 -1
1532264642417601 2 1 -1 2 1 16 -6 1
1532264642440539 -1 -1 -2 0 3 -21 -10 -4
1532264642462481 -2 -2 -8 -18 11 37 -1 -3
1532264642485420 -2 1 0 8 4 29 1 -3
1532264642508369 1 -2 4 3 27 -25 -1 0
1532264642523318 3 2 19 24 13 4 5 3
1532264642545260 -3 -1 -7 -8 8 -7 -2 -6
1532264642575180 -1 -2 2 18 -2 -9 -10 -1
1532264642590155 -3 -1 -3 -13 -11 0 -3 -1
1532264642635019 0 -5 0 -8 -18 -12 -8 0
1532264642664939 11 0 5 -5 -1 19 -14 -5
1532264642687878 -5 6 -1 -1 1 17 -4 -11
1532264642702837 -8 2 -11 -20 -9 9 7 2
1532264642732757 0 -7 0 5 -26 18 -3 -5
1532264642762678 1 -4 -2 -13 -10 -41 7 4
1532264642777638 -2 -10 2 5 -31 17 -4 -8
1532264642792610 5 1 -4 7 15 -4 -3 6
1532264642830497 -26 -2 12 -11 7 5 -10 9
1532264642845456 -2 0 -15 -13 -4 -7 19 -11
1532264642883368 1 -2 2 8 -20 -33 -3 -3
1532264642898315 -14 -1 18 1 -28 -33 2 -17
1532264642920257 -10 12 -8 -5 17 25 19 -1
1532264642943195 7 1 -11 5 15 -6 -13 4
1532264642965137 -4 30 27 -6 17 -12 -4 9
1532264642995056 2 -9 -13 -10 -15 -26 -4 -5
1532264643010016 -7 -10 -18 -2 1 17 1 3
1532264643032955 2 4 5 8 16 19 26 10
1532264643047915 4 -6 -7 3 -1 -18 -18 -7
1532264643070855 -2 2 9 1 -9 2 -9 1
1532264643085821 5 -2 0 9 15 0 0 1
1532264643115734 -16 -5 -5 -1 -4 7 12 0
1532264643137676 3 -3 -5 -8 -21 -3 5 1
1532264643167595 0 -6 1 13 18 17 -13 0
1532264643197515 7 -3 -9 17 55 32 11 -1
1532264643227435 13 0 0 10 12 7 24 4
1532264643310214 1 -2 -2 -5 1 -19 -10 0
1532264643348112 -2 10 -1 20 44 3 14 -3
1532264643399974 -1 3 6 8 -8 -7 -1 2
1532264643452833 1 0 1 1 -9 5 -32 -3
1532264643475771 -2 0 0 -2 -43 -28 -16 -3
1532264643505691 -4 -5 -4 -6 -9 35 1 -2
1532264643542592 1 1 1 -3 -12 -22 -40 -5
1532264643572512 2 0 -3 -2 13 -47 -3 -9
1532264643625372 -2 -2 -1 0 -8 6 7 -3
1532264643655292 -1 0 -3 -9 8 64 17 0
1532264643715131 -2 -3 -2 -4 -11 37 12 -1
1532264643738070 -2 -1 0 -7 -9 -6 7 -1
1532264643827829 -1 -1 -3 3 -8 21 3 -3
1532264643887670 2 2 6 19 21 -6 4 0
1532264643902630 -1 -4 -1 1 7 3 4 -2
1532264643947510 1 -3 0 1 22 6 -15 0
1532264643977430 -2 0 2 3 6 21 -10 -2
1532264644000368 -1 5 -1 -10 -11 -11 -4 1
1532264644030288 -2 -2 3 -2 -6 -9 -10 -2
1532264644053227 2 11 6 -5 6 11 7 2
1532264644075176 0 8 0 0 -15 -49 -7 -3
1532264644120049 2 5 8 3 -28 17 0 -2
1532264644149968 1 0 11 -3 -1 5 1 1
1532264644195860 -11 2 -2 0 29 12 2 -2
1532264644240726 -5 1 9 -1 -5 -7 -1 -1
1532264644322506 6 7 -3 9 11 34 -10 -1
1532264644345445 -3 3 2 2 0 29 -2 -5
1532264644458144 0 0 3 4 -2 36 1 1
1532264644547904 1 11 5 0 14 -14 -12 -1
1532264644585803 4 -2 -10 -8 -11 13 -16 -2
1532264644622718 3 3 3 -3 2 21 -8 4
1532264644735441 3 -10 -2 -9 5 -53 -27 5
1532264644773340 -3 -1 -4 -5 -4 -8 -16 2
1532264644795281 -15 1 -10 3 -4 -1 -3 -3
1532264644825201 -2 -3 -2 -3 23 -6 7 -10
1532264644863100 12 39 21 -3 -9 -8 -9 0
1532264644967820 -21 -11 -6 0 -7 -3 -3 20
1532264645065558 -12 3 13 0 -8 -2 -10 -1
1532264645087500 -4 -36 14 -6 2 0 5 -20
1532264645140359 -7 28 24 -2 -4 -4 6 2
1532264645230118 5 7 33 -13 9 0 -10 -6
1532264645253056 0 -5 -1 3 10 -3 -5 -2
1532264645297937 2 26 21 1 0 1 5 1
1532264645357778 9 6 0 -11 -11 -4 -9 2
1532264645440559 6 0 2 -1 1 5 -4 -5
1532264645470476 -1 1 -10 -2 -7 -5 -3 2
1532264645523335 -1 -13 -11 -3 -1 -3 -2 -2
1532264645575196 -1 -8 -7 0 -3 1 3 3
1532264645613094 4 -1 -1 -2 -3 -6 -3 -3
1532264645643015 0 -2 -4 5 3 12 -3 -3
1532264645695873 -6 -1 -4 -5 -1 4 -2 -3
1532264645762694 5 3 -1 -2 -5 -33 -2 2
1532264645785633 -3 -1 0 1 17 11 -1 1
1532264645837494 -2 -2 -3 -1 7 -28 -3 -2
1532264645890353 1 -5 -2 0 15 7 -10 0
1532264645943211 -3 -6 -1 -2 -9 10 -11 2
1532264645965153 -4 2 -2 -1 5 40 14 -9
1532264646047962 -5 0 -1 -1 11 -26 -3 -2
1532264646085867 -2 -3 -2 -6 1 9 -1 0
1532264646116778 5 0 -2 1 15 -3 0 2
1532264646130740 3 1 0 -1 -1 0 -3 1
1532264646160661 -2 -3 -1 -2 -3 -23 -11 3
1532264646175621 -3 -2 -3 -1 -3 2 -3 -3
1532264646190581 4 1 -1 1 8 3 -2 -1
1532264646235460 2 -1 -3 0 1 10 6 -1
1532264646265380 -1 -2 -4 -1 4 -3 4 2
1532264646288319 3 2 -2 -3 -7 7 -2 -2
1532264646303279 1 -2 -2 0 3 12 0 -2

1532264646340180 -2 -3 -5 2 15 27 -2 -2
1532264646355141 1 -2 -4 1 1 -5 1 -1
1532264646370100 1 0 -1 -2 -11 1 8 3
1532264646400021 -5 0 -2 3 5 15 1 -1
1532264646437920 -4 -3 -2 -1 2 1 -3 -2
1532264646460857 -1 -2 0 -1 4 13 4 0
1532264646475818 -3 -3 -1 2 -8 10 3 -3
1532264646527679 -1 0 -2 2 6 -12 -5 -1
1532264646587519 0 -4 -3 -3 -2 5 -4 -3
1532264646617439 -1 -1 -2 -5 -8 -8 1 0
1532264646640389 -2 -2 -1 -2 -5 -1 2 -2
1532264646655338 2 1 -2 2 -4 0 2 0
1532264646678276 -1 2 2 -6 -12 -46 -9 -2
1532264646700218 0 0 2 0 -3 -1 3 3
1532264646715178 1 -1 0 2 -4 -13 -6 -2
1532264646753076 -2 -3 -3 -13 -8 38 -3 -3
1532264646798954 -1 0 1 5 2 0 2 1
1532264646827876 -2 1 0 3 -2 6 -4 -1
1532264646872756 0 1 5 21 9 7 0 -2
1532264646902676 1 0 5 16 11 15 4 2
1532264646955535 -1 -1 -2 -2 2 -3 4 -3
1532264646970495 1 0 0 -2 0 -8 1 -1
1532264647000415 1 0 2 5 0 -1 -1 1
1532264647030335 0 -1 -2 -3 0 11 3 1
1532264647068233 -1 0 -1 -2 -4 -41 -12 -3
1532264647098153 1 1 1 2 -6 -5 4 0
1532264647113114 -1 1 -1 2 -9 -7 -11 -4
1532264647143034 1 -1 -1 -2 -10 -9 1 -2
1532264647172954 -2 -1 1 -2 0 7 -1 -1
1532264647187913 0 1 3 0 8 0 2 0
1532264647202874 -2 -4 -8 -13 -1 -7 12 5
1532264647225812 0 -3 -3 -3 0 -15 -4 -1
1532264647262713 -2 -3 -11 -24 -33 3 -7 -3
1532264647285652 0 -4 2 -9 -5 -17 0 -4
1532264647300612 4 4 -6 -10 -33 -8 -2 0
1532264647315572 -8 -16 -6 11 26 0 -5 -5
1532264647337514 0 10 20 15 14 -1 -2 -1
1532264647352474 -3 3 2 2 -14 3 -4 -3
1532264647375412 -2 -14 -10 -3 21 -13 4 0
1532264647398357 -1 5 4 -14 29 10 3 -1
1532264647420292 -1 3 -3 8 56 -3 0 -1
1532264647458205 -1 -9 8 11 -13 -26 -7 -2
1532264647473163 3 9 10 -13 -5 5 0 1
1532264647526009 -3 17 4 1 -20 30 3 0
1532264647562911 -2 21 4 -8 -22 2 -8 -3
1532264647607791 -1 0 2 -5 -9 0 -6 -2
1532264647637711 -2 7 1 15 24 28 -9 -3
1532264647727471 -1 -9 -10 1 1 44 4 -1
1532264647742430 -3 0 13 14 11 -22 -16 -4
1532264647773348 0 -32 -21 -12 -16 51 2 -1
1532264647833187 -16 34 14 -8 44 -20 -20 -6
1532264647848148 -4 -17 -19 -8 27 13 -11 -5
1532264648065567 -2 -43 2 3 54 14 -12 -2
1532264648102468 -3 -13 -6 5 35 7 2 6
1532264648230127 1 11 -2 -4 0 48 27 0
1532264648289967 -7 1 0 -1 -13 -56 -30 -10
1532264648342825 7 0 0 2 -4 1 -8 -1
1532264648365764 -2 -7 2 -3 4 9 12 1
1532264648402664 1 3 -1 -5 -8 12 4 -2
1532264648440564 -3 3 -4 -7 1 -3 3 -3
1532264648508383 -1 -3 -2 3 23 13 13 4
1532264648553263 -2 -2 -4 -5 3 5 5 1
1532264648568223 -3 -3 -3 -4 0 -12 -1 -1
1532264648605125 -1 1 0 5 17 -25 -11 1
1532264648628063 -7 3 -1 -7 -9 20 -14 -6
1532264648657983 -2 2 0 6 22 6 2 1
1532264648680921 -7 -1 -3 -21 -30 2 -2 -4
1532264648710841 10 -2 -8 -3 17 7 14 -3
1532264648755721 -2 1 -1 -3 -26 -70 0 3
1532264648785641 -2 -4 -2 1 21 37 -4 -2
1532264648807582 -4 -5 -2 -5 -28 26 0 0
1532264648867422 2 0 -1 2 -10 -35 -6 0
1532264648884377 -1 -4 -2 -1 12 4 -1 -3
1532264648905323 -1 0 0 -3 1 15 -7 -2
1532264648928260 1 -2 1 -2 -15 -24 -2 -1
1532264648950201 -23 1 1 2 6 31 -2 -3
1532264648973164 0 0 -2 0 -1 1 0 1
1532264649003060 -1 1 -2 -1 3 23 1 1
1532264649047940 4 -4 1 -3 -7 -30 -11 -4
1532264649092820 -1 -2 2 -1 -4 -10 -16 -3
1532264649160638 6 12 4 -6 -22 -4 0 4
1532264649190559 -3 -7 -5 -10 -11 11 -5 -1
1532264649220478 3 7 8 16 3 -1 -3 3
1532264649242420 -1 -4 -3 -7 -6 -6 -1 -3
1532264649258377 4 4 3 5 -4 7 6 8
1532264649273337 -4 -1 -2 -9 8 -3 -11 3
1532264649288297 0 -3 -3 8 20 -1 11 1
1532264649318217 -5 -3 -5 -10 5 -20 6 1
1532264649363097 -7 5 -1 -3 -1 2 -4 -25
1532264649414958 8 -6 0 2 -5 13 -7 18
1532264649430916 -9 0 -2 -2 -3 25 19 -22
1532264649452857 -10 -3 8 16 37 -17 5 -7
1532264649490756 3 -3 -3 -2 3 14 -1 10
1532264649505715 -22 -12 -5 1 -14 3 -1 -32
1532264649520675 4 0 11 -4 -15 -3 16 -17
1532264649550596 -6 11 -4 -4 0 27 -15 -12
1532264649580515 -16 -3 -4 -10 4 -18 -19 0
1532264649610435 -10 -10 -6 -8 -9 -2 14 -2
1532264649625395 21 -5 -2 -3 8 26 18 24
1532264649648334 -3 -7 -5 0 -11 -22 12 18
1532264649663294 -10 -3 2 3 -2 -4 -17 -12
1532264649715156 -1 3 1 -4 -3 -14 -4 -8
1532264649738094 2 -2 1 6 -22 -9 -31 -26
1532264649753054 4 -2 -8 -22 -9 15 -1 18
1532264649782974 -6 5 3 14 -3 -52 2 0
1532264649804916 3 -3 21 5 -20 23 -8 -3
1532264649827853 1 -3 -14 25 -5 -7 14 4
1532264649880713 -2 1 -4 6 -27 37 16 -4
1532264649955513 4 -1 1 -26 8 19 -6 0
1532264650023331 -10 1 5 13 -46 -20 -2 2
1532264650053251 23 9 12 56 11 -5 -2 -4
1532264650075193 -7 -5 -7 -9 20 7 25 4
1532264650098131 -5 0 -1 -7 -13 32 -41 -10
1532264650120072 5 -3 -4 -14 7 -85 11 1
1532264650157972 -8 -3 -5 -9 -11 -61 37 -3
1532264650187892 -2 -3 -4 0 -41 24 16 0
1532264650315550 6 1 3 1 -6 4 16 5
1532264650337491 -2 -3 -3 -8 -6 -3 0 1
1532264650383368 -4 -3 -2 -5 -17 -11 -11 -3
1532264650405311 -6 0 -1 1 14 35 7 3
1532264650428249 0 2 -3 -7 -7 -37 -1 1
1532264650443208 -4 -8 -8 -2 -2 -4 10 -3
1532264650480110 0 2 -4 6 -12 -11 10 2
1532264650503049 1 -4 -4 -4 6 9 12 -1
1532264650518008 0 5 4 2 30 6 -14 -1
1532264650532969 0 -3 0 -5 -8 32 -3 -2
1532264650554910 -1 -2 1 2 -28 1 -2 -3
1532264650577848 -3 -17 -14 -15 -10 -52 -1 -4
1532264650615748 -3 2 -3 4 17 14 -2 -2
1532264650652649 0 -14 -10 -1 10 6 -4 -1
1532264650675587 -1 -6 -5 -10 -8 -28 -2 -1
1532264650743406 0 21 22 -8 -1 61 -10 -1
1532264650788286 1 -6 -7 0 19 14 1 -2
1532264650825187 -1 9 5 -1 6 7 9 -3
1532264650878046 -20 41 14 0 4 -10 -22 -24
1532264650899987 -2 5 0 1 -7 -15 -4 1
1532264650914946 3 -2 0 8 -17 30 -20 -2
1532264650937886 -5 5 5 4 16 21 -1 -13
1532264650952847 7 1 2 5 50 30 -5 -5
1532264651005704 1 -12 -10 -2 -19 -12 8 -2
1532264651102446 0 -8 3 6 31 3 -32 -1
1532264651163283 1 -5 -1 -2 17 12 -3 -11
1532264651282962 5 15 5 -1 -21 -7 -1 -7
1532264651387683 11 2 -1 -4 17 -2 11 4
1532264651440542 8 -3 -3 -5 -11 -5 -15 -1
1532264651463490 5 2 -6 -4 -8 -5 -3 7
1532264651523320 -53 14 -15 -5 7 -22 7 -40
1532264651568200 46 8 11 0 3 -1 -4 23
1532264651613080 -21 -4 -5 -1 -3 2 -11 19
1532264651679902 -28 2 5 -3 -5 -8 -20 2
1532264651702840 2 -12 -16 1 -3 1 -7 4
1532264651747720 -24 -24 -52 -4 -3 10 13 18
1532264651822520 -24 -4 -2 -2 11 9 -13 1
1532264651965138 -1 11 15 0 5 9 0 -4
1532264652003037 18 -18 4 4 -2 -3 -9 1
1532264652039939 9 28 19 1 6 17 5 -3
1532264652062898 -2 -4 1 -1 1 2 -15 -5
1532264652100797 3 47 32 -1 -7 1 9 -2
1532264652115758 -16 -1 4 0 0 5 -1 -6
1532264652190558 -6 9 5 -1 -1 -1 -4 -1
1532264652273336 -2 -6 -2 -1 -8 2 1 -2
1532264652318216 1 -2 2 9 -28 -4 -3 -1
1532264652399997 -1 1 3 14 14 -11 5 -1
1532264652437896 0 -1 3 10 1 -14 -1 -1
1532264652490754 0 -1 0 1 7 32 -2 0
1532264652527656 3 -2 -4 -2 -11 -36 2 0
1532264652572535 -2 -1 -4 -5 -4 27 -3 -5
1532264652633376 -5 -2 0 2 -8 -18 5 -3
1532264652655314 2 -2 0 -1 -5 16 6 -1
1532264652760035 -15 -3 -1 -3 8 7 4 -2
1532264652917613 1 1 -2 0 11 19 4 -1
1532264652941549 4 -2 -1 1 9 6 7 2
1532264652978451 -3 1 -2 2 0 22 4 2

1532264653008370 1 -3 -2 -1 -5 -11 -4 -3
1532264653060232 -2 1 1 1 -15 1 5 -1
1532264653090152 0 0 2 -1 10 2 1 0
1532264653128051 -2 -2 -1 0 -5 -3 -4 -2
1532264653143011 0 -2 0 -1 1 13 -4 0
1532264653157970 -1 -2 -1 -3 1 7 -2 0
1532264653172930 -1 0 -4 -5 -7 0 -2 -2
1532264653187890 0 -1 0 0 -2 -8 -2 0
1532264653217810 -1 1 -2 -13 2 -31 -5 0
1532264653240750 0 1 1 2 5 10 0 1
1532264653277650 2 3 1 -1 2 13 2 -1
1532264653300589 0 -4 -8 -11 7 25 5 0
1532264653345469 -1 -1 0 -4 -5 -14 -2 -4
1532264653390354 -1 -2 -3 -10 -7 -6 -2 -1
1532264653413288 0 -1 -1 -7 -14 -7 -2 -1
1532264653428247 -2 -3 2 5 12 22 -2 -1
1532264653480109 -4 -2 -1 -5 -22 -61 -2 -4
1532264653518007 1 1 1 7 12 10 3 -2
1532264653539948 0 1 -1 4 3 -32 1 0
1532264653554908 -1 1 0 2 1 17 3 -2
1532264653570866 1 2 3 7 18 11 -2 1
1532264653630706 -1 3 2 7 0 -7 1 1
1532264653667608 1 -3 -3 -8 -8 -18 -1 -3
1532264653690546 -3 -5 -2 0 -8 2 8 -14
1532264653765347 -1 -2 -2 -4 -4 0 -3 -6
1532264653796264 -1 -1 -2 0 8 -30 -7 -2
1532264653840146 -1 2 1 -7 -1 9 -3 -1
1532264653870066 0 -1 2 4 -7 -23 1 0
1532264653885026 -2 -1 -5 -5 2 -1 -1 1
1532264653930911 -2 -2 -2 2 17 -6 -2 3
1532264653960823 1 0 -3 9 -35 -14 -5 -7
1532264653982764 -2 0 -11 17 54 16 -13 -14
1532264654027645 1 -1 -2 10 -1 16 7 3
1532264654042604 4 2 13 51 -29 20 -5 2
1532264654080503 -5 -5 -10 -24 14 -22 -9 -1
1532264654125383 1 -2 -6 -11 -37 -28 -1 -3
1532264654155304 -6 -2 1 24 12 25 8 0
1532264654178242 -15 1 1 11 40 58 0 -5
1532264654223154 -2 1 4 1 -41 -89 -19 -2
1532264654260023 5 1 0 5 1 -38 -5 -3
1532264654297922 14 6 9 30 28 33 -1 7
1532264654327842 10 7 27 96 55 -8 37 5
1532264654387681 1 -12 -10 -16 -8 18 -19 -6
1532264654425585 0 2 -2 6 46 12 -18 -10
1532264654500380 -19 -2 6 2 0 -64 32 -1
1532264654553239 -34 15 5 -4 -35 -27 -28 4
1532264654568199 16 -7 -21 -49 40 43 20 5
1532264654590159 10 -3 1 13 23 -28 10 4
1532264654664940 -4 -10 2 -2 -21 -28 -11 7
1532264654740738 19 -2 2 2 -23 16 1 6
1532264654770658 3 3 0 10 10 -49 -6 -6
1532264654898317 2 22 -2 2 11 14 -4 4
1532264654943196 -1 1 -1 0 8 -3 1 4
1532264654965138 -8 -1 0 1 -2 -3 -11 -22
1532264655077836 -2 -5 -3 -2 -4 -12 -2 2
1532264655145655 1 -7 -4 -14 -11 -54 -6 -2
1532264655160615 -25 -8 -3 -5 -2 10 8 -7
1532264655205496 -11 -4 -2 -10 -9 -54 -14 -5
1532264655236413 0 -1 2 6 -16 17 -4 -3
1532264655273313 -8 -2 1 3 -3 9 -1 -7
1532264655288274 13 -2 -1 1 -14 -3 2 -1
1532264655303233 -1 3 2 -3 3 34 1 2
1532264655325175 -9 -4 -4 -1 6 7 2 2
1532264655370055 13 -1 -2 5 6 2 3 4
1532264655385014 -12 -2 -5 -1 3 -1 -1 -2
1532264655407964 -6 -2 -4 -3 -3 11 10 -1
1532264655452833 -2 1 1 -2 6 4 -15 -3
1532264655467793 -6 1 1 3 -7 -16 4 0
1532264655497713 1 -2 0 -2 1 20 -3 -7
1532264655512673 -6 -1 -2 2 7 11 -13 -4
1532264655557553 2 0 -2 1 -4 13 7 0
1532264655580492 -3 -5 -7 -9 32 18 3 -3
1532264655625373 -1 0 -1 -20 -20 -29 -1 1
1532264655641329 7 0 -2 4 -11 -9 4 7
1532264655670252 -3 -1 -1 -5 3 -9 -6 3
1532264655685213 1 1 -3 8 11 -10 7 3
1532264655723111 1 11 1 -8 -2 -8 -13 -6
1532264655753031 8 -1 -2 -9 -3 10 2 1
1532264655797911 3 0 1 6 9 11 6 3
1532264655820850 -9 -2 -5 -1 10 -1 -17 -5
1532264655850770 1 -1 -1 5 -10 34 13 2
1532264655872711 -12 -3 -3 -13 -30 -11 2 -2
1532264655902631 5 1 0 -2 12 28 1 -6
1532264655947511 4 0 1 -3 7 4 -11 -3
1532264655962470 -1 2 2 3 13 2 -5 0
1532264656023308 0 19 16 -7 -15 5 -6 1
1532264656053228 4 22 23 -8 -14 -5 6 5
1532264656128028 -1 13 5 -2 -4 3 0 -1
1532264656142988 -21 -6 -9 -6 6 1 10 0
1532264656172908 -3 -1 -10 0 -4 -10 -6 -10
1532264656187867 8 1 1 -8 5 15 13 7
1532264656217788 0 5 1 22 4 -8 -1 -3
1532264656232748 14 5 9 11 -6 -44 -10 -5
1532264656277628 7 2 3 -9 -5 -32 -4 1
1532264656337468 -7 -6 -3 -57 -41 11 17 -1
1532264656443185 -3 5 12 2 37 -12 -5 -3
1532264656465127 -8 -9 -6 -49 7 5 -13 -4
1532264656503026 -2 -5 -3 -15 -46 -52 4 1
1532264656555901 0 2 3 17 47 -17 -23 -6
1532264656592785 -3 -4 1 1 -17 13 16 2
1532264656660603 -6 0 5 0 -28 -34 -30 -3
1532264656682545 2 1 0 12 -1 0 16 2
1532264656743386 -1 -2 -1 -1 15 -11 17 4
1532264656773303 1 3 8 8 -17 -56 5 3
1532264656833142 3 2 2 6 20 45 -2 5
1532264656870043 -2 -2 -5 -7 1 -7 7 -1
1532264656922902 -3 -3 -2 2 -3 6 3 -1
1532264656982743 1 4 7 24 -1 0 -4 -2
1532264657057543 -3 -2 -1 -5 -31 -7 4 -1
1532264657095441 -2 -3 -4 -3 -3 -3 1 2
1532264657110401 0 0 0 -4 -2 -5 -1 -2
1532264657148300 -2 -3 -3 -3 1 2 -1 -2
1532264657170241 -1 0 -1 1 17 3 1 0
1532264657185201 -1 0 2 10 -21 -12 9 0
1532264657230081 0 -3 -1 1 16 16 -22 1
1532264657253020 0 -3 -5 -13 -14 -14 -8 -1
1532264657274962 -3 -5 -8 -26 7 -36 -4 -4
1532264657290919 -1 0 -2 -3 3 60 2 1
1532264657320839 1 0 4 15 2 7 -2 2
1532264657342780 -2 28 9 -2 2 17 -1 -3
1532264657380679 2 -3 -3 4 4 -34 -2 1
1532264657402619 1 -8 0 21 10 -9 8 1
1532264657464454 -3 -11 -8 -11 8 0 1 -5
1532264657493378 -2 -4 -3 -1 -29 18 2 3
1532264657508349 0 1 1 -3 -5 -22 -5 2
1532264657538257 2 4 0 -4 -6 18 0 -4
1532264657560199 -2 -4 -3 -3 -14 -23 -7 -1
1532264657598097 -3 -14 -8 -1 -2 -17 9 4
1532264657620038 2 22 10 -4 -5 5 -3 -3
1532264657649958 -1 8 2 2 7 50 10 -2
1532264657717791 -1 -9 -3 -3 6 18 -6 -6
1532264657777617 0 -3 1 1 -19 -12 -7 -14
1532264657853414 -7 -4 -2 0 -17 -32 -2 -2
1532264657980076 7 -1 2 3 12 21 11 10
1532264658040913 -2 -9 -7 2 -9 -6 -5 -5
1532264658182534 -2 -7 6 -2 3 -10 5 -3
1532264658212454 1 2 1 -2 -13 -3 -6 2
1532264658250353 0 0 -4 0 -26 -62 -25 -7
1532264658295233 22 24 -4 0 -3 -24 -6 2
1532264658348091 -12 1 -14 -3 12 14 6 4
1532264658407932 -10 1 25 1 1 11 -16 -9
1532264658437852 -17 62 51 3 1 3 18 -1
1532264658460790 -2 -36 -33 -8 -7 -12 1 6
1532264658557539 -11 2 -14 8 7 -4 -4 -8
1532264658595430 23 46 26 8 -12 0 -1 7
1532264658663249 0 0 -3 -4 3 -9 0 2
1532264658685190 -19 4 15 5 4 4 11 -1
1532264658790908 21 30 46 1 0 -12 5 25
1532264658812849 -3 -17 -7 -9 -16 10 21 1
1532264658835788 -25 -38 -6 -6 -8 -14 0 -6
1532264658887648 2 4 3 12 7 -26 -17 2
1532264658925547 6 13 5 9 -32 -5 -26 1
1532264659030267 -4 11 2 -14 -8 -9 -6 -10
1532264659105067 -9 -8 -7 -1 -1 -3 -6 -9
1532264659142965 -2 6 5 7 25 35 6 24
1532264659157927 -27 -25 0 8 31 18 -4 3
1532264659172886 -8 9 -2 -6 -31 -38 -12 -2
1532264659247685 -10 5 -1 -2 11 12 -1 5
1532264659292565 1 6 4 5 12 27 5 2
1532264659330464 -1 5 5 6 10 16 8 3
1532264659375344 -2 -1 -6 -13 -20 53 14 1
1532264659405265 0 -1 -2 -1 -9 -31 3 0
1532264659450144 -1 -4 -2 -2 -2 40 -2 0
1532264659473083 2 4 2 8 5 9 5 -2
1532264659540915 -11 -4 -4 0 9 3 4 -7
1532264659562843 -22 -2 -1 2 -4 -14 -1 -18
1532264659585781 -1 1 0 -2 -7 -5 5 0
1532264659645621 -2 0 -1 -1 -5 -12 -2 2
1532264659668564 -6 -3 -1 -3 5 12 1 -2
1532264659735382 6 -1 0 -1 -7 17 -5 -1
1532264659758321 -3 0 -1 1 -10 -9 0 10
1532264659788240 20 2 0 -4 -20 -2 -2 -7
1532264659810182 -7 -2 -3 -1 4 -14 -2 3
1532264659833120 2 -2 -1 -2 2 12 2 2
1532264659848081 -6 -1 -2 0 5 2 4 -3
1532264659870021 -6 -2 0 -1 7 10 0 -2
1532264659892961 -6 -2 -3 -3 1 13 11 -4
1532264659922880 -3 -2 0 0 1 4 -7 0

1532264659945819 -1 2 1 1 -1 -12 -6 1
1532264659960779 -1 -3 -2 -1 -2 -4 -4 -3
1532264659990700 2 0 -1 -2 3 9 0 2
1532264660005659 -2 -1 0 -1 5 1 -14 3
1532264660051561 29 0 -3 -1 -10 -18 0 9
1532264660065524 1 -3 -1 -2 1 13 8 0
1532264660111401 -3 0 1 -2 -14 -11 -4 -5
1532264660125364 -7 -2 -2 -3 -8 -8 -7 -4
1532264660155284 -3 -1 -3 -3 -6 -14 -4 1
1532264660178222 11 -2 0 -3 -6 -9 1 1
1532264660223102 -4 -1 -1 -2 2 -3 0 -2
1532264660245043 -5 -1 -3 -2 -4 -14 2 -1
1532264660321838 -5 1 -3 0 1 14 6 4
1532264660335801 -7 -2 2 2 11 34 2 -1
1532264660387662 0 -2 -3 -2 0 -8 -2 -2
1532264660410601 1 0 -2 -1 2 11 4 2
1532264660440521 2 1 -2 2 11 32 6 1
1532264660462462 2 0 -1 -5 -6 -28 -5 -4
1532264660485400 0 -3 0 -4 1 -9 -1 -1
1532264660500361 2 -1 -2 4 -3 -20 -9 -1
1532264660530281 0 1 1 13 34 65 0 -3
1532264660553219 -2 1 -5 -12 -9 46 11 1
1532264660590120 1 -1 1 7 -11 -6 -6 -3
1532264660620040 -3 -3 -7 -7 -6 1 0 -2
1532264660642979 -1 -3 -1 -1 -4 18 0 1
1532264660672899 -1 0 -3 -8 0 25 -1 -2
1532264660695838 0 -2 -3 0 -13 -27 -2 0
1532264660725758 -1 0 3 -4 -16 -26 -17 -3
1532264660747699 0 3 2 -11 -21 -12 -19 -1
1532264660770638 -2 -7 -1 0 2 -4 8 1
1532264660807539 2 0 -7 -4 12 13 -1 -1
1532264660845438 -1 -1 -3 -6 -3 -2 0 -1
1532264660860398 -2 -1 -3 -14 -25 -4 2 0
1532264660898296 -2 -4 -2 -2 7 6 1 -3
1532264660920238 0 -1 -1 -7 -1 0 -2 -2
1532264660943176 -1 1 0 -1 -6 -3 0 1
1532264660973096 1 -3 -1 3 -3 -15 0 -1
1532264660995038 -1 -1 -3 -4 -1 1 -1 -3
1532264661040915 0 0 -2 0 6 -2 2 -2
1532264661070835 -1 -1 -1 2 12 10 0 0
1532264661100754 -1 -2 -2 2 2 18 2 -2
1532264661122697 1 0 0 -2 0 -4 -1 -1
1532264661160595 -1 -2 -2 0 -2 -2 0 0
1532264661182537 0 2 3 9 10 2 0 1
1532264661205475 1 1 8 23 10 -4 2 1
1532264661220435 0 -1 -14 -11 -6 -1 -2 -2
1532264661243374 -2 -2 -5 0 -5 12 1 -2
1532264661258334 -1 -4 -5 0 13 -5 -4 -1
1532264661280275 0 1 -4 -30 -14 -3 2 1
1532264661318174 1 3 25 -10 8 2 5 4
1532264661333134 -3 -8 -14 5 -16 4 -1 -2
1532264661363054 -2 -8 1 -30 8 18 1 -2
1532264661407934 -3 -3 -5 -16 7 -17 -4 -3
1532264661454808 1 -3 -4 -1 17 5 4 0
1532264661497703 2 -1 2 -9 -21 6 -13 -4
1532264661527614 1 -1 -4 -7 -9 34 11 2
1532264661587454 11 -3 -3 -11 11 -11 -10 0
1532264661633330 -2 4 -6 -4 1 -21 -1 -1
1532264661715112 -2 17 -9 -16 -80 -18 5 -1
1532264661753011 1 0 2 0 17 18 8 3
1532264661774953 1 18 19 4 5 4 4 2
1532264661827811 4 18 -12 9 2 11 3 4
1532264661887651 0 1 9 5 -18 -15 -14 -3
1532264661978410 12 -1 0 -4 -80 -19 -4 -3
1532264662015309 1 -15 -2 2 -9 -28 -2 2
1532264662060189 11 -15 -3 1 34 45 0 -2
1532264662142968 4 10 7 6 3 4 3 2
1532264662180867 -1 1 -1 -4 -14 -21 -1 0
1532264662217768 2 4 3 7 39 64 21 4
1532264662255667 11 -7 -2 -2 3 -3 -8 3
1532264662285595 -5 -1 -3 -6 -10 -7 -7 -5
1532264662308526 -5 2 1 -2 7 47 6 -2
1532264662345427 -5 0 0 -3 -13 5 17 0
1532264662428205 -3 -1 -4 -1 0 7 3 1
1532264662458125 1 2 5 10 14 -2 1 -10
1532264662495027 1 -2 1 6 4 2 0 -3
1532264662539909 0 1 5 8 -22 -20 -3 -1
1532264662577805 1 -1 -4 -3 3 -8 8 0
1532264662607725 -2 0 -4 -4 5 58 -8 0
1532264662622685 0 -4 9 26 19 24 1 0
1532264662645623 0 -4 -4 -15 -24 83 12 -4
1532264662682525 -1 1 3 1 28 24 -2 0
1532264662697493 0 8 0 10 28 67 -9 1
1532264662720424 -1 -1 3 -6 7 -62 -8 -1
1532264662743363 -4 -2 -9 -11 17 -3 -10 -5
1532264662765304 0 1 4 -4 -11 -10 -20 -2
1532264662788242 -6 -5 -4 1 -5 -27 -17 -4
1532264662803203 2 2 -3 -3 -4 -24 -16 -6
1532264662825144 1 -2 -4 -4 -11 -3 17 -1
1532264662848083 6 0 -1 -3 -1 6 -5 0
1532264662863043 -4 -2 -1 0 -2 6 7 -2
1532264662899944 -2 0 -1 -1 4 -4 -1 -6
1532264662945820 1 -3 2 -1 -6 14 9 -1
1532264662967763 1 5 2 0 4 12 8 2
1532264663020621 0 -2 0 1 0 27 0 -1
1532264663057523 -1 -3 -2 -5 -8 -8 -4 -1
1532264663088440 -1 -2 0 0 -5 0 -5 0
1532264663133319 -2 -2 -5 0 0 -9 -1 -3
1532264663163240 -3 0 0 0 1 -1 -3 1
1532264663193160 1 -3 -3 -1 -4 -2 5 -1
1532264663238040 1 -1 -5 -12 -6 -11 -3 0
1532264663259981 0 -3 0 -7 -29 -12 -4 0
1532264663282920 -2 -1 5 16 16 3 0 -2
1532264663305858 0 -11 3 12 22 3 -3 3
1532264663335778 -3 11 -4 -11 -5 -2 1 -2
1532264663359715 -1 -3 -2 4 -18 -5 3 0
1532264663387640 -1 -4 -1 -1 -3 -9 -11 -4
1532264663417560 -2 -7 -2 -4 -5 3 2 -2
1532264663440499 -4 -1 -4 -4 -6 2 1 -2
1532264663463437 -2 -2 -1 -1 -2 -9 -8 -4
1532264663493357 2 -2 2 0 7 15 0 8
1532264663553197 -5 0 3 -3 -8 17 3 9
1532264663568157 -6 -4 -2 4 5 2 -16 -7
1532264663605058 -1 -13 -4 -3 -7 -2 11 -2
1532264663627997 8 -21 -13 -7 -2 4 -3 -6
1532264663657918 -2 5 -5 -7 -29 -45 -22 -3
1532264663672877 -7 -6 -3 -1 -8 4 1 3
1532264663687837 6 24 21 5 13 -6 7 2
1532264663717756 -4 2 2 -2 -6 26 -2 -1
1532264663762637 -3 -6 1 9 9 8 11 0
1532264663785576 2 0 -3 -2 1 -12 12 0
1532264663807522 2 -10 -13 -5 -16 -5 5 -1
1532264663830456 0 4 9 7 15 -3 0 -1
1532264663860375 -11 -14 -8 11 3 2 11 9
1532264663883314 17 -5 -13 -3 -11 -21 -20 -7
1532264663943154 -4 -2 1 1 1 14 2 0
1532264663988034 -2 2 10 16 -28 5 26 1
1532264664009975 -4 1 -2 -10 12 27 1 -2
1532264664032914 2 -1 1 1 -13 -74 27 0
1532264664062834 -7 -3 -5 -2 20 47 26 3
1532264664122674 -2 1 2 13 1 -19 -8 -1
1532264664160573 -5 -3 -1 -3 -5 -26 -11 -4
1532264664212437 0 1 4 17 -10 1 -3 1
1532264664273271 -2 1 2 20 31 43 7 -1
1532264664295213 4 7 6 19 2 -5 -5 0
1532264664348071 0 0 -6 -3 -17 -13 -37 -4
1532264664422871 -5 -5 -4 -2 5 -29 -4 -6
1532264664512632 -1 -1 -1 1 -7 -8 -1 -2
1532264664550530 -1 -2 -3 -4 -3 1 0 0
1532264664580450 -3 0 -1 5 -4 -2 -2 -2
1532264664618348 -2 -1 -3 -2 -6 -4 10 -1
1532264664640310 2 0 3 4 2 1 -3 -2
1532264664655250 -1 2 2 2 -1 -2 -6 0
1532264664708109 0 2 -1 1 -2 -3 -9 -4
1532264664759970 -3 -2 -1 -2 -3 -2 -1 -1
1532264664782909 -1 -3 -1 0 -4 -2 -1 1
1532264664842749 -7 -5 -10 -40 -4 -12 -4 -4
1532264664895607 -3 -2 -3 -10 -9 -4 -1 -1
1532264664955448 2 -1 -1 -8 7 32 4 0
1532264664978386 2 -3 4 -3 51 77 3 1
1532264665030247 2 5 1 7 11 36 2 1
1532264665083106 -3 0 3 0 -19 -30 -3 -3
1532264665157912 -1 -2 -3 0 -5 -17 -3 0
1532264665172866 0 -1 -2 -4 -2 5 0 -1
1532264665232705 -5 -3 -2 -14 2 21 1 -2
1532264665270605 -2 -4 -21 -23 -26 -38 9 0
1532264665292546 2 3 21 -22 -12 -7 2 1
1532264665322466 -4 -10 -15 -4 -51 6 1 -2
1532264665353400 4 8 55 112 2 0 4 3
1532264665390294 -2 -6 -19 -16 -5 -3 -2 -3
1532264665435165 -4 -5 -17 -7 0 4 -2 -3
1532264665495005 -3 -4 -8 -18 -4 -3 0 -3
1532264665532903 -1 0 3 12 0 3 -3 -1
1532264665577783 0 -4 4 4 6 26 6 1
1532264665600721 -1 -5 -6 0 0 0 0 2
1532264665630642 2 -5 -3 -5 -7 -22 2 -3
1532264665652583 -1 -1 -2 -2 34 59 6 -1
1532264665690482 2 -1 0 1 19 6 -20 1
1532264665712422 -5 -16 -14 -3 -45 -24 1 -3
1532264665810161 -3 5 1 -6 3 14 4 1
1532264665863020 -9 -6 -1 1 6 63 -27 -8
1532264665907905 2 -2 0 0 11 -8 1 -7
1532264665922860 -3 2 -4 -16 -9 32 5 -12
1532264665945799 5 1 4 3 -28 22 -12 -11
1532264665990690 0 2 3 9 23 38 38 14
1532264666027581 4 4 7 6 10 -18 26 3
1532264666057502 -1 2 2 2 -1 -4 12 -1
1532264666088434 -3 -8 -2 -2 -29 0 -37 -11
1532264666118338 -4 -9 -4 -3 1 -7 -1 -4
1532264666193138 0 -7 -1 -6 -22 -4 -8 -3
1532264666320796 -4 -8 1 -7 -3 18 -19 0
1532264666335761 -2 11 7 -6 4 -2 23 -2
1532264666380637 2 -1 7 8 13 20 16 -9
1532264666455436 -1 -4 0 -2 0 -1 22 0
1532264666508295 0 13 9 -6 -9 -2 -12 -6
1532264666583095 7 -28 -29 0 3 -2 5 13
1532264666598054 -2 -21 -10 -3 -2 12 3 -5
1532264666613015 -17 -2 75 6 -2 0 6 4
1532264666634956 11 -26 -46 -3 0 3 4 10
1532264666665873 10 0 27 2 1 -1 -5 -23
1532264666687815 -28 -32 -31 0 0 0 9 -9
1532264666732695 5 13 -5 -4 -4 16 -1 -1
1532264666815474 -7 7 -22 -8 -8 -5 1 4
1532264666831430 4 70 69 1 -4 -6 -4 16
1532264666868331 -4 -35 -56 -4 -14 -2 1 -3
1532264666898252 0 -31 -14 -3 -16 -3 4 -1
1532264666928172 -1 -17 -15 -4 5 -11 1 -2
1532264666950113 5 18 -10 -5 1 21 -5 -3
1532264666980033 -6 -12 -11 8 -7 -18 -20 1
1532264666994993 -12 10 4 -3 12 26 15 -12
1532264667009954 -3 -18 4 0 -5 -5 -6 1
1532264667032892 3 6 1 0 0 -8 -10 -1
1532264667047852 -4 5 7 2 0 11 5 0
1532264667077772 -1 14 8 0 1 -13 -6 5
1532264667092733 3 17 41 13 5 -3 -5 -1
1532264667115671 3 -12 -25 -2 8 0 14 -2
1532264667130645 -4 -5 8 -1 -8 3 4 3
1532264667152572 -6 -2 -3 -3 1 7 10 0
1532264667167532 0 -21 -26 -6 -5 0 7 -6
1532264667190477 -8 -9 -19 0 1 -2 -3 -2
1532264667205430 -2 5 34 4 0 -3 -2 1
1532264667228370 -7 -37 -17 -1 2 2 -5 -8
1532264667250310 1 -12 -22 -2 6 -8 8 4
1532264667273249 -5 -23 -10 -3 -6 -15 -3 -5
1532264667303170 2 5 7 -3 -5 5 1 -2
1532264667318129 -3 -1 -2 -2 -7 -1 -4 3
1532264667355031 1 2 9 -1 -4 -10 0 0
1532264667377969 1 -2 -12 0 -2 -1 2 -4
1532264667392929 -17 5 1 -2 -2 0 -4 -5
1532264667422849 -1 5 2 -3 1 6 -5 0
1532264667445788 -2 -1 1 -2 -3 3 -2 5
1532264667475708 0 4 2 1 0 1 -1 0
1532264667490667 -9 -1 -2 -4 -2 -1 -17 -4
1532264667505628 -5 0 -3 -2 -2 -1 0 1
1532264667542529 -3 1 -2 -1 -3 1 -2 0
1532264667565468 -1 -1 1 -2 9 -6 -8 -1
1532264667595388 -3 4 -1 1 9 31 10 0
1532264667618327 3 1 1 0 -22 1 6 2
1532264667655228 -1 0 -3 -3 6 6 8 -1
1532264667670188 -4 -3 -2 -9 -9 -12 -2 -1
1532264667715068 15 -3 -2 -3 -21 -61 -13 0
1532264667730028 2 -2 -3 -3 6 -28 -3 -2
1532264667775907 -4 -1 -2 -2 -6 -14 -7 6
1532264667812806 -15 -2 1 3 -4 -16 -1 -6
1532264667842726 0 -2 0 1 -1 -2 -1 -3
1532264667872646 -3 -2 0 0 -15 -9 3 -2
1532264667910545 -2 -3 -1 1 3 3 8 0
1532264667933484 2 -1 -1 -1 -1 25 0 -6
1532264667955425 29 -2 -1 0 0 16 1 1
1532264667985354 -19 0 -4 -6 -5 -20 -11 -3
1532264668000313 -4 1 0 -1 -4 0 7 1
1532264668032232 -7 -4 -1 -2 -7 -5 -1 2
1532264668045193 -8 -1 -1 0 -1 -4 -4 -1
1532264668075114 -3 0 0 0 1 44 -10 -4

1532264668098052 -11 -1 0 1 -4 -9 -2 1
1532264668113012 -4 -3 -1 -1 -2 13 12 -1
1532264668157903 5 1 0 1 -2 11 -2 5
1532264668180831 7 1 -2 -1 2 9 4 0
1532264668202772 -8 -1 3 1 1 -4 -6 -5
1532264668225711 2 -3 -1 -3 3 -3 2 3
1532264668256657 -6 -1 -2 0 2 5 4 2
1532264668270619 -21 1 2 -2 -2 -19 -6 -2
1532264668300539 -2 -2 -2 -3 -2 1 4 -1
1532264668322480 3 0 -2 0 0 -6 11 3
1532264668337440 -3 -2 -1 -2 -5 -14 -4 -4
1532264668368358 -4 -2 0 0 -1 1 -8 0
1532264668390300 5 -2 -3 -1 0 -5 -6 -2
1532264668413238 -4 -1 -5 -1 0 -10 2 -2
1532264668428198 27 0 -1 -2 -4 -8 3 4
1532264668450139 0 1 2 -3 -4 -2 0 1
1532264668502998 -4 0 2 -1 -5 -21 0 2
1532264668532918 8 1 0 -1 -6 -16 -11 3
1532264668585776 0 4 0 2 -6 -11 -1 2
1532264668607718 -2 -4 0 2 7 32 -1 0
1532264668630656 -2 0 -1 -4 -7 -12 -3 0
1532264668660576 -1 2 3 2 -1 -54 -1 1
1532264668682517 2 1 2 5 -3 -4 3 2
1532264668697478 -3 -4 -5 -14 18 31 1 -3
1532264668720416 0 0 0 -6 3 12 2 -1
1532264668750336 -1 0 -3 -5 33 13 -3 -3
1532264668765296 1 2 1 8 -32 8 -1 1
1532264668803195 -2 -3 -3 -13 1 1 -2 -2
1532264668848075 1 2 -1 4 9 8 5 0
1532264668870016 -1 -1 0 2 8 31 5 -1
1532264668884975 4 -1 0 -1 -8 -5 2 4
1532264668899936 16 -2 -3 0 -3 -1 -12 -12
1532264668922874 -6 0 1 1 1 0 2 -1
1532264668952795 -3 -1 -2 -1 -8 -20 -3 0
1532264668967755 -2 -1 1 0 5 7 4 3
1532264668997675 -3 -1 -2 -2 -5 -16 -1 1
1532264669012635 -2 -2 -3 -1 2 15 2 -2
1532264669042555 1 -1 0 -1 -1 -4 1 0
1532264669072475 -1 -3 -2 -1 2 -7 -1 -2
1532264669095413 -1 0 2 -1 -5 -5 0 0
1532264669125333 -1 -3 -3 -3 0 -5 -2 -3
1532264669140294 -3 -1 -1 1 1 3 -1 -1
1532264669163232 -1 -2 -3 0 0 1 1 -1
1532264669185173 -2 -1 0 0 -1 -4 2 -1
1532264669200134 -1 -2 -1 0 1 14 -4 0
1532264669223072 -1 -1 -5 -4 -2 -4 1 0
1532264669252992 1 2 3 20 5 -11 0 1
1532264669274934 -2 -2 -3 7 13 22 -4 -1
1532264669290891 6 5 12 12 -18 -2 18 9
1532264669305851 1 6 16 24 15 -11 1 -8
1532264669320810 1 2 21 -11 -47 -23 -7 4
1532264669342752 0 -4 -22 -41 -3 1 3 -2
1532264669365690 -2 3 42 46 0 -10 -1 -5
1532264669387632 -4 -1 -21 -18 -49 -11 -8 1
1532264669410571 -1 -5 -20 6 -28 7 -2 -8
1532264669432512 -2 -13 -14 -17 6 -11 5 -1
1532264669447472 -3 -5 4 -21 -13 31 -2 -1
1532264669508309 3 0 -7 -8 11 18 5 4
1532264669538230 -2 0 2 -7 -22 -34 -5 -6
1532264669583109 -16 2 15 13 2 -1 -7 -4
1532264669613029 -3 -2 -10 -19 -26 22 -1 -5
1532264669672869 1 -10 -7 -15 5 -1 2 -1
1532264669785573 3 29 5 -1 12 30 -11 -1
1532264669838426 -1 3 -2 -2 -36 -26 4 1
1532264669875329 1 4 18 12 -51 -31 1 -2
1532264669890288 -4 25 11 -12 5 -17 -2 2
1532264669950128 -4 24 2 -24 -3 -11 -2 -3
1532264670002987 -22 2 20 47 7 -1 13 -2
1532264670024928 -12 -26 -8 -25 -92 -27 -12 -13
1532264670055845 9 21 -2 -7 22 -8 13 3
1532264670100725 9 -10 6 51 -2 1 -7 1
1532264670130652 -7 7 -4 -3 -21 -25 6 -2
1532264670152602 -2 -1 -2 -10 -50 12 -15 -3
1532264670205445 9 -22 9 14 -49 35 8 5
1532264670228383 -2 -2 -13 -14 -1 -4 -2 -8
1532264670250325 -4 -7 -8 -2 -15 -15 -7 -3
1532264670280245 -9 -15 5 6 18 20 -3 0
1532264670318143 -1 -13 -9 -9 0 -10 11 -4
1532264670340086 -8 -8 -1 -9 -2 -7 -3 -2
1532264670377984 17 -4 -2 0 -1 16 16 -2
1532264670392944 -12 -2 -6 -4 5 -9 -6 -2
1532264670422864 3 -3 1 -5 -1 -8 -3 -2
1532264670437824 -2 -4 -5 -3 0 0 -7 -2
1532264670460762 0 -1 -2 0 7 14 2 -2
1532264670482703 3 -4 -3 -1 1 -9 0 0
1532264670505642 -3 -2 2 -1 0 -6 -3 -2
1532264670527584 1 -3 -5 -21 -23 3 0 -1
1532264670542544 -1 -2 -2 7 -15 -1 -8 -4
1532264670580443 -3 -3 -3 -13 3 3 -6 0
1532264670618341 0 -1 3 -9 2 5 -1 0
1532264670640283 0 2 0 15 1 3 0 2
1532264670670202 -5 5 0 -2 -4 -35 -16 -2
1532264670693141 1 0 2 -2 10 17 18 3
1532264670708114 -1 -3 -4 1 -13 -16 8 -5
1532264670723061 1 -2 7 3 13 28 4 0
1532264670767940 -3 -15 3 2 7 30 8 -1
1532264670782901 10 4 2 9 23 6 -1 5
1532264670805840 -5 -3 5 -1 -3 -22 -22 -6
1532264670827780 -22 9 -3 -5 -8 -33 3 2
1532264670857701 7 1 0 -1 -8 18 -2 3
1532264670887621 3 1 -7 -3 17 -12 -6 0
1532264670910560 2 0 -2 3 6 8 2 -3
1532264670925520 -4 0 -1 -1 -24 -37 -1 2
1532264670962421 3 1 3 2 3 7 -4 5
1532264670978393 0 1 -2 1 -10 6 2 -3
1532264671008303 2 2 -2 -1 -11 -7 3 -3
1532264671038218 3 -2 -3 -1 -6 -6 1 -1
1532264671060160 -5 0 0 0 4 4 -2 0
1532264671083098 4 -3 0 -1 -1 6 5 1
1532264671098059 3 -6 -1 -1 -3 15 3 2
1532264671127979 7 -1 -2 -3 -2 -10 2 2
1532264671165877 -10 1 -4 0 5 -11 -1 -3
1532264671187818 -6 -1 -2 -2 -4 6 2 -3
1532264671232698 20 0 -1 2 7 28 1 5
1532264671262618 -3 0 0 -3 0 3 9 0
1532264671292538 -5 -3 1 1 2 11 -2 -1
1532264671353375 -2 3 -2 -2 0 -2 -8 -2
1532264671375332 -4 -3 -1 -4 -8 -14 -25 -3
1532264671390278 -5 1 0 -1 -4 -28 -9 -4
1532264671413215 4 -2 -1 -1 -16 -19 0 -1
1532264671443135 2 -1 -1 -13 -7 28 12 3
1532264671473055 -2 -1 -1 5 1 -7 -2 1
1532264671488015 0 -2 -6 -24 -50 -21 4 0
1532264671517936 -1 -4 -4 2 24 -18 1 -2
1532264671540874 27 3 2 2 10 2 -1 -1
1532264671577780 -2 1 2 4 13 26 -16 -7
1532264671600713 1 0 2 2 8 11 5 4
1532264671630634 3 0 6 37 29 8 0 0
1532264671645594 -4 -4 -4 -17 -2 -6 7 2
1532264671690490 7 -1 -1 0 2 -1 -2 -4
1532264671705434 1 -12 -4 -5 -6 11 -1 1
1532264671735359 7 -1 -5 -6 -10 17 16 -8
1532264671750314 -2 8 6 13 10 5 -5 -3
1532264671765274 -17 -4 2 -5 22 40 10 1
1532264671780234 -8 8 4 -10 9 3 3 -4
1532264671810154 1 3 -2 -3 6 31 11 -1
1532264671863012 -9 -3 0 1 10 -12 -11 -17
1532264671877976 -2 -7 5 0 -18 -7 -12 1
1532264671930831 -2 4 0 -2 -11 -75 -1 10
1532264671960751 -2 -7 -4 4 12 -31 -2 -6
1532264671990671 4 -3 -7 -3 3 33 1 -4
1532264672042533 -4 -5 -14 -9 30 20 16 -2
1532264672118330 -3 -3 -2 -3 -1 -28 -28 -8
1532264672148250 1 0 -2 -2 -13 7 -14 -6
1532264672244991 -2 -2 -5 -14 -2 0 -3 -1
1532264672282890 -1 1 -2 -2 5 18 18 2
1532264672305828 1 -1 -1 9 -14 9 13 -2
1532264672365669 1 0 -1 -3 -7 -44 5 6
1532264672425508 -2 -4 -8 -6 -29 5 46 1
1532264672447450 0 -1 0 0 13 -17 12 -1
1532264672500308 -6 3 4 2 12 14 -10 2
1532264672553166 -1 -2 -2 -5 -41 3 -4 0
1532264672598047 -3 -1 2 2 -6 -15 -8 2
1532264672770585 -2 1 -1 0 -2 3 -5 0
1532264672822447 -2 1 -2 -2 1 -4 -7 -2
1532264672905226 -1 -1 1 0 -3 0 5 -2
1532264673024919 -2 -2 -2 3 3 -31 -9 -3
1532264673047844 -1 0 -3 3 16 36 8 -1
1532264673107685 4 -2 -6 -3 -20 -91 -15 -3
1532264673167524 -3 -3 -6 -10 36 60 4 -1
1532264673197444 -3 -2 -1 -4 4 4 -3 -2
1532264673250303 -3 -5 -1 -2 4 6 -3 -3
1532264673303161 0 1 -1 0 6 8 1 -1
1532264673348041 -2 1 0 -3 0 0 -1 -1
1532264673377962 -1 -2 -5 -3 -5 -1 -1 -2
1532264673415860 0 3 1 -2 3 2 1 0
1532264673430820 -2 2 7 8 -1 -8 -5 -3
1532264673445780 -3 -4 3 8 2 36 -8 -5
1532264673460740 0 -1 -4 -7 0 2 6 1
1532264673482681 4 4 3 -2 4 13 -2 -2
1532264673497642 -1 0 15 -8 -8 2 -3 1
1532264673512602 0 -3 -16 6 23 -13 2 4
1532264673535540 -1 0 18 2 -16 0 -3 -1
1532264673565460 -3 -2 34 -24 -9 -5 -5 -3
1532264673595380 0 2 22 16 9 5 5 0
1532264673618319 -3 -7 -20 -2 -6 -9 4 0
1532264673648239 1 3 9 -8 9 -1 0 0
1532264673708079 0 -2 6 -5 -5 4 -1 -2
1532264673752959 -1 -4 -9 -12 -9 11 2 -1
1532264673775897 -1 4 0 3 15 -2 7 1
1532264673805817 2 2 4 8 -31 5 -7 0
1532264673820778 -2 -2 -4 -4 10 18 0 -3
1532264673865657 -1 1 -1 -9 -28 18 3 1
1532264673880617 -2 -5 -3 0 -9 -6 -4 -2
1532264673895577 -2 -8 -2 -1 -1 9 5 0
1532264673917519 -1 4 -1 -3 -4 2 1 -1
1532264673932479 -1 -9 -3 -4 23 -14 13 7
1532264673955417 0 -7 -4 -2 -1 -23 -16 2
1532264673993316 2 10 1 -6 -8 14 -10 2
1532264674032229 -2 -7 -5 -3 29 65 -1 -4
1532264674068116 2 -2 4 26 -8 -18 -12 -10
1532264674090061 -5 -14 -21 -13 14 -2 3 2
1532264674112996 3 -4 -5 -3 5 7 13 -6
1532264674165854 1 -2 1 5 17 -10 12 0
1532264674202756 -2 -6 0 1 20 24 4 -3
1532264674217716 -3 -4 -3 -5 -10 -25 19 11
1532264674255615 16 1 1 -1 -12 -7 -15 8
1532264674322436 -4 -2 -4 -9 4 0 -17 -18
1532264674353353 -2 -10 1 -5 14 4 -4 -1
1532264674437129 7 32 -6 4 12 3 4 3
1532264674465054 35 -8 7 3 -2 -32 2 6
1532264674494975 28 13 -11 -5 -7 -3 -2 1
1532264674517915 -1 2 -26 -1 2 11 1 -14
1532264674540860 2 14 -24 5 3 7 2 -9
1532264674600692 -17 -51 -24 3 4 0 7 -12
1532264674645572 -8 -45 27 2 0 4 -4 8
1532264674667513 -8 28 -1 0 1 1 -3 7
1532264674690453 6 19 -1 -4 -3 2 6 10
1532264674705412 17 6 4 14 6 10 25 10
1532264674728350 2 28 0 -5 3 3 -7 -6
1532264674795172 3 4 -9 2 4 17 -9 -14
1532264674818110 -3 -3 45 -5 -2 -2 17 -4
1532264674848030 6 -7 -21 -6 5 -17 -1 8
1532264674869971 -1 -27 -31 -8 1 4 16 7
1532264674907871 1 -36 -11 -6 -9 0 0 4
1532264674930809 -1 -19 -41 -1 -6 -1 -11 2
1532264674945769 -3 -42 -20 1 2 -8 4 -2
1532264674982671 -4 13 27 -4 -6 -6 8 4
1532264675020569 10 -23 -20 -3 -1 -9 -7 0
1532264675057471 -1 -2 19 -3 -1 4 1 -2
1532264675080409 3 33 13 -1 -1 1 0 1
1532264675095368 -21 -37 -19 1 0 0 6 5
1532264675110329 4 28 -2 -2 -2 18 6 -4
1532264675155209 7 -5 -8 -3 -2 9 1 -2
1532264675178157 2 -15 -13 -1 -1 1 -1 -1
1532264675200089 6 -1 -3 -1 -1 -4 -4 1
1532264675252947 0 7 3 5 0 3 4 1
1532264675275885 -1 -9 -10 -4 0 0 -2 -1
1532264675312787 2 -3 5 1 -3 -8 -1 -2
1532264675357684 -3 4 1 -2 -2 1 -1 0
1532264675425486 -1 -1 -7 -6 -2 15 0 -3
1532264675455407 -5 -4 0 8 9 36 1 -2
1532264675478345 -1 -2 -4 -1 -23 -40 -2 -1
1532264675523235 0 -2 0 -2 -1 3 -1 -1
1532264675553145 0 2 0 -8 18 57 -5 -3
1532264675568119 0 -2 -1 -1 9 31 19 1
1532264675583064 -1 1 -2 -1 3 32 -14 -3
1532264675619966 2 -3 -4 2 15 -5 -12 -2
1532264675642905 -21 -7 -7 -1 -4 -16 -10 10
1532264675665843 7 -2 0 -2 9 9 16 2
1532264675695764 -14 -2 0 0 -6 1 -1 -6
1532264675717711 27 -3 -2 -1 -5 24 -7 -4
1532264675762595 5 -3 -3 0 -3 -13 0 0
1532264675777551 -2 0 -1 0 -1 -2 1 3
1532264675808476 3 -3 -3 -2 6 25 3 8
1532264675830410 -8 0 1 -1 -1 -3 5 -3
1532264675860330 -10 -1 -2 -2 0 -5 3 -6
1532264675890250 1 0 1 -1 0 8 0 -1
1532264675935130 7 -2 0 -1 0 12 -1 5
1532264675965050 -3 -1 -2 0 0 11 15 1
1532264676002948 4 -2 -2 -3 1 19 1 -1
1532264676017908 0 0 -2 -2 4 5 -10 -4
1532264676055807 4 -1 -2 0 2 -6 9 0
1532264676085727 -4 1 -1 -2 0 1 8 0
1532264676100687 3 -2 0 -1 -1 4 0 -1

1532264676137588 -1 0 -2 -1 0 1 -4 -1
1532264676160527 -3 -1 1 -1 -1 14 -5 -5
1532264676213397 -7 -1 -1 0 -6 -9 -5 -4
1532264676243306 -7 -2 -3 -1 0 5 8 -2
1532264676273226 -6 -1 -1 1 0 -1 1 0
1532264676303152 1 -3 1 0 -3 -7 -3 -2
1532264676318113 -6 2 -2 -2 -2 -4 6 0
1532264676348032 7 -3 0 -1 1 1 -13 2
1532264676369974 -4 -1 -1 0 -1 -1 -5 -3
1532264676385939 7 -1 -4 -2 -3 -4 7 -5
1532264676430811 -5 -1 -2 0 2 18 3 -2
1532264676445771 -2 -3 -2 -1 -3 -2 -1 0
1532264676482673 2 0 -2 -1 -3 -3 -5 -1
1532264676498435 0 -1 -1 0 2 10 4 -2
1532264676528357 -5 -3 1 -1 -1 2 1 -1
1532264676543316 -2 -1 1 -1 -1 -1 3 -1
1532264676565258 -2 1 1 -2 1 4 -4 0
1532264676595178 1 1 0 -2 1 -8 0 -1
1532264676618129 -1 2 -1 -1 -1 7 10 -5
1532264676642053 3 0 0 4 0 2 -4 -1
1532264676662997 -5 -4 -2 -1 1 -4 2 1
1532264676692918 0 -1 -1 -3 -1 -1 -1 2
1532264676737796 1 -2 -2 -1 0 -1 -3 -1
1532264676767717 -1 0 -3 0 -1 4 -2 2
1532264676805622 -2 -3 -7 -6 16 1 -6 -3
1532264676827563 3 -3 2 -2 3 5 3 1
1532264676850502 -2 -4 1 3 -3 6 -2 -1
1532264676873441 0 0 -1 0 -18 -2 0 1
1532264676888401 0 0 -4 -9 1 3 6 -2
1532264676903361 0 -1 3 0 -1 -20 -1 -1
1532264676925302 -2 1 0 -2 3 -18 -3 2
1532264676948240 1 7 5 -5 -6 15 4 3
1532264676970195 0 -1 0 2 3 0 -2 -1
1532264676993121 -1 2 -3 -2 4 3 1 -4
1532264677023040 2 0 1 -2 -6 -17 -2 -1
1532264677044982 -3 0 -2 6 4 26 2 -1
1532264677067921 -2 -2 7 2 -5 -16 6 -1
1532264677082881 -1 -3 3 -2 5 -5 -5 -2
1532264677105819 1 1 1 0 1 -3 -5 -1
1532264677127778 -3 0 -4 1 5 -5 0 1
1532264677142738 -2 -1 -2 -3 8 3 1 -1
1532264677165677 1 -2 -1 0 -4 -1 -3 0
1532264677187618 -1 -3 -7 -2 3 -2 -2 -1
1532264677202595 -3 -3 0 0 -5 -5 -4 -3
1532264677240480 1 0 -4 -1 1 -4 -2 -2
1532264677270397 1 1 -5 -3 -3 -2 0 0
1532264677300317 -1 1 -1 -3 -4 -5 2 -2
1532264677315277 -1 0 0 -1 2 6 -7 -3
1532264677338215 -1 -3 -1 -4 -4 -1 4 1
1532264677360157 0 0 -1 1 3 2 0 1
1532264677383095 0 0 -2 0 -1 0 1 -2
1532264677413016 0 -3 1 -2 0 -1 1 0
1532264677434957 -2 0 -3 0 -3 -3 -1 0
1532264677457905 -1 -2 -1 -2 0 -1 -1 -2
1532264677480834 -1 -1 -1 1 2 0 1 -1
1532264677495794 1 0 -2 1 -1 0 0 -1
1532264677517736 0 -2 -4 0 -1 1 0 0
1532264677547656 -2 -1 -2 -3 -3 0 -1 -1
1532264677562616 -3 -1 -1 -1 2 -1 -1 1
1532264677607495 -2 -1 0 -1 -2 0 0 1
1532264677622455 1 -2 -1 2 4 2 1 -1
1532264677637416 1 0 -1 -6 5 0 1 -2
1532264677668333 -2 -1 3 12 13 2 1 -3
1532264677683293 1 2 8 8 7 46 1 1
1532264677705234 -3 -5 -7 -11 -2 -5 -2 -2
1532264677720194 1 3 18 -33 -12 -4 2 1
1532264677735154 0 -3 -21 -14 20 13 0 -2
1532264677765074 -1 -1 2 8 -8 -6 -3 -2
1532264677788013 -2 -5 -11 9 -9 -16 -2 -2
1532264677802973 -1 1 12 20 -6 -10 -7 -1
1532264677825911 -1 3 0 12 -1 -5 7 -1
1532264677847853 -1 3 11 -6 -21 -8 0 0
1532264677862813 -1 -4 -3 -15 -38 -8 -3 -2
1532264677885751 -1 -2 -12 2 31 -3 -2 -3
1532264677915671 -1 0 4 -8 9 2 -8 -6
1532264677945591 -2 -1 -3 -2 -27 -12 9 3
1532264677997453 1 0 0 -11 -11 40 -1 3
1532264678035351 -3 -3 -20 -19 -5 24 -4 -2
1532264678065271 0 3 49 51 -25 -5 0 -3
1532264678103170 0 -1 -1 -16 -41 -13 -1 -2
1532264678125112 -2 -9 -3 7 26 21 -8 -5
1532264678163011 -6 33 23 3 -4 -2 3 3
1532264678192930 1 -8 -5 -10 -10 -16 -7 -4
1532264678245789 0 22 17 -4 -1 -8 -14 -7
1532264678275709 -10 -20 -35 -9 -6 -11 5 -1
1532264678312610 5 -7 -6 -10 -3 10 -3 -7
1532264678327570 6 -7 -22 4 44 8 10 1
1532264678382424 7 13 -10 4 25 -11 21 13
1532264678433288 -6 1 0 9 2 11 0 4
1532264678478167 6 -6 -14 -5 -5 21 9 2
1532264678530029 13 6 -3 -6 10 -35 -7 -7
1532264678597847 -2 -3 -5 -9 -20 -19 1 -3
1532264678642727 -1 1 -3 1 5 -5 31 2
1532264678702566 -3 -3 -4 -10 14 19 -8 -3
1532264678763405 -1 -3 0 0 18 -9 -18 -3
1532264678830226 -3 0 2 -4 10 -7 2 2
1532264678905026 -2 1 -3 -2 -7 -23 3 -1
1532264678927965 1 2 3 0 2 8 6 2
1532264678972844 1 1 1 -6 -1 -16 -5 -1
1532264678987804 -3 -4 -9 -20 -21 -17 8 -1
1532264679025703 -8 -1 0 5 24 43 -31 -5
1532264679047644 10 -5 1 3 24 31 -11 -5
1532264679077565 1 -4 -1 -2 33 2 21 -2
1532264679100503 2 2 0 0 38 1 13 4
1532264679145383 -1 -2 3 5 -17 -1 5 1
1532264679183282 -1 0 -2 -3 -7 -4 2 0
1532264679213201 2 -1 -3 -1 0 2 -7 -3
1532264679265063 1 -2 -3 -2 -10 -23 -2 0
1532264679288002 2 2 1 -1 2 0 -16 -2
1532264679325918 -1 -2 0 1 44 17 -7 -2
1532264679355821 -1 -2 1 -1 -4 9 -11 0
1532264679400700 -4 -3 0 0 -11 -5 -10 -6
1532264679445599 1 -1 -1 -2 4 -15 2 0
1532264679475520 -2 -2 1 -1 -8 11 1 -1
1532264679528378 0 -1 3 -4 -2 -1 0 -2
1532264679582234 -2 0 -1 2 -8 14 6 2
1532264679640079 0 -2 -2 7 6 -5 3 4
1532264679677978 -1 -3 -4 0 -5 5 11 7
1532264679722858 -1 -1 1 0 9 5 -10 -4
1532264679775717 -8 3 3 4 12 24 9 -1
1532264679827577 0 -2 -5 -7 4 9 12 0
1532264679865477 6 -2 -4 -2 -22 -17 -15 -5
1532264679933295 9 1 -4 -4 8 -16 -12 -14
1532264679955237 -27 2 2 6 3 2 10 6
1532264679985156 7 1 1 14 -5 -8 15 -2
1532264680008096 -12 -3 0 -5 -2 17 5 2
1532264680044996 0 6 6 23 -6 -11 2 7
1532264680067935 4 -2 -6 -15 -32 -2 -26 0
1532264680105834 -3 -3 -7 -7 25 -13 1 -2
1532264680157696 -5 2 5 10 -41 -2 -11 2
1532264680248453 -7 -5 -11 -16 12 17 -9 -1
1532264680353173 2 -4 -7 7 31 9 -1 -2
1532264680419994 1 -2 -5 -11 -28 -6 12 1
1532264680457893 -1 1 5 3 -41 0 -33 -9
1532264680525711 1 -1 3 7 -4 -23 42 10
1532264680540671 1 9 10 7 -25 -4 -79 -7
1532264680555631 3 -5 -7 -20 -18 -50 -27 -4
1532264680623450 2 0 -1 -4 -8 23 -43 -7
1532264680645391 -3 -2 1 9 17 7 -3 2
1532264680668329 6 1 1 9 9 6 22 0
1532264680683290 -5 -2 -2 -1 23 17 -7 -2
1532264680735151 -2 1 2 -5 -40 -13 2 -1
1532264680773050 -2 -1 -3 -38 -17 -29 7 1
1532264680870788 -2 -12 -2 -5 -2 0 4 -2
1532264680915668 -4 -7 -6 -4 -4 5 0 0
1532264680937610 -1 -2 -2 -1 -2 2 20 1
1532264680967530 10 1 -1 -1 -1 -2 -10 -2
1532264680990468 -1 8 3 0 -2 -1 3 -6
1532264681005428 -4 -2 0 2 -2 -1 -1 -1
1532264681050308 -3 -11 4 -1 -4 0 1 4
1532264681095188 -2 1 6 -2 0 -1 1 2
1532264681140069 -3 2 4 -3 -3 0 -1 -1
1532264681169988 1 7 6 -5 -17 1 0 0
1532264681200905 -1 -2 -3 -6 -5 -7 8 2
1532264681252767 5 4 5 21 -20 -11 8 3
1532264681267727 -2 -5 -6 -10 7 56 -8 -6
1532264681327567 11 -7 -7 -11 -44 -13 -20 -9
1532264681350505 -17 -1 0 0 22 -7 -5 -6
1532264681365465 6 -1 5 -10 -4 -5 4 -2
1532264681395386 2 -1 -2 -4 -7 -5 -4 0
1532264681418324 0 -11 -9 -3 -2 -11 -1 -2
1532264681433285 -5 -14 -2 0 6 4 -1 -2
1532264681470189 0 -5 -2 -2 -3 -7 -2 0
1532264681515065 2 6 0 1 4 1 0 1
1532264681538004 -3 1 -1 -7 -1 -2 -2 -2
1532264681582884 -9 -2 -8 -20 -4 -4 -1 0
1532264681620783 -2 1 -5 -9 5 15 -1 -2
1532264681635743 -13 -30 -17 -3 -15 -3 0 -9
1532264681672644 3 -6 57 17 28 5 3 9
1532264681687604 -9 -11 -42 -15 -19 -5 10 3
1532264681702564 6 -18 5 -26 17 -3 -4 -5
1532264681732484 -3 4 10 51 6 2 0 1
1532264681755423 -2 -3 -13 -30 -12 -2 -3 -4
1532264681800303 -2 -2 -19 -28 -12 -6 -8 -6
1532264681823241 -1 0 -2 -21 -19 -58 -5 -1
1532264681853161 0 2 8 -6 -7 -7 6 -1
1532264681875103 1 4 -4 3 -9 -45 -7 0
1532264681905023 -2 -4 -8 -1 -10 -47 -12 -6
1532264681919983 -2 -7 -2 -12 5 3 0 -1
1532264681972841 1 6 1 -2 2 21 1 1
1532264681995780 -1 3 3 2 -18 -17 2 0
1532264682025700 -1 -3 -4 -8 0 -29 -1 -2
1532264682040660 -2 -3 -4 -6 -16 1 4 -3
1532264682085540 -8 1 3 8 10 -6 11 -9
1532264682100500 2 -18 -10 -4 -49 -36 3 -2
1532264682122441 -1 5 2 -4 -15 -14 -1 1
1532264682213199 2 -9 1 -3 -19 -2 -1 2
1532264682422638 2 2 0 -7 -35 -19 1 -5
1532264682437598 -1 -7 -5 6 1 -10 -14 12
1532264682482479 2 10 6 10 31 20 -1 -1
1532264682521374 5 -2 -6 -8 -10 -7 -2 2
1532264682550297 -1 -7 -13 1 4 -5 4 4
1532264682603156 -8 -18 1 -12 -9 -14 9 -1
1532264682618116 21 -36 -11 -3 -1 -1 6 -1
1532264682684937 1 38 5 -7 -3 0 -2 16
1532264682700895 11 -5 -16 0 -2 2 1 25
1532264682737796 -7 -16 -14 -2 -3 0 -7 -7
1532264682782675 -9 -16 -5 -4 0 -3 -4 -2
1532264682812596 13 -19 -25 -5 -4 2 -3 -4
1532264682903353 -1 -3 -2 3 2 0 -1 1
1532264682918313 1 10 -17 -8 -15 -15 -3 -3
1532264683000095 10 9 3 -1 -5 1 -8 -1
1532264683044974 -9 -8 1 2 -3 -12 -13 -8
1532264683082873 0 9 -4 0 7 0 -2 -1
1532264683105812 9 -3 -8 -2 -2 -22 4 0
1532264683142713 11 58 16 0 5 14 4 7
1532264683165652 -6 -11 -3 1 -3 -8 -6 -3
1532264683180612 16 -18 -7 0 -5 -12 12 2
1532264683233470 -8 -14 -13 1 0 -6 1 -2
1532264683255411 -4 6 -18 -4 -2 4 1 0
1532264683278350 0 -10 -11 -1 2 3 2 0
1532264683323230 -1 -9 -5 2 -2 6 1 -1
1532264683360131 -1 -6 -3 0 -3 1 -2 1
1532264683412990 1 4 3 2 -1 1 -2 -1
1532264683525689 -2 -1 -1 -2 -2 0 0 -1
1532264683562590 2 -2 -1 2 -2 0 -2 2
1532264683600489 -2 -3 0 1 -2 -22 -3 1
1532264683623436 1 1 -3 -3 -5 -9 1 1
1532264683660329 2 1 4 0 7 36 -6 -3
1532264683683267 1 2 2 0 -1 -17 -1 0
1532264683735129 -1 2 -3 -7 -49 -25 -2 -2
1532264683780009 -1 0 0 -1 19 17 -1 0
1532264683794969 4 -1 -1 -3 -2 2 -4 -6
1532264683817907 -4 -3 -2 0 7 -28 0 1
1532264683840855 -7 -2 -1 -1 -5 -14 -8 -1
1532264683877747 4 0 -1 3 -8 7 18 4
1532264683915646 -14 -1 1 -1 8 3 -6 -4
1532264683937587 0 1 -2 -1 -5 -17 -7 -3
1532264683962521 -1 -2 0 1 -2 18 -1 -3
1532264683983475 -1 -3 -2 -2 -1 -2 5 -3
1532264683998424 -19 0 1 -5 2 -15 -8 -7
1532264684043304 12 -2 -3 0 -3 -2 -4 -2
1532264684058272 4 -1 -1 -1 -4 -35 -4 0
1532264684073241 3 -2 0 -3 -2 -7 -2 2
1532264684103145 2 0 -2 -4 -1 2 3 -3
1532264684140046 1 -2 0 0 3 0 -4 2

1532264684192905 -2 0 0 -1 -6 -9 1 -1
1532264684215843 3 0 1 -1 -2 16 1 -1
1532264684252745 -1 -1 0 -1 1 1 -1 -4
1532264684267705 2 0 -2 -3 -4 -17 -3 -2
1532264684305603 0 -2 -2 -1 -1 3 -4 3
1532264684342505 2 1 0 0 -2 2 -2 -2
1532264684365443 -2 -1 0 0 -1 0 -2 0
1532264684411321 -1 -1 1 -2 -2 -3 -4 -3
1532264684440243 -3 -2 -3 0 1 -2 -3 1
1532264684470200 0 -2 0 1 0 1 2 -2
1532264684508098 -1 -2 0 -2 -2 0 -4 -1
1532264684539021 -4 0 -2 -2 -1 0 0 1
1532264684552978 1 -1 -3 -1 -1 -2 1 -2
1532264684582898 0 0 -2 -1 0 0 2 -1
1532264684612819 -2 2 2 -2 2 0 2 1
1532264684627779 0 1 -2 -1 -2 1 3 1
1532264684651714 -1 -1 1 0 0 0 -3 -1
1532264684680636 0 1 0 0 1 1 7 -2
1532264684704573 0 -2 0 -1 0 -1 -4 -1
1532264684732498 -1 -2 1 1 -2 -7 3 -2
1532264684748456 0 0 -1 1 -2 -1 -4 0
1532264684770397 -2 -2 -1 -1 -2 4 1 -3
1532264684823256 1 1 0 -2 -1 10 -2 0
1532264684853176 -1 -1 -4 -3 -3 1 -3 -3
1532264684875117 -1 1 -1 0 6 6 0 0
1532264684921991 -2 0 1 1 2 3 1 -2
1532264684950914 0 -2 2 -1 2 35 0 -3
1532264684995794 -3 1 1 4 5 -6 0 -3
1532264685032695 0 -2 0 -1 -7 -15 -1 -2
1532264685055635 1 2 1 0 9 49 5 2
1532264685077575 -4 -8 -2 -2 9 8 0 -2
1532264685123452 -4 -4 -1 1 25 49 3 -3
1532264685145393 2 0 -3 1 -17 -24 2 2
1532264685168333 2 -2 -2 2 4 -7 -1 1
1532264685183292 -1 -2 -1 -1 -4 -1 3 -1
1532264685198253 -1 -1 -2 2 -8 -12 -1 -1
1532264685220194 -1 0 -1 -1 -1 6 1 2
1532264685235154 0 1 -3 -3 1 7 -5 -1
1532264685265074 -1 -1 3 -3 0 -6 -4 -3
1532264685288013 0 -2 0 0 -1 -10 -2 -2
1532264685317933 -1 -1 0 0 -1 2 -9 -2
1532264685340872 -3 0 -3 -5 -1 0 -3 -3
1532264685355831 -1 -2 -3 0 2 15 0 0
1532264685377773 -1 -1 0 -1 -2 -7 -3 2
1532264685400711 -1 -1 -2 0 0 -2 -3 -1
1532264685430631 -1 -2 2 0 -1 -3 -1 -2
1532264685452573 -2 -1 -3 2 -1 7 1 -2
1532264685513436 0 1 0 0 -2 1 0 1
1532264685580257 -2 0 3 -1 0 20 0 0
1532264685640097 -1 2 1 -4 -3 -30 -1 0
1532264685655057 -2 1 0 8 -4 -36 -4 0
1532264685677996 -2 3 -1 -29 -29 -2 1 -1
1532264685692956 -3 -2 -1 -9 17 3 0 -4
1532264685707917 0 -5 -2 -2 -12 -11 -8 -3
1532264685752796 -3 -1 -2 0 13 -6 -1 0
1532264685782715 -3 -3 -8 -5 36 -5 5 -1
1532264685805654 2 4 4 -2 15 41 4 1
1532264685857522 1 -6 -12 5 -17 -2 -1 1
1532264685880454 -1 1 5 3 2 -12 0 0
1532264685903393 1 -8 8 22 22 10 3 -1
1532264685933313 0 5 -1 -10 -22 -12 -5 -1
1532264685978193 0 -7 -5 -4 -14 10 3 -1
1532264686023073 -3 -2 -3 0 17 -2 1 1
1532264686045013 -5 -3 -2 -5 -10 -5 11 -1
1532264686097873 2 -1 -1 3 -23 -40 1 -3
1532264686157713 -3 -1 -6 -19 -35 15 9 -1
1532264686195611 16 2 2 -1 2 -21 -10 -7
1532264686263430 -4 -11 1 10 -6 -32 -8 -2
1532264686293350 -3 5 3 -3 -6 -14 -8 -4
1532264686338230 -4 -16 0 6 10 -14 -14 -2
1532264686502790 4 1 4 24 12 -49 -21 -3
1532264686540708 -3 1 2 -5 1 30 7 7
1532264686592550 12 -6 -4 -13 -14 16 -2 -12
1532264686630449 -6 -1 0 -4 -11 -22 3 3
1532264686675329 7 -2 -1 -3 13 29 -13 -2
1532264686728187 -5 2 3 1 4 -17 -6 6
1532264686780048 -3 -1 -3 -5 4 7 0 4
1532264686855846 2 0 1 1 -13 -1 -7 0
1532264686915687 -3 -5 -7 -24 0 6 -2 -3
1532264686952587 -1 -3 -1 -7 -15 -9 -1 0
1532264686998464 0 2 -7 3 13 74 -17 -3
1532264687020406 -1 -2 -13 -26 -42 -55 -13 -3
1532264687058305 1 -3 -14 -3 -8 -85 -35 -8
1532264687080246 -3 0 18 27 19 34 17 5
1532264687133104 1 -13 8 -1 -8 32 11 -5
1532264687155046 -25 -1 -5 -3 1 23 -2 7
1532264687170006 24 4 4 2 30 -7 -22 -1
1532264687200940 -3 2 -2 -2 20 2 -19 0
1532264687222864 5 -1 -4 -3 -10 -8 5 -5
1532264687237824 1 -1 1 -3 -14 -11 10 9
1532264687267745 -9 -1 -3 -7 -16 -40 -3 -6
1532264687290683 3 -1 -3 -1 5 -29 3 -1
1532264687312624 -4 0 0 0 -4 7 0 -1
1532264687335563 -2 -2 7 2 2 22 -4 -4
1532264687350523 -12 -1 -2 -1 2 7 -8 1
1532264687372464 -6 -3 2 -1 3 -1 6 3
1532264687410363 -21 -2 -1 -1 1 21 11 4
1532264687440282 -6 -4 2 -2 -5 -2 3 -3
1532264687455243 0 1 -1 0 2 8 1 2
1532264687478182 5 -1 -1 1 4 -3 5 -6
1532264687500123 -2 1 -1 -4 -10 -42 -3 -3
1532264687515083 -1 0 2 3 5 10 3 2
1532264687538021 -3 -1 -1 0 -3 -9 -7 -1
1532264687567941 -2 1 -1 0 2 1 0 -2
1532264687612822 1 -7 -2 1 2 -19 -9 -2
1532264687635760 0 -4 -7 -6 -2 18 12 3
1532264687672662 -1 1 7 26 20 5 -1 -1
1532264687695600 -1 1 -3 12 16 7 3 -1
1532264687725521 -2 -2 -6 2 -2 -14 7 -1
1532264687748460 1 0 -3 -7 11 -7 0 -16
1532264687770401 1 -1 5 -17 -36 -11 9 17
1532264687785360 1 0 1 0 -20 1 -5 -3
1532264687815280 -1 0 2 6 12 21 5 4
1532264687838219 -5 0 0 8 10 6 6 -5
1532264687860160 -10 -2 -2 -2 1 -1 -2 -19
1532264687898059 -6 -5 -1 -4 -8 -30 -7 2
1532264687913019 -12 5 2 0 -13 3 9 4
1532264687935957 7 -2 4 8 -4 -22 6 2
1532264687957918 5 9 0 -1 -5 10 0 -15
1532264687987819 -7 17 23 1 -7 8 17 -4
1532264688032699 -19 5 2 19 -21 2 2 -5
1532264688115477 9 -6 -8 -3 1 26 5 4
1532264688190278 23 7 -2 -4 -7 -18 -20 -2
1532264688228176 -1 0 -5 7 6 -10 -5 1
1532264688243136 -8 36 36 0 -19 -39 -12 1
1532264688265078 -1 2 8 7 -17 -8 -8 0
1532264688317937 -4 -2 -2 -4 11 17 -21 -1
1532264688355834 -6 -2 -2 -6 -1 -11 -15 -3
1532264688415674 0 -1 1 9 -1 46 11 1
1532264688558293 -3 -4 0 -6 -49 -26 14 -1
1532264688633093 -3 -2 -3 2 11 10 -16 -4
1532264688685952 3 3 3 -1 -14 -19 -56 -4
1532264688767733 2 -1 0 1 16 41 19 9
1532264688850512 3 1 -1 3 16 25 -23 -6
1532264688985152 0 14 0 -5 0 -2 15 0
1532264689075909 -3 0 -6 -14 1 -11 -43 -4
1532264689127771 0 4 10 6 -8 -9 1 1
1532264689202605 -2 -6 -2 -2 2 -4 -7 0
1532264689240513 -1 -11 -5 4 -10 10 3 1
1532264689278393 -3 -4 -2 0 -25 5 -7 -5
1532264689293352 -1 6 5 5 -21 -50 -4 0
1532264689323272 -2 -1 -1 0 12 7 3 0
1532264689338233 -4 -4 -2 -9 -18 -48 -6 -3
1532264689415028 -4 -4 -1 4 23 -11 -1 -1
1532264689436969 -1 -9 -7 -2 -4 -2 11 7
1532264689450931 -5 2 2 -4 -36 9 -6 -9
1532264689487832 0 16 1 3 18 51 25 0
1532264689517752 -3 -3 -2 -7 -13 -2 -3 5
1532264689555651 3 6 6 3 18 0 47 -12
1532264689586569 -3 1 -2 -6 -16 -6 -22 -6
1532264689630452 -4 -13 -5 2 -12 -4 6 9
1532264689690291 -4 -3 -3 -10 22 68 7 -3
1532264689705251 -5 -3 0 1 20 29 11 -8
1532264689765091 -1 -7 -4 -5 44 11 -20 2
1532264689915689 3 9 5 1 -24 -10 21 -6
1532264689930649 1 18 9 7 8 -11 23 -10
1532264690096206 8 8 -1 -3 6 18 -1 -5
1532264690200926 13 1 -2 -2 2 4 2 10
1532264690222867 -1 -28 11 -3 -4 3 7 -15
1532264690290699 -9 36 11 1 -4 -3 8 18
1532264690320605 26 -19 -15 0 -1 -4 -7 22
1532264690388424 -15 -52 -24 -3 -2 -6 -2 -10
1532264690425326 -22 14 6 -1 -1 -4 -10 -21
1532264690500126 -16 -27 18 7 -5 0 16 10
1532264690530045 -8 -22 -28 -6 4 0 7 -1
1532264690559966 2 -28 -22 -4 0 -17 -1 4
1532264690597865 1 16 9 5 5 -2 -4 -2
1532264690627784 4 2 4 19 -16 -3 2 1
1532264690702584 2 -10 -1 0 -4 7 0 -1
1532264690800322 -4 -13 -15 -3 3 1 0 4
1532264690883102 4 9 -6 -1 5 4 -1 1
1532264690905042 2 20 12 -6 -6 -1 7 -1
1532264690950920 -5 -9 -13 -3 8 2 -1 3
1532264690972861 -5 -13 2 -5 -3 0 2 -3
1532264690995800 -3 13 -2 1 -1 -1 -5 -3
1532264691040680 -3 2 -1 9 4 -7 -7 -3
1532264691070600 -7 -3 4 -2 -11 -9 1 -3
1532264691115480 1 1 -5 -3 -11 7 0 -3
1532264691145400 -5 7 5 2 -1 2 1 1
1532264691175320 3 -5 9 3 2 2 1 -1
1532264691205241 -2 2 -6 -8 1 -1 1 1
1532264691235160 -3 -7 -5 -6 -2 -1 0 -3
1532264691295000 0 -5 -8 -2 2 -1 2 4
1532264691340877 0 -3 5 -4 -4 2 -1 -2
1532264691362819 0 -3 -5 -5 0 17 1 -2
1532264691385757 0 1 1 0 3 7 0 1
1532264691430637 1 -2 -1 1 -4 -5 1 2
1532264691460558 -3 1 -1 -3 -5 -20 -5 -3
1532264691498456 -4 -1 0 1 28 42 -1 0
1532264691520397 -1 0 1 0 25 23 8 1
1532264691535357 -2 0 -1 -5 -17 -17 -7 -2
1532264691565277 1 1 -1 -5 -11 31 -3 -4
1532264691588216 -2 -2 -2 1 -4 7 -3 0
1532264691618135 -1 -1 -4 -6 -51 -19 -26 -3
1532264691633096 0 2 2 2 8 -11 14 0
1532264691669997 -1 0 1 -2 -6 8 20 1
1532264691700915 0 -1 -4 -1 6 -4 1 0
1532264691753774 -6 -6 -1 -3 1 -8 0 1
1532264691791688 -13 -3 -2 -1 -5 -7 -7 -10
1532264691844538 -8 -8 -7 -2 -2 -4 -2 -6
1532264691873478 1 0 -4 0 -2 -10 -3 3
1532264691918340 -5 -3 1 -5 -3 13 8 -4
1532264691963220 -1 3 3 0 0 11 12 2
1532264691985162 3 1 3 1 0 -6 2 0
1532264692015082 0 0 -3 -3 1 7 1 -2

1532264692038020 -1 -3 -5 0 -2 -10 -8 -2
1532264692075919 -1 -3 -4 -4 -5 3 6 0
1532264692097861 0 -1 -1 -1 -1 -4 -2 0
1532264692150719 -2 -1 1 0 -1 -2 -3 0
1532264692181636 -3 -2 -3 -3 1 14 2 -1
1532264692195599 -2 -3 0 -2 0 1 3 0
1532264692234494 2 -2 -1 -3 -2 -3 3 0
1532264692255439 -2 -2 -1 -2 -1 -3 0 0
1532264692286357 1 -1 0 -1 0 5 1 -1
1532264692300319 0 3 5 2 -2 -5 -13 -2
1532264692330239 -1 -2 0 0 1 2 1 3
1532264692345199 -4 -1 0 -1 -1 -3 -4 -2
1532264692383097 -2 -4 -5 -4 -2 -4 -1 -1
1532264692405039 1 1 -4 -3 4 11 0 1
1532264692450916 -2 -1 2 -1 -4 -5 3 -1
1532264692465876 0 -5 0 0 0 -15 -6 -3
1532264692502777 -1 0 2 -1 0 15 1 0
1532264692555636 -3 -1 3 -2 4 -3 1 0
1532264692577577 2 2 -1 -1 -4 4 0 -1
1532264692600516 0 4 -3 -12 -20 -33 -8 -3
1532264692660357 0 3 -7 -1 -3 17 2 0
1532264692675329 -1 -3 0 -4 5 -2 -6 -1
1532264692705236 2 -3 -4 2 7 -5 -2 -1
1532264692750117 2 3 -5 0 -13 -19 1 -1
1532264692773055 0 0 2 -1 27 73 10 1
1532264692794996 1 -1 -2 3 1 3 2 1
1532264692832895 -1 -3 -2 -5 -22 -21 -7 -2
1532264692870793 0 -5 1 -2 -4 10 4 0
1532264692892735 -2 -2 -5 -4 -1 44 4 -1
1532264692930633 -2 0 -2 -2 -2 -1 -4 -2
1532264692960553 1 -2 -4 0 -1 -2 0 1
1532264692990505 -1 -1 1 -1 0 1 -2 1
1532264693005443 -1 -2 -3 0 -1 -4 -1 -1
1532264693043332 -2 2 2 2 1 11 1 -2
1532264693088211 -1 2 -4 0 1 -8 0 -1
1532264693103172 -3 -2 -3 -2 -1 -6 -1 -2
1532264693192932 -1 -5 -1 -2 -1 -7 2 1
1532264693260751 2 2 2 5 -1 1 -2 -1
1532264693282692 0 -2 -3 -4 3 0 -1 0
1532264693350511 -4 -4 -9 -15 -15 -10 2 -4
1532264693410351 -2 -2 -10 -17 3 0 1 0
1532264693463209 -1 -2 -8 -20 -5 7 -8 -3
1532264693485150 0 -4 -19 -7 -20 -22 -1 -1
1532264693530031 -2 1 -10 4 -13 23 5 -1
1532264693544991 2 -1 17 45 58 15 -2 -1
1532264693575908 1 0 0 -1 10 -49 1 -1
1532264693612809 0 3 15 7 -2 26 1 1
1532264693680628 0 -2 4 -2 -1 15 4 1
1532264693770387 -3 2 1 2 17 26 0 -2
1532264693815279 -1 3 0 4 -27 -16 -3 1
1532264693845188 2 0 4 15 17 22 -1 -3
1532264693898047 -2 -5 -14 -41 -40 2 11 -1
1532264693950905 -1 -3 2 10 32 16 0 -3
1532264693972846 1 0 -2 0 26 -14 -17 0
1532264694017727 -2 -1 1 13 -10 7 -9 0
1532264694070585 1 -3 3 6 -27 -6 13 3
1532264694145385 5 -6 1 -3 -55 -15 -6 -3
1532264694220187 18 7 3 -3 -47 10 -12 -6
1532264694258083 14 -6 -5 -1 -19 -41 2 9
1532264694294985 -14 0 -5 -8 -17 -22 1 3
1532264694332884 -13 -9 -11 -10 -31 -21 -24 -2
1532264694392736 15 -13 0 -8 -24 -40 -5 -2
1532264694422644 -11 5 -2 1 -15 -7 10 1
1532264694460542 1 -1 0 -2 -16 18 -6 -3
1532264694505422 -8 1 -4 0 -4 -11 -24 -2
1532264694535342 26 1 5 -2 16 8 3 -2
1532264694558281 -10 -13 -5 -2 -7 -27 -3 -4
1532264694580222 -2 21 0 2 8 20 0 -2
1532264694610143 -5 -5 1 -2 -7 -9 8 -8
1532264694640062 -2 1 0 8 3 -13 -2 -3
1532264694663001 2 0 1 4 0 12 -1 -1
1532264694684942 -2 -6 -3 -15 -4 1 5 1
1532264694737801 -1 -7 -7 -5 0 -6 -3 -2
1532264694752761 -1 0 1 -5 -3 5 2 -1
1532264694767721 0 -2 -3 3 6 -3 -4 0
1532264694797641 -2 2 -4 -4 3 -14 -4 -10
1532264694812606 2 2 1 6 3 -16 7 4
1532264694827562 -3 -1 -2 -8 13 22 3 -2
1532264694850500 1 -5 -4 8 -17 -62 -1 -2
1532264694873438 3 2 0 9 21 9 12 5
1532264694895379 -2 -7 3 -5 -16 -30 -12 0
1532264694918318 -1 1 -3 -1 11 22 1 -1
1532264694948238 -14 2 5 0 0 7 9 1
1532264694971177 3 1 3 -6 -20 10 0 4
1532264694993118 -2 -3 -4 -6 -15 -6 -4 -5
1532264695008079 5 1 6 9 9 -19 2 -1
1532264695037998 2 -2 -1 5 2 29 3 -1
1532264695075897 2 -2 2 -5 -7 -22 -4 -1
1532264695105817 1 -2 0 -2 6 29 3 -2
1532264695135737 -2 0 -3 1 -8 -24 -6 -2
1532264695157679 -1 -1 1 0 2 -2 -11 -2
1532264695172638 -3 -1 1 -1 -7 -13 -4 -3
1532264695187598 0 -2 -1 -2 -9 -13 -2 -1
1532264695217518 -1 1 1 1 12 15 1 -1
1532264695240467 5 0 -1 -3 -11 -13 -3 -11
1532264695255417 -9 -1 -3 0 2 1 5 -1
1532264695278355 -1 -2 -3 -2 -6 -7 -4 -3
1532264695308276 2 -3 0 -2 -2 4 -1 1
1532264695323235 -5 -1 -3 1 5 -2 8 -1
1532264695360137 -4 -2 2 -3 0 8 1 -2
1532264695375097 1 -1 -2 0 5 7 1 1
1532264695398035 -3 -2 -1 -2 0 2 -1 -2
1532264695435934 -2 0 1 4 1 -2 -2 2
1532264695457876 0 -1 -3 0 0 -3 4 1
1532264695495774 0 -1 0 -3 -1 4 -1 -2
1532264695517715 -2 -1 3 0 7 19 3 -4
1532264695547635 1 -2 -1 -1 -4 -11 -12 1
1532264695577555 -1 -1 0 0 -3 -10 0 -4
1532264695600494 0 -1 -1 -2 -6 -4 4 -1
1532264695630423 -2 -2 -3 -2 0 6 0 0
1532264695653353 1 -1 -3 -4 -9 2 1 -1
1532264695668313 -1 -1 1 1 -8 -16 2 2
1532264695720174 -1 -3 -1 3 5 -7 2 0
1532264695750094 -2 -2 -1 10 -10 -5 -2 -2
1532264695765067 17 2 27 -5 -7 -8 0 5
1532264695780014 -4 37 3 -1 7 -24 10 13
1532264695794974 -3 -16 -12 9 7 1 -5 -3
1532264695810931 -6 5 -16 -10 -1 -2 -11 1
1532264695832873 -7 -11 -15 -28 3 -5 -35 -22
1532264695862793 -2 -3 -12 -11 10 5 -2 -3
1532264695885731 8 -1 2 6 -11 9 -12 -3
1532264695930611 -24 -4 -1 -4 -6 -3 13 6
1532264695945571 -12 -2 2 1 -7 6 -47 -14
1532264695975491 -13 -8 -6 -6 13 30 10 -2
1532264696005411 -17 -3 -4 -12 4 4 3 -2
1532264696020377 8 3 4 8 3 0 8 4
1532264696073229 7 -5 -8 -8 15 -28 7 6
1532264696088190 -8 -6 -5 -12 -13 12 30 -3
1532264696110131 17 3 0 -3 -15 16 -32 -16
1532264696133070 -11 9 15 -1 -4 5 4 2
1532264696169971 12 -2 -2 15 -32 -75 -12 -5
1532264696192910 10 20 5 6 -8 -7 -27 9
1532264696275688 -9 -8 -6 -1 -12 19 7 1
1532264696290649 -4 0 2 -1 -17 5 -1 1
1532264696327550 -1 -13 -5 -4 14 14 -8 -16
1532264696350488 -1 13 2 3 16 -2 -6 -1
1532264696365448 8 5 11 -4 12 18 19 3
1532264696388387 -2 1 -9 -16 -14 -32 -7 5
1532264696403347 1 5 8 4 8 14 -17 -1
1532264696418307 14 1 -14 -11 6 17 -8 -5
1532264696470168 -28 -2 -3 -6 20 -14 -3 -4
1532264696508068 -6 -2 -1 -3 -31 -22 -21 -3
1532264696530008 2 1 1 -9 -33 -14 3 1
1532264696567907 -10 -3 -5 -13 8 -19 9 3
1532264696642707 -4 -3 -8 -6 30 32 -6 -3
1532264696687587 4 6 6 11 -35 3 -8 2
1532264696785326 -22 -2 -2 -7 -3 -17 -10 -8
1532264696838184 5 -1 2 7 -8 -7 1 2
1532264696860126 5 0 0 1 2 5 8 4
1532264696957865 -14 0 -1 0 -10 -20 25 3
1532264696972825 7 1 -1 -4 -3 8 -10 -5
1532264697062587 -4 -8 0 6 9 12 1 2
1532264697085523 0 -2 1 -8 16 6 1 -4
1532264697130403 -32 -8 -2 -1 5 0 11 3
1532264697175283 3 0 0 0 1 9 1 -5
1532264697190245 -3 -3 -2 -10 -7 -17 -4 -4
1532264697250083 1 0 1 7 12 6 -10 -4
1532264697287981 -3 -9 -5 -8 -14 -6 1 -2
1532264697310920 -2 -2 1 6 10 23 0 -1
1532264697347821 -2 1 -1 -6 4 -29 -7 -4
1532264697377742 1 -2 -4 -2 -3 -6 1 2
1532264697392702 -4 -4 -2 -3 0 -3 0 0
1532264697422622 -3 -1 -2 -2 -2 -13 -10 -3
1532264697460520 2 3 -2 -4 0 -6 2 0
1532264697520361 -3 -1 -3 -6 11 15 -7 -4
1532264697550280 -1 -3 -3 -4 5 -38 -8 -3
1532264697565240 -2 -2 -6 -9 -14 8 -9 -1
1532264697588179 1 10 2 4 -13 -3 -5 -2
1532264697610120 -1 -6 -6 -1 0 7 3 -1
1532264697633059 -5 -3 -3 -3 -7 0 0 -1
1532264697655000 0 2 1 -7 -12 -11 2 -1
1532264697677939 2 -6 0 -2 9 19 -9 -3
1532264697700877 -2 0 -1 5 -21 10 -4 -1
1532264697722819 -1 -1 -3 -9 1 2 2 1
1532264697782658 0 1 -4 0 -4 -9 6 0
1532264697806595 -3 -1 0 -2 -2 1 6 -6
1532264697827539 0 -8 -10 -4 -13 -22 6 6
1532264697850478 0 6 -2 -5 -6 -24 3 13
1532264697873416 -5 -6 -1 0 -4 -15 -3 6
1532264697888376 -3 -6 -3 5 15 -18 13 2
1532264697910317 0 -5 -1 -3 13 37 -6 4
1532264697933256 0 16 3 -1 -11 -34 1 -2
1532264697948216 1 -13 -4 -6 -14 -4 6 3
1532264697970157 -2 -7 -4 -2 13 29 6 -7
1532264698000077 1 -25 -22 -5 -24 -11 6 -1
1532264698015038 0 4 2 3 47 -1 -4 -7
1532264698067896 -1 -1 0 0 4 -24 3 7
1532264698127736 3 15 8 1 41 20 1 2
1532264698195554 1 -6 2 1 17 14 -6 1
1532264698271352 5 1 7 4 10 -4 17 -14
1532264698330194 -4 -34 4 0 21 -11 -8 8
1532264698353133 8 -18 4 4 -34 -35 -12 6
1532264698412973 -11 -11 -5 -5 8 -26 1 -7
1532264698472828 -13 14 0 -2 11 5 -4 -3
1532264698502733 -2 -54 12 3 5 -3 -9 3
1532264698532653 -11 -65 11 -1 6 11 -4 14
1532264698577533 11 41 36 74 15 5 13 17
1532264698615432 0 55 15 6 -5 -2 -3 -4
1532264698638371 15 46 34 7 -5 -9 -6 -1
1532264698660312 -7 -19 -6 -12 2 5 9 -10
1532264698735112 20 -26 27 3 3 -20 -5 -12
1532264698779992 -29 -1 -9 -7 -3 6 7 -4
1532264698802930 13 68 42 6 10 -2 1 -10
1532264698832851 -6 -45 -6 -9 -9 19 7 -23
1532264698862770 3 33 27 -17 51 23 -8 -1
1532264698892690 11 -44 20 2 16 4 -13 3
1532264698915629 -3 48 18 -4 12 -7 -30 -6
1532264698930589 8 2 -33 -27 -12 -36 -16 -2
1532264698952530 -24 -17 -27 -16 -19 9 4 1
1532264698975469 3 58 0 -8 -13 -38 16 7
1532264698998408 -9 -51 -4 -4 -8 -3 -10 -3
1532264699028327 1 6 -12 2 14 16 -6 -1
1532264699065229 -19 -38 -32 -2 12 -8 9 2
1532264699110109 -2 -17 -14 -7 -15 10 6 -7
1532264699125069 5 21 21 3 11 -6 11 -5
1532264699162967 -18 8 13 -5 -24 2 5 1
1532264699185906 2 -19 -6 -14 11 -1 -19 -2
1532264699215827 13 20 4 20 24 10 4 2
1532264699237768 1 49 17 4 -13 7 11 2
1532264699275666 24 -25 8 -7 9 -14 20 -3
1532264699290626 1 60 36 -6 -14 -1 -1 2
1532264699328525 -3 -14 17 -2 -12 -14 -5 6
1532264699342488 32 -46 -12 0 24 18 5 0
1532264699365426 5 18 6 8 -14 -15 -4 8
1532264699418302 -7 -31 -25 -6 -19 -12 -6 -5
1532264699478125 0 -14 -15 3 4 2 0 7
1532264699508045 -1 3 10 2 -5 2 8 8
1532264699582845 3 -9 5 8 -4 -4 0 -2
1532264699627725 -2 0 -7 -16 -12 -6 -2 -4
1532264699665623 -1 -2 1 -4 -3 -1 -3 -3
1532264699687565 -1 -3 1 6 -1 1 1 -1
1532264699725463 1 -3 -2 -8 -13 -24 -4 0
1532264699755383 -1 0 -3 -7 -4 8 0 0
1532264699785303 -1 1 -2 -2 -1 4 0 -3
1532264699815223 -1 1 -2 -1 7 34 -4 -2
1532264699830184 -2 -2 0 3 2 -29 -2 -2
1532264699868082 -1 -2 -1 1 0 -25 -6 -1
1532264699890023 -4 -2 -1 3 -16 -15 -3 -2
1532264699935901 0 -2 -3 -3 10 -35 -1 0
1532264699972802 0 1 0 6 21 25 0 0
1532264700010712 0 0 -1 -5 14 -68 -14 -6
1532264700062562 -3 -2 -3 0 -4 39 1 1
1532264700123399 10 -6 -2 -2 -7 -9 2 11
1532264700160301 -2 -1 0 0 -2 -16 -8 -2
1532264700190221 -3 -1 1 0 -2 9 12 1
1532264700220141 -5 -1 -1 -3 0 14 -4 0
1532264700235101 -2 -1 0 -1 -3 -15 -9 0
1532264700279981 -1 1 -1 1 1 -5 1 -2
1532264700333837 -1 -2 0 -3 -3 -13 -10 -1
1532264700355778 0 1 -1 -1 4 7 -5 0
1532264700393677 1 -11 0 0 0 3 -1 -1
1532264700430578 0 12 -2 -2 0 6 6 0
1532264700475458 1 -1 -2 0 2 6 10 2
1532264700520338 -3 -3 0 0 1 -8 5 1
1532264700580178 2 -3 -1 2 3 7 0 -2
1532264700619086 0 1 -4 0 0 -7 -1 -1
1532264700640018 -1 -1 -1 -1 -2 -5 -8 -1
1532264700662956 -2 1 -1 -2 -1 0 3 1
1532264700722797 -2 -2 -1 0 -1 -1 4 0
1532264700775655 0 0 -1 0 0 -3 -4 0

1532264700797597 0 -1 -1 1 0 -1 1 -1
1532264700888354 -1 0 -2 -1 1 0 2 -1
1532264700910295 -2 -3 -2 -1 -6 -5 -7 -1
1532264700933234 -3 1 -3 0 1 4 2 -1
1532264700963154 -2 -1 0 0 -5 -2 1 0
1532264700985095 -1 -4 -2 -2 -3 1 3 0
1532264701002050 -2 -1 -1 1 0 0 0 0
1532264701015015 2 0 -1 -1 0 0 2 1
1532264701030134 1 1 -2 -1 -1 0 4 0
1532264701053073 -2 -2 -2 -1 1 -1 -3 -3
1532264701068033 -2 0 0 0 0 -4 -1 -2
1532264701089974 -2 1 -1 -4 -3 -2 -6 -4
1532264701112912 0 -4 1 0 0 -2 1 0
1532264701135851 -3 0 -3 2 -1 0 -7 0
1532264701165771 -1 -1 -4 -4 3 0 7 0
1532264701195690 1 -1 -1 0 -2 3 -2 -1
1532264701225611 -2 0 -1 -1 -2 -3 -1 -1
1532264701240572 -2 -3 0 1 2 0 0 0
1532264701278487 0 1 0 -1 -2 -2 -2 -2
1532264701300411 -1 -1 1 -3 -4 -1 0 -2
1532264701323350 -1 -2 0 -2 -2 -2 -3 1
1532264701338309 0 -1 2 -1 0 -1 0 -1
1532264701368230 -1 1 0 -2 -2 -4 -3 0
1532264701390171 -3 -1 -2 0 1 -3 -1 0
1532264701413109 0 -5 -1 -2 -1 1 -2 0
1532264701443029 -1 -1 -4 -3 -2 -2 -2 -2
1532264701465973 -1 0 -2 1 2 -2 2 1
1532264701487910 1 -1 -1 -3 -6 -1 -1 -1
1532264701502871 -2 -3 -1 -2 0 0 -3 -3
1532264701517830 -1 1 -1 -1 -3 -7 -3 0
1532264701532790 0 -2 -1 1 6 10 -1 -2
1532264701555728 -2 1 -2 2 4 1 -1 -3
1532264701577670 0 -1 -1 2 1 0 -1 -1
1532264701592630 1 1 -2 0 -2 -3 -1 0
1532264701615569 -2 -2 -1 -1 1 -1 0 -2
1532264701638523 -2 -2 -1 -1 1 -5 -2 1
1532264701653467 -3 -3 -3 -2 -3 -4 -2 0
1532264701668426 -1 -1 -1 -1 -2 1 9 1
1532264701698347 -3 -2 -1 -1 -1 2 1 -2
1532264701713307 -1 -2 -1 -4 -3 -1 -3 -1
1532264701735251 0 0 -1 -3 -1 -3 -1 -2
1532264701750209 -1 -1 1 0 -1 -1 1 0
1532264701765168 -1 0 -2 -3 -1 -1 -1 0
1532264701788107 -1 1 1 1 0 -3 0 -1
1532264701810048 1 0 1 1 1 1 -1 -1
1532264701825008 -2 -2 1 0 -2 0 -3 -1
1532264701847947 0 -2 -1 -1 -3 -1 -1 0
1532264701870886 -2 -3 -2 -1 0 -1 -2 -2
1532264701885846 1 0 -1 0 0 0 -3 0
1532264701922747 -1 -1 -2 -2 -2 -4 -1 -1
1532264701945686 -1 -2 1 0 0 -4 -1 0
1532264701960646 -1 -1 0 1 2 -2 -1 2
1532264702005526 0 2 0 -7 -70 -38 -2 2
1532264702028464 -3 -2 -3 -9 -20 -7 -2 1
1532264702065366 0 1 3 14 27 23 4 5
1532264702088304 -2 -4 -4 -22 -6 7 -5 -4
1532264702110246 -1 0 4 16 10 5 -5 -2
1532264702133184 0 -1 -4 13 6 -3 -2 -2
1532264702163104 1 1 0 -5 -2 -4 4 2
1532264702193024 1 0 0 -4 4 2 8 2
1532264702215969 -3 -2 -6 -8 0 8 -5 -4
1532264702237905 1 -1 -2 -3 1 12 4 0
1532264702260842 0 -1 0 -5 -12 -5 3 0
1532264702290763 -5 -16 -18 -22 -26 -13 -4 -2
1532264702327664 -3 13 18 15 -16 -1 1 -1
1532264702342625 3 -4 10 40 26 10 -5 -2
1532264702395482 -6 11 -13 -21 24 -1 0 -4
1532264702440384 -1 -2 0 -2 -48 -61 -5 0
1532264702470283 3 3 -4 -5 -29 25 2 3
1532264702500208 -1 5 1 1 2 61 1 -5
1532264702530123 -1 -6 -9 -21 -20 -38 -8 -1
1532264702553061 -6 6 -4 4 34 51 -6 -3
1532264702575003 1 -2 6 0 5 -4 -1 -2
1532264702597941 -2 -23 -14 -15 31 7 -5 -1
1532264702620880 -2 1 5 9 62 -8 -12 -3
1532264702657802 0 17 1 5 27 -27 -1 0
1532264702747556 4 0 1 22 -47 -21 3 4
1532264702853273 -7 -30 -11 -5 6 -1 1 0
1532264702905135 -3 -36 -10 -4 28 34 5 -11
1532264702972953 3 9 8 14 5 -8 13 -1
1532264703025812 1 -41 -23 -11 -42 16 12 3
1532264703100612 -2 0 5 1 12 -8 -2 0
1532264703115572 1 1 -4 -11 10 10 11 2
1532264703183390 -7 -2 -1 -2 5 -1 -8 -2
1532264703220292 0 1 2 -2 5 5 11 4
1532264703250212 2 -2 -1 3 -5 6 -2 -2
1532264703273151 -2 -3 0 -3 3 6 2 0
1532264703303070 -3 0 1 1 -1 3 6 -2
1532264703340979 0 0 -2 -1 -2 2 -1 1
1532264703400809 -1 3 -6 -1 -1 -1 2 1
1532264703415769 -1 3 -1 -2 2 1 2 -1
1532264703452671 3 1 -3 0 -4 -35 -12 -3
1532264703497551 -2 3 0 -5 -2 7 -18 0
1532264703512511 -4 -3 -6 -1 18 27 8 -3
1532264703565369 2 1 -3 -1 4 17 1 3
1532264703603268 -2 -5 -1 -2 7 -26 -17 -3
1532264703625209 3 7 3 -2 -3 -4 -1 1
1532264703672084 1 -2 0 -3 -7 33 7 -1
1532264703701013 -1 0 -1 1 -10 -14 1 0
1532264703730927 -2 -2 -2 -1 2 30 -2 -3
1532264703782788 0 -4 -2 1 8 -2 -4 1
1532264703805726 0 -3 0 -1 6 3 -1 0
1532264703872562 0 -2 1 0 -11 -24 -6 0
1532264703910446 -1 -1 -2 -1 -1 4 1 -1
1532264703925413 2 2 -1 0 6 -10 0 -1
1532264703955327 -2 -3 0 0 -7 2 1 -2
1532264703985247 -2 -2 -1 -2 -8 -5 2 0
1532264704023145 -3 -2 -2 1 -10 2 1 -1
1532264704045087 -1 -4 -5 -3 -6 -19 -6 -1
1532264704068025 -3 -3 -3 -8 -2 11 -2 0
1532264704135845 -3 -6 -8 -15 19 4 -2 -3
1532264704278463 -2 -7 -6 -5 8 -12 3 2
1532264704300404 0 -6 0 2 37 2 -11 -6
1532264704345284 9 -3 7 7 -6 17 8 11
1532264704360244 -33 -11 -4 -1 -18 9 -10 -12
1532264704398142 4 3 -3 -7 -8 -13 6 -1
1532264704413102 0 4 2 1 22 74 7 -5
1532264704435044 -3 2 0 2 -2 -3 -10 0
1532264704451001 -9 -1 -3 -8 -21 -3 -11 -7
1532264704464964 -5 -5 -3 -7 5 -10 -11 -8
1532264704495881 1 0 -4 -7 6 -33 -5 -3
1532264704517823 -7 -3 1 -1 -11 -11 -9 -8
1532264704540762 25 4 1 6 -26 -19 1 7
1532264704592623 21 -3 -3 -9 -12 -9 -11 -9
1532264704615561 8 -8 -10 -2 5 25 15 12
1532264704645481 -5 6 15 -2 19 5 0 -9
1532264704675401 -2 -8 -8 -5 -6 -1 13 3
1532264704713300 -8 -8 -17 1 16 10 -3 -25
1532264704728260 0 -3 -6 -8 -25 -13 -6 2
1532264704773139 10 -7 -4 15 -3 29 -4 5
1532264704803059 -7 -4 -5 -8 -8 10 15 0
1532264704892820 -2 0 0 -2 27 39 1 1
1532264704930718 2 -2 -5 -6 6 -11 -36 -1
1532264704997540 2 -3 -1 17 6 43 24 1
1532264705073337 1 -2 -2 3 0 -7 12 2
1532264705245875 10 3 -2 5 0 -12 3 -8
1532264705327657 -6 -5 -8 -19 3 6 13 1
1532264705380516 -1 0 1 1 -2 -19 -41 -10
1532264705433374 2 1 5 10 -7 -12 -7 2
1532264705500195 1 0 2 -4 -7 -3 -4 1
1532264705553054 7 0 1 -7 -28 -38 -5 1
1532264705574996 -6 0 0 3 2 -16 -17 -2
1532264705627854 -3 -4 -4 -12 22 8 -3 -5
1532264705642814 -3 8 -9 -24 -26 -53 -2 -4
1532264705665753 -2 -2 -5 14 -21 1 -2 -2
1532264705680713 -3 -13 -11 -18 10 8 -2 -2
1532264705695672 -2 -3 -2 1 2 -8 4 -1
1532264705747534 1 6 1 3 33 2 -1 -1
1532264705785432 -4 -1 0 -5 -7 -26 1 -1
1532264705830313 -1 3 2 4 -4 6 -3 2
1532264705890157 0 -7 -4 -1 9 -10 -4 -1
1532264705950990 -5 -6 -3 -7 -14 44 2 -3
1532264706002851 -3 0 -3 6 7 5 4 -1
1532264706115550 3 1 -1 4 -2 16 5 -9
1532264706183368 -1 -19 -9 -6 -1 -20 -23 -5
1532264706228249 10 -3 1 -2 0 46 3 4
1532264706288088 4 2 5 -11 -7 10 9 8
1532264706340947 -1 -8 -9 -17 -41 -76 -32 7
1532264706430707 -2 -3 4 3 -40 -9 8 -10
1532264706490548 -24 0 1 -4 7 9 -18 3
1532264706603246 -10 10 21 51 11 1 0 -9
1532264706670067 -19 -12 -1 -15 -3 -5 -15 -12
