1532259928169636 0 -3 -1 -1 -1 -2 -1 -1
1532259928226484 -1 -1 -1 0 -2 0 -1 -3
1532259928271374 -1 0 -1 -1 -1 0 -2 -2
1532259928311258 -2 -2 0 2 -1 2 -1 -1
1532259928481802 -2 -1 0 0 0 1 -1 -3
1532259928556602 0 -1 -1 1 -1 4 -1 2
1532259928582532 -3 0 -1 -2 -1 -1 -1 -1
1532259928796959 -1 0 -2 -2 -2 0 -2 0
1532259929261716 1 0 -1 1 0 1 -4 -6
1532259929359455 -3 0 -2 0 0 -3 -1 -2
1532259929479135 0 -1 0 -3 1 -2 2 -1
1532259929561913 -2 -1 -1 0 -1 -2 -5 -2
1532259929577876 -1 -2 -2 0 0 -2 2 0
1532259929614772 1 0 -3 -1 1 0 0 -5
1532259929636713 0 -2 0 -2 -3 -3 -1 -1
1532259929651673 -2 -2 0 -1 -2 -2 -3 -2
1532259929666633 -1 -1 0 0 -2 -2 -2 0
1532259929749412 0 -1 -3 -1 -4 -3 -2 0
1532259929787311 0 -1 -1 -1 -2 2 -2 -1
1532259929839172 -1 0 -1 2 2 0 -3 -2
1532259930094488 -3 -1 -2 -3 0 0 1 -1
1532259930146350 1 -1 -3 0 1 -1 -1 -1
1532259930199210 -3 -1 0 1 0 -1 2 0
1532259930237118 -4 -1 -1 0 -1 0 2 0
1532259930288970 -3 -2 0 -2 -3 -1 -1 -3
1532259930431588 0 -1 0 -2 0 -1 -1 -2
1532259930454539 0 0 -1 -1 -2 -2 -3 -2
1532259930582211 1 -1 0 -1 -1 -2 -1 -1
1532259930821572 6 -3 -2 1 0 -2 0 -3
1532259930881411 -1 -1 -2 -1 0 -1 -4 1
1532259931084867 2 -1 -1 0 1 3 1 -2
1532259931151689 -2 -1 -1 -1 -3 -4 3 -1
1532259931287360 1 -2 -3 -2 -1 0 2 0
1532259931317246 0 -2 0 -3 -1 -4 -1 -2
1532259931369107 -2 -2 -2 1 -1 1 -3 -1
1532259931407006 1 1 -2 -1 0 -3 -1 0
1532259931549624 -1 0 0 -1 -3 1 -3 -1
1532259931601486 1 -2 -1 0 5 8 4 4
1532259931699224 -8 -3 -7 -6 6 -13 3 -4
1532259931752083 0 2 14 21 3 1 1 1
1532259931818904 1 2 2 -8 -17 -10 0 6
1532259931841843 -1 -2 -3 -6 2 7 -15 -6
1532259932006403 -4 0 -3 -3 6 44 7 -15
1532259932037362 -3 -1 -1 -4 -59 -1 -2 3
1532259932163981 -2 -5 -1 -2 -10 -7 -4 -1
1532259932178942 1 0 -1 -4 0 3 -5 -3
1532259932239779 -2 -2 -4 -9 -22 -10 14 2
1532259932254740 1 -2 -1 -6 -24 -3 -16 -5
1532259932291640 1 1 4 2 -3 -3 -8 0
1532259932329539 1 41 -1 -3 -2 10 -16 -6
1532259932389378 -7 -4 3 6 62 1 11 -2
1532259932411320 -1 -5 -1 -6 6 17 7 0
1532259932451214 13 -4 -3 -2 35 26 -21 1
1532259932464179 -12 -3 1 2 -1 -68 -16 -12
1532259932479139 -3 2 0 -11 -47 -36 0 -7
1532259932502077 -1 2 8 24 1 -6 3 2
1532259932531997 1 1 7 16 0 14 0 1
1532259932576877 2 13 -8 3 11 -2 9 1
1532259932599816 0 2 13 20 6 2 -7 0
1532259932629736 -2 -3 -5 10 28 27 -52 -10
1532259932719496 2 3 6 12 11 13 10 1
1532259932749416 -3 11 -4 -4 -12 -1 -21 -4
1532259932787348 0 -7 -5 -3 2 1 4 3
1532259932869096 -2 16 -1 -1 2 -4 -1 -16
1532259932928936 -8 7 3 -3 -4 -3 -5 -15
1532259932996755 3 -9 -11 -4 -14 7 -1 -2
1532259933154334 -3 -7 -13 -29 -13 -13 -1 -6
1532259933222152 -4 -3 0 5 62 13 -1 0
1532259933288973 1 1 -1 2 -8 2 0 -2
1532259933311911 -7 1 1 5 2 2 -13 -7
1532259933356793 -1 3 7 13 -16 -3 -9 2
1532259933431592 0 -3 -3 -8 -11 -14 -1 0
1532259933446551 3 1 0 1 6 0 -3 0
1532259933559251 -4 -4 -8 -35 -76 3 -4 -5
1532259933627069 2 0 -2 -12 -19 2 -24 0
1532259933784648 -2 -3 -9 -8 -4 -10 14 2
1532259933844488 -1 0 -1 -2 6 2 -14 -4
1532259933881389 -1 -4 -10 -11 13 -11 48 8
1532259934136707 1 2 3 8 -7 -4 -3 2
1532259934181586 0 0 -2 -7 9 4 0 -1
1532259934256386 -2 -2 -3 -1 -2 0 -3 -5
1532259934474803 0 -1 1 2 -5 -2 -2 2
1532259934541624 -2 -2 -1 8 9 8 -1 -2
1532259934571561 1 1 0 4 0 -8 -4 -2
1532259934616423 -3 -2 -1 -1 1 6 0 -1
1532259934639361 0 1 0 3 -6 -9 -1 -2
1532259934670280 0 0 0 -1 0 1 1 -1
1532259934684242 -1 -1 0 -1 -18 -30 -2 -1
1532259934708178 -1 -2 1 -2 0 4 1 2
1532259934737110 -1 -2 1 -1 -1 1 -1 -1
1532259934759041 -2 -2 1 -2 -21 -6 -2 0
1532259934781980 -2 -1 -3 0 4 -2 -4 -1
1532259934803922 0 0 -1 -1 -6 -2 2 -2
1532259934849805 0 -2 -1 -5 -3 -21 -3 -2
1532259934864760 1 1 -3 0 -13 -26 -2 0
1532259934886705 -2 -2 -4 -10 -26 -8 -4 -2

1532259934924599 -1 0 -1 2 7 5 0 0
1532259934954527 -4 -6 -5 -3 -11 -27 -5 -6
1532259934976461 -3 0 2 -3 -20 -17 -2 2
1532259935021343 2 1 -2 -5 -5 3 4 -3
1532259935082178 -2 -2 -3 2 -7 15 -2 -2
1532259935104120 -2 -1 1 2 -3 -9 1 0
1532259935148999 -1 -1 -1 -4 7 5 1 -1
1532259935216818 0 0 -1 0 -2 -4 -1 -2
1532259935269677 -2 0 -1 -3 -4 0 -1 -2
1532259935299597 0 -2 -1 0 -3 -3 0 -1
1532259935389357 1 -1 -1 -3 -1 0 1 -1
1532259935449197 2 1 0 0 -1 -1 0 0
1532259935553917 -1 -1 -4 -2 -4 -5 -3 -3
1532259935568877 -1 -1 2 2 -2 17 1 1
1532259935614753 -3 0 -2 2 -1 4 2 -1
1532259935644674 2 -1 0 1 1 2 3 -1
1532259935699527 -2 -1 1 -3 -7 -48 -9 -3
1532259935743411 -1 -2 -3 -5 -3 -6 0 1
1532259935832172 -1 -1 -1 -2 0 5 0 -1
1532259935854124 -2 -1 -1 -2 0 -2 -1 -1
1532259935884034 -2 0 -1 -1 -1 -4 -4 -1
1532259935906972 -1 1 0 -1 -3 -1 -1 -2
1532259935928914 1 0 -1 -2 -1 1 4 1
1532259935989752 1 -1 -1 0 -1 -2 -2 2
1532259936004716 -1 0 -1 -2 1 2 0 0
1532259936034630 0 -2 -1 -2 0 -1 -3 0
1532259936071548 -1 0 0 2 -1 3 3 0
1532259936116412 -2 -1 0 -1 -3 -4 -3 -1
1532259936184231 -2 -1 -2 0 -2 2 0 -2
1532259936222130 2 0 2 0 -1 -4 1 -3
1532259936273991 -2 -3 -4 -11 -14 -31 -9 -3
1532259936296930 0 -2 -1 -4 3 10 6 1
1532259936311890 -1 0 -1 -4 0 -3 1 -2
1532259936341810 -1 1 -1 2 0 2 1 1
1532259936371732 -1 -1 2 1 1 3 10 -2
1532259936401659 -4 0 1 0 -1 13 -5 -1
1532259936416610 1 -1 -1 -2 -1 4 -7 -1
1532259936439548 -2 0 0 0 0 -6 1 -1
1532259936461490 -1 -2 0 -1 -2 -22 -4 -1
1532259936484428 -2 -3 -2 -2 1 15 -1 -3
1532259936521330 0 -1 -1 -1 1 11 6 0
1532259936544286 0 -1 1 -1 1 0 3 -1
1532259936567207 -2 -3 -2 1 -2 -8 -2 -1
1532259936604108 0 -1 0 -2 -3 -3 -1 -2
1532259936619068 -2 -1 -1 -1 0 -4 -5 -2
1532259936648988 0 -1 -1 0 -2 -12 0 -1
1532259936678908 -2 0 -1 0 -1 0 0 -1
1532259936814546 -1 0 0 -2 1 3 1 -2
1532259936919271 -2 -3 -1 0 -2 -2 -1 -1
1532259937511681 -2 -2 0 0 -1 -2 -1 -2
1532259937594460 -3 0 -3 -1 -2 -2 -2 0
1532259937662279 1 -1 0 -1 -1 -1 0 -2
1532259937714140 0 -2 0 0 -2 -2 -1 -2
1532259937744060 -1 1 -2 -1 -2 0 -1 0
1532259937796919 -1 -1 0 -1 -2 -4 -3 -1
1532259937834828 -1 -1 -1 -1 -1 -1 -1 -1
1532259937871720 -2 0 -2 -2 -2 0 -1 0
1532259937999377 -2 -2 -2 0 -1 1 -2 -1
1532259938067196 -1 -2 0 -2 -1 -1 0 -3
1532259938148977 0 0 0 -1 0 0 -3 -2
1532259938419254 0 -2 -2 -2 -1 -1 0 1
1532259938494055 -2 -2 1 -3 -3 -2 0 0
1532259938553907 -1 1 -1 0 -1 -2 0 2
1532259938756353 -2 -2 0 0 0 3 -1 -4
1532259938794252 0 0 0 -1 -1 -1 1 -2
1532259938921910 1 -1 -1 -2 -1 -1 3 0
1532259939095446 -1 -1 4 7 4 4 2 -2
1532259939124368 2 3 8 12 3 -2 2 1
1532259939177227 -4 -3 -2 -6 -56 -2 -3 1
1532259939199168 -2 2 1 5 13 1 -1 -6
1532259939259009 -3 -8 3 -3 7 2 -1 -3
1532259939326828 4 0 1 -4 39 2 -2 4
1532259939416587 -2 -1 1 4 5 2 -7 -4
1532259939476427 0 -1 1 -3 14 0 2 -2
1532259939508342 2 2 8 19 -12 -7 6 2
1532259939537266 -4 -7 -16 -29 5 -8 1 0
1532259939568182 3 2 6 15 18 1 -16 0
1532259939604086 -1 -2 -1 -14 -15 -8 -22 -6
1532259939627025 -3 -5 -7 -15 38 -1 17 -1
1532259939731751 -2 -2 -1 7 22 7 -19 -5
1532259939769649 -1 4 7 5 -84 9 -44 -13
1532259939799569 -5 5 5 6 24 -2 8 -11
1532259939845453 1 0 -2 -3 -4 5 -10 1
1532259939881351 0 2 -3 -3 15 11 -1 -2
1532259939912269 4 3 4 7 26 -2 -4 -2
1532259939934210 0 -1 4 48 -8 21 -1 2
1532259939964129 0 -5 -16 -2 76 19 -4 -1
1532259940023970 1 2 7 2 25 4 -2 1
1532259940091788 -2 -1 -2 -31 3 10 -5 -8
1532259940151628 -1 -2 2 0 46 13 -18 -3
1532259940166589 -3 -3 -6 -2 -21 -25 0 -1
1532259940241388 0 -10 -14 -17 -2 -18 29 7
1532259940287276 -1 0 0 6 -13 2 10 1
1532259940309207 -3 -7 -6 -4 -11 3 -16 -6
1532259940369047 4 -3 5 9 -2 -11 1 2
1532259940384007 -4 -1 -14 -14 -19 -7 -3 -6
1532259940436866 7 7 18 -8 -12 -7 0 4
1532259940526626 1 5 8 47 32 19 -22 -2
1532259940646306 10 2 0 1 20 16 -48 -19
1532259940759004 -1 3 5 13 -13 -13 25 7
1532259940788925 -6 -8 -3 -12 -9 -1 3 -2
1532259940841783 -3 -28 -1 -2 21 -2 8 -2
1532259940931542 -5 -50 -22 -23 21 3 -1 0
1532259940984401 -2 20 1 -18 45 8 4 0
1532259941052220 -1 -1 -2 -19 -34 -22 17 6
1532259941193841 -2 1 -6 -23 26 6 9 3
1532259941216780 8 5 -5 5 15 -4 0 10
1532259941269638 3 5 5 -12 -15 6 -57 -11
1532259941291580 1 3 12 8 10 1 10 6
1532259941314530 1 5 1 7 13 4 -10 -3
1532259941464119 -3 4 -1 19 -14 -3 -5 -3
1532259941599756 2 -1 -6 -5 -10 -4 -23 3
1532259941629676 -1 -1 0 -10 -50 -10 8 2
1532259942049553 0 -1 3 17 -1 17 1 -1
1532259942086454 -1 -2 -3 -3 0 2 3 0
1532259942169233 0 -2 -1 -4 -3 -8 -4 0
1532259942199153 0 0 -4 0 5 0 -2 1
1532259942222092 -2 -1 -4 -12 -18 -5 -3 -2
1532259942258993 -1 3 0 3 5 0 1 -2
1532259942282929 -3 -4 0 1 -16 -14 1 0
1532259942326812 0 0 0 4 11 12 4 0
1532259942364711 -1 2 1 3 -1 -3 -2 -2

1532259942446491 0 -1 1 -1 -32 3 11 2
1532259942469431 -3 -2 -3 -8 2 10 -8 -2
1532259942537249 1 1 1 7 20 0 -4 -3
1532259942641968 -1 1 0 1 -15 -1 8 1
1532259942724747 2 -2 1 -4 18 8 3 1
1532259942769661 -2 -2 2 0 -4 0 1 0
1532259942791602 0 0 1 0 -16 -10 2 -1
1532259942844709 -9 -12 -2 0 5 -4 0 -4
1532259942874628 -2 0 -2 0 0 -17 -9 -3
1532259942889588 0 3 -1 -1 -2 20 -1 -2
1532259942926498 -2 -1 0 0 -7 -3 5 -1
1532259942941450 1 1 -2 -1 -3 12 5 -2
1532259942994308 -1 0 0 -2 -4 2 -4 -3
1532259943009268 0 -2 -1 0 8 3 0 1
1532259943069108 -2 -1 0 -4 2 5 1 -1
1532259943084068 -2 -3 -1 -2 -2 -2 1 -2
1532259943107007 -1 0 -2 0 1 0 -2 -1
1532259943158874 -1 -2 0 -1 -1 -2 -4 -1
1532259943211733 -2 0 -2 -2 -1 1 2 0
1532259943241652 0 0 -2 -2 0 0 -1 -1
1532259943271613 -1 -2 -1 -2 0 0 -1 -1
1532259943294545 -1 -1 -2 -1 -3 -1 -2 -4
1532259943346406 -2 -1 -2 -2 -1 -1 0 -2
1532259943369344 -3 -2 -2 0 -1 -1 -2 0
1532259943422203 0 -1 0 0 0 -2 0 -1
1532259943459104 0 0 -2 -1 -1 -1 -1 -1
1532259943563825 -2 -1 -1 0 1 2 2 -1
1532259943609702 -1 -1 -1 -1 -2 -1 -3 -3
1532259943639622 -1 -2 -3 -1 -1 -2 -2 1
1532259943699462 -1 -1 -1 -1 -1 -2 -3 -1
1532259943752335 -3 -1 -1 -1 -3 -2 -2 1
1532259943789222 -2 -1 -2 1 -2 -3 -3 -2
1532259943834101 -1 -1 0 -1 0 -2 -1 -1
1532259943849062 0 -2 0 -1 0 -1 -2 -1
1532259943923861 -2 2 -1 -2 0 -3 1 0
1532259943976720 0 -1 0 -2 -1 -3 -9 -2
1532259943999659 0 -1 0 -1 -1 -1 0 -3
1532259944081440 0 -1 -1 2 -1 2 5 -1
1532259944253980 -2 -3 -1 -3 -2 -2 -2 3
1532259944306838 0 0 -1 -2 -1 -3 -3 -1
1532259944381637 1 0 0 -1 -1 1 0 -2
1532259944479376 -2 -1 -1 -2 -1 1 4 0
1532259944524256 1 0 1 1 0 2 -5 0
1532259944599056 -2 1 -2 0 -1 -1 -3 -2
1532259944658895 1 -1 -1 1 -2 1 0 -2
1532259944801515 0 -2 -1 -2 -1 1 4 -1
1532259944884294 -3 -4 0 0 -1 1 -2 2
1532259944952112 0 -3 -2 -3 -1 -2 -3 -3
1532259945003974 1 0 -1 -2 -1 -2 1 1
1532259945056832 0 -1 -3 0 -2 -6 -2 -1
1532259945086752 -3 1 -1 0 -1 -2 -1 -2
1532259945154570 0 -3 -1 -1 -1 0 0 -1
1532259945214410 -2 -2 -3 -1 0 0 2 0
1532259945236352 -1 0 -2 -1 -2 -1 3 0
1532259945289211 -1 -1 -2 0 0 -1 1 -3
1532259945416869 -2 -1 -2 -3 -2 -2 -1 -1
1532259945484687 -1 0 -2 -2 1 -4 -8 -2
1532259945634288 1 -1 1 0 -1 -3 1 -1
1532259945694128 -1 0 -4 0 -1 -2 0 -1
1532259945783888 -1 -3 0 0 -2 -2 -1 0
1532259946009285 -1 0 -1 0 0 -2 0 -1
1532259946099045 2 1 -2 -1 1 -2 -1 -1
1532259946121984 -1 -1 -2 -1 -1 2 -9 -2
1532259946219722 0 -1 -1 -2 -1 1 3 1
1532259946286544 -2 -2 -1 -3 1 -1 -2 -1
1532259946339402 0 0 -1 2 -1 -2 -1 -3
1532259946503962 0 0 -1 -2 -1 -3 0 0
1532259946526901 -1 0 -2 -1 0 -2 0 1
1532259946609680 -1 -4 -10 2 1 11 -3 -1
1532259946639600 2 7 16 29 -11 0 -1 2
1532259946684479 5 4 4 10 9 5 0 -2
1532259946729360 -20 -16 0 9 11 -4 -13 -13
1532259946760277 -2 -5 2 0 16 -4 1 -7
1532259946842058 -2 -2 -1 1 -11 -5 4 -3
1532259946886938 8 -9 -1 2 -6 -6 1 4
1532259946908880 28 -6 -4 -1 -25 -34 -7 9
1532259946961738 -2 -1 3 11 -4 7 2 1
1532259947014596 2 2 3 -19 -41 -8 -1 0
1532259947044516 -1 -2 -7 -9 -24 -24 17 1
1532259947066458 1 -4 -6 -17 -26 -18 55 13
1532259947119316 -7 16 -6 0 33 14 9 4
1532259947149237 -3 -8 -1 -4 6 -8 -9 -5
1532259947172176 -1 -6 1 3 -2 -6 8 3
1532259947194117 3 29 3 3 10 6 5 1
1532259947232015 1 -2 15 32 -20 -31 -2 -2
1532259947246976 -5 -9 -18 -6 -21 -7 -9 -6
1532259947283876 -1 -6 5 11 1 -10 -2 0
1532259947306815 2 4 4 -5 11 10 5 4
1532259947374634 0 0 8 11 9 10 -5 -2
1532259947426495 -1 -2 4 -9 5 2 -3 -2
1532259947517270 1 -2 -1 2 41 8 -16 1
1532259947577093 0 -1 -5 -2 -5 4 -9 -7
1532259947636932 -2 0 0 -8 -24 2 -4 0
1532259947681829 0 9 -3 -1 3 0 2 -1
1532259947771573 4 2 23 26 39 12 1 -1
1532259947824431 0 -2 29 12 36 -10 8 0
1532259947854358 -1 -5 -6 2 -1 6 -10 -3
1532259947869310 2 4 20 63 37 -3 -5 1
1532259947884270 -3 -7 -17 -15 -18 -3 -5 -1
1532259947914191 3 4 0 -11 -10 10 -61 -10
1532259947929151 -2 -3 -5 -4 6 -9 20 1
1532259948041850 0 -1 -6 -3 6 -3 6 5
1532259948079748 -2 -2 0 -2 6 1 8 -1
1532259948124628 -3 12 2 -4 -22 -8 -1 -2
1532259948161530 -7 -5 -57 -15 -28 -12 -14 -9
1532259948267247 0 -4 -17 -18 17 -2 1 -3
1532259948342048 1 2 12 11 27 5 -1 0
1532259948378948 1 -5 -2 0 -17 -18 50 18
1532259948408868 -1 -9 -9 -9 -39 -37 65 20
1532259948431806 -3 -1 0 -5 -9 -9 4 4
1532259948484665 -4 0 -4 -5 16 0 -9 5
1532259948529545 2 3 7 -3 -6 5 -24 -10
1532259948581407 2 2 0 1 -3 -7 -2 3
1532259948934463 2 -1 -5 -10 -9 -4 1 2
1532259948979343 -3 -3 -5 -8 -13 -3 4 -1
1532259949047161 1 2 0 3 -11 -11 -3 -2
1532259949219701 1 0 0 -1 11 5 -3 1
1532259949294500 0 0 1 1 2 3 3 -2
1532259949309460 -1 -1 -3 -3 -8 -3 -2 0
1532259949324420 -2 -2 -2 0 -2 -4 -1 0
1532259949361322 0 -2 -3 -5 -2 -8 -2 -1
1532259949407199 -2 0 -2 -3 -2 -1 -2 -1
1532259949429140 0 -2 1 -6 3 5 1 -2
1532259949533860 0 2 2 2 2 10 1 -1
1532259949548819 -2 -2 -3 -2 1 -6 -1 -1

1532259949579737 0 -2 0 0 -13 -4 1 1
1532259949601678 -1 -2 -4 -6 12 13 0 0
1532259949639577 -2 -1 -3 -3 18 16 0 -3
1532259949669497 -2 -2 -1 -4 -12 -11 -1 -1
1532259949714377 2 1 0 -1 3 4 2 1
1532259949729337 -3 -2 -1 0 18 44 8 -1
1532259949782196 0 -1 0 -4 -7 -5 -2 2
1532259949856996 0 0 -1 2 13 -1 5 1
1532259949908857 1 -1 2 2 -3 -11 -3 -1
1532259949984655 -2 0 -2 0 7 14 2 -1
1532259950066436 -1 -2 -2 -2 -2 3 -2 -2
1532259950081396 2 0 0 0 -4 4 -3 0
1532259950111316 0 0 1 -3 0 1 -1 -1
1532259950157193 -3 -6 -6 -5 -2 -1 -3 -4
1532259950217033 0 -1 -2 -1 -2 0 5 0
1532259950231993 1 -1 1 0 2 -1 8 3
1532259950261913 -2 0 -1 -2 -1 -40 2 -1
1532259950286847 -3 1 -3 -2 -5 -11 -2 0
1532259950344692 0 0 -2 0 5 102 3 1
1532259950359652 -1 -1 0 0 -1 -15 -1 -1
1532259950396554 -1 -3 -2 -2 -1 -3 -2 -3
1532259950419492 1 -4 -2 0 -1 2 -2 3
1532259950471353 5 0 0 2 -3 -7 2 45
1532259950494307 0 -1 -2 -3 -1 0 -3 1
1532259950524244 -1 -2 1 -1 -1 -4 -2 -1
1532259950562143 0 0 1 -2 -2 -8 -5 -9
1532259950592063 1 -2 -2 -1 0 4 1 0
1532259950621983 -1 -2 -1 -1 0 3 2 35
1532259950643924 -1 -2 -1 0 1 -8 -7 1
1532259950673845 -2 0 1 0 -1 3 -4 -8
1532259950689816 0 -2 -2 0 -1 2 1 4
1532259950704761 0 -1 -1 -2 -1 3 0 0
1532259950749642 0 0 0 -2 -3 -8 -4 -3
1532259950764601 -1 -1 0 -1 -2 4 2 -1
1532259950786543 -1 -1 -1 -1 -2 1 0 -2
1532259950824442 0 -3 -1 -1 -1 1 0 -1
1532259950839401 -3 1 0 0 -1 0 3 -8
1532259950877300 0 -1 -1 -2 0 0 1 10
1532259950907220 -1 0 0 0 -2 -1 -4 -1
1532259950929161 0 -1 -2 -2 -3 -4 -2 -2
1532259950974041 -1 0 -1 -2 -1 5 1 0
1532259951018922 0 1 -1 1 13 -3 -5 7
1532259951048841 -1 -1 -2 -1 7 -2 -1 -1
1532259951116660 -1 -1 -1 0 -4 -6 1 -2
1532259951131620 -4 -1 0 -3 1 2 -2 -4
1532259951161540 -1 0 -2 -2 2 0 -2 0
1532259951206420 -4 -2 0 -1 -1 1 0 -38
1532259951229359 -2 1 -1 1 1 -2 -2 10
1532259951252297 0 -1 0 1 0 0 -2 -8
1532259951297177 -1 -1 -2 -2 -1 -1 -3 -1
1532259951342057 0 1 -3 0 -2 -2 2 6
1532259951378958 -2 -1 0 -2 2 -1 -3 -14
1532259951521577 -1 0 -1 -1 -1 1 2 1
1532259951799833 -1 0 -3 0 -2 -2 0 -1
1532259951874633 -4 -2 -3 -1 -5 -3 -5 -2
1532259951911534 -2 -2 -1 -1 -2 -1 6 -3
1532259951964393 -2 -2 -1 -1 -2 -3 -2 0
1532259952024233 -1 -1 -1 0 -2 -6 1 0
1532259952054166 -2 0 -1 -3 0 -4 1 -2
1532259952151892 0 0 -3 -2 -3 -4 0 3
1532259952166852 0 -1 0 0 0 -1 -2 -3
1532259952294511 -1 0 -2 -1 -1 0 -1 -2
1532259952384270 1 -3 0 -1 -2 1 3 1
1532259952518910 1 1 -1 1 -1 0 -2 -1
1532259952594708 0 0 0 -1 1 -1 1 -1
1532259952669507 -1 -1 1 1 -1 1 -2 -3
1532259952721369 -1 0 -1 -1 -3 -2 -4 -2
1532259952774228 0 -2 -1 -3 -2 -2 1 2
1532259952871972 -1 -1 -2 -3 -2 0 6 0
1532259952916845 0 0 -1 -1 -2 -2 -9 -2
1532259952931805 -2 -1 -1 -2 0 -4 -1 -1
1532259952991646 -1 -2 -1 -1 0 -2 -1 0
1532259953029545 0 1 -2 0 -1 2 6 -2
1532259953059465 -1 -3 -3 -3 -1 -2 -4 -2
1532259953081406 -2 0 1 0 -1 -1 2 -1
1532259953142244 1 0 0 -2 -2 -4 -4 0
1532259953179145 0 -1 -3 0 -1 -1 4 1
1532259953202083 -1 -1 0 0 -2 1 0 1
1532259953261923 -2 0 0 -2 -1 -2 -6 -4
1532259953291844 0 1 1 -2 -1 -3 -3 0
1532259953396563 -3 0 0 -1 0 -1 -5 -2
1532259953411523 0 -1 -3 -3 -1 1 1 0
1532259953539182 1 -1 -2 -3 -2 -1 -3 1
1532259953592041 -1 0 -2 0 -2 -2 -1 2
1532259953621961 -1 -1 -1 2 -13 -7 1 0
1532259953673822 -6 -5 1 -8 -14 5 -5 -3
1532259953696760 4 10 36 22 17 11 4 3
1532259953779539 1 3 15 0 5 2 4 -4
1532259953846361 -1 -24 0 -6 -7 -1 0 -4
1532259953892238 28 17 1 -2 -46 5 -25 6
1532259953929139 -3 5 -7 -5 2 -32 3 4
1532259953952078 -1 -4 0 -10 -23 -2 1 10
1532259953997956 3 -2 -4 -11 -4 20 -16 1
1532259954011918 2 6 9 3 19 -30 -10 -1
1532259954049828 -4 -4 -15 -18 -6 -11 -2 2
1532259954071759 15 -2 -9 -9 39 22 18 4
1532259954101678 0 -3 0 9 56 3 4 3
1532259954154537 -9 -3 -5 -19 -39 -28 -3 -6
1532259954199417 -2 0 -2 -3 -9 54 -17 -1
1532259954229336 2 -1 -4 -7 -13 0 14 -5
1532259954259256 -4 -4 0 6 34 12 -9 0
1532259954289176 -9 -10 -9 6 25 -7 -7 -5
1532259954304137 -9 4 -4 -6 -7 -10 3 -5
1532259954334057 0 1 -4 -2 -10 -10 -3 -3
1532259954371955 0 -9 2 1 -37 -8 -2 1
1532259954393896 1 6 8 -18 49 9 3 1
1532259954424814 -3 1 -6 -4 29 12 2 -1
1532259954454734 3 9 10 11 -48 -44 -1 0
1532259954506595 0 0 -1 -3 -14 -2 -5 -3
1532259954521563 -1 2 8 11 2 14 2 -1
1532259954536515 -1 -3 -4 -17 -44 19 4 -1
1532259954574413 0 -2 -2 9 -25 2 28 7
1532259954604352 -2 -2 0 1 30 -5 14 1
1532259954627272 0 4 4 2 -5 8 -53 -10
1532259954649214 -3 -1 0 5 15 2 -4 -7
1532259954717032 -2 -8 -8 -6 25 13 12 2
1532259954753935 -3 3 5 5 2 11 -42 -8
1532259954791833 1 -1 0 0 -26 -17 16 4
1532259954814771 6 29 -2 -1 10 5 2 2
1532259954866631 2 -8 5 -13 -29 -4 3 1
1532259954889571 -3 -12 0 24 59 21 -1 -2
1532259954941432 -9 -14 -42 -51 -37 -13 -1 -5
1532259955024211 -2 1 -2 2 40 -14 -2 -3
1532259955077069 0 2 7 21 5 5 7 2
1532259955121950 0 0 1 4 20 1 12 9
1532259955204747 -1 -5 -6 -6 -19 0 8 1
1532259955346349 -3 -1 1 0 -9 2 -4 -2
1532259955377267 -1 1 3 -1 -2 -1 0 -1
1532259955556787 0 2 10 28 13 4 -14 -2
1532259955646547 -5 3 3 -2 -14 -5 18 -11
1532259955699405 -1 -2 -2 -1 0 0 1 -7
1532259956051464 -2 -3 -5 -5 1 -7 -9 -1
1532259956097344 -2 -2 -3 2 1 -1 0 1
1532259956187102 0 0 0 10 -11 -5 0 -1
1532259956374600 -1 -1 -5 -8 0 -4 0 -2
1532259956449400 0 -1 0 -2 8 12 -2 -2
1532259956592019 1 -1 2 3 1 -4 -1 -1
1532259956658840 -1 -1 -3 -6 16 3 3 -2
1532259956741618 -6 -7 -5 -9 -9 3 -1 -3
1532259956816419 1 0 -1 4 -5 -16 -1 -1
1532259956831378 1 1 6 6 16 -14 3 4

1532259956884237 -1 -1 0 -3 -6 -4 2 -1
1532259956967016 -1 -2 -1 1 -8 9 0 -3
1532259957041816 -3 -1 -1 -2 -8 -12 -1 -2
1532259957139554 -3 0 -4 -4 -12 -13 0 -1
1532259957176455 1 0 -1 1 2 3 -2 1
1532259957237293 0 -1 0 1 0 -9 -3 -1
1532259957267213 -2 -1 -4 -3 -2 -2 -4 0
1532259957289154 -3 0 2 1 -1 0 -4 -3
1532259957327053 -2 -2 -1 -2 -1 3 -4 1
1532259957356972 -1 2 0 -2 -1 1 4 2
1532259957387894 -3 -2 -2 -2 -3 2 1 0
1532259957439752 -1 -1 0 1 1 2 1 -1
1532259957491613 -2 1 1 0 1 -1 1 -2
1532259957544471 -1 -2 -2 0 -2 -1 -3 0
1532259957589351 -1 -2 -2 -2 -2 -5 -8 -1
1532259957649192 -1 0 0 -1 -1 -2 0 -4
1532259957702050 -2 0 -1 -1 -2 0 1 -1
1532259957753924 -3 -2 -2 -2 -1 0 -2 0
1532259957844669 0 0 0 -2 0 0 1 1
1532259957919469 -1 -1 0 0 -2 4 5 0
1532259957949389 -2 -2 -1 -1 -2 -3 -6 -2
1532259957971331 -2 0 0 -1 -1 0 1 -1
1532259957994269 0 -1 0 0 -1 0 -1 -1
1532259958062087 -1 -1 -1 0 0 2 -2 0
1532259958084029 1 -1 -3 -2 -1 -1 -1 0
1532259958121927 -2 1 0 -2 -2 -2 -2 -1
1532259958181767 -1 -1 -1 1 0 0 -2 -1
1532259958219665 1 -1 -1 0 -1 2 3 2
1532259958241606 -1 0 -1 -3 -1 -2 -1 -1
1532259958264546 0 -2 -1 -1 -1 0 -2 -1
1532259958331367 -2 -3 -3 -1 -1 -4 -1 0
1532259958362285 0 -1 -2 -1 -1 -3 -4 -2
1532259958399186 0 1 -3 2 -1 -2 1 -1
1532259958438100 0 -2 -2 -1 -1 -3 -2 -2
1532259958467004 -1 -2 1 -1 -1 -1 -5 0
1532259958505901 -1 -2 -3 -1 1 -1 1 0
1532259958533826 -2 0 0 0 -2 -3 -3 1
1532259958616605 -2 -1 -1 -1 -1 0 -1 -1
1532259958691404 -2 -2 2 -1 -2 -1 0 0
1532259958812082 -2 -1 -1 1 -1 0 -3 0
1532259958893863 0 -1 1 1 1 2 -3 0
1532259958969661 0 0 -1 -3 -1 1 -6 -2
1532259959014540 -2 -2 -2 0 -1 -3 -3 0
1532259959119260 -2 1 -1 0 -2 -2 -1 0
1532259959231959 -1 -3 0 0 -1 1 2 3
1532259959291809 0 0 -1 -1 -1 -2 -1 -4
1532259959366599 -2 -1 -2 -2 -2 -2 2 1
1532259959547116 -1 -1 -1 1 0 -1 -1 0
1532259959598978 0 0 -2 1 0 0 -3 -3
1532259959644855 -1 2 -1 -1 0 1 -1 -1
1532259959719655 2 -3 -2 -2 0 -1 -1 -1
1532259960041793 -1 0 -1 0 -3 -1 -2 -2
1532259960116593 -2 0 -2 -2 -1 -1 1 -3
1532259960161473 -1 -1 0 -1 -1 -3 -1 -2
1532259960222311 -1 1 0 -2 -1 0 -3 -2
1532259960289143 1 -2 -1 -1 1 1 1 -1
1532259960401831 -1 0 -3 0 -1 -2 -4 -5
1532259960424769 -2 0 -2 -2 -1 -2 -1 -1
1532259960446710 -2 -2 -2 0 -1 0 1 -2
1532259960499569 -2 0 0 -1 2 0 -2 -3
1532259960544449 -1 -2 -1 -2 -2 -7 7 1
1532259960628226 -2 -1 0 0 0 -2 2 -1
1532259960694049 -1 0 -2 1 -1 3 -4 -2
1532259960753889 -1 0 -1 -2 -1 -2 0 -2
1532259960806748 -1 -1 -1 -1 -1 0 -5 -2
1532259960889526 -3 -2 -2 -5 0 12 1 0
1532259960926428 -1 10 12 28 19 -24 -6 -2
1532259960956348 -6 -9 -2 -9 -9 -24 -25 -14
1532259960979286 3 3 11 15 -29 -3 0 0
1532259961017185 1 4 5 -4 -13 15 3 4
1532259961032145 11 -5 4 8 6 -9 4 -4
1532259961069046 -6 -6 -8 -3 -4 -27 37 2
1532259961106959 0 -2 -3 -4 14 13 10 3
1532259961129884 -1 -7 0 5 6 -28 -22 9
1532259961189723 -1 5 -2 0 9 1 -7 -44
1532259961234604 6 3 -3 2 15 2 -6 14
1532259961249563 -32 1 -2 -4 24 -11 -6 19
1532259961301424 6 0 4 -2 -23 -32 7 -3
1532259961346305 -4 -2 -9 -9 -8 0 -12 -5
1532259961392182 -6 -6 -14 -24 30 -3 -8 -4
1532259961496910 -5 -5 -3 2 15 -7 16 0
1532259961511869 0 -2 -6 -5 -15 20 -7 -1
1532259961534807 0 -1 -2 1 16 26 8 -1
1532259961594647 -5 2 -3 -10 -12 -1 3 -5
1532259961631549 0 -3 -4 -2 4 -2 -14 -4
1532259961654495 -7 0 2 2 10 8 -2 -4
1532259961669447 2 -7 -4 -8 -45 -13 -3 -4
1532259961737284 -4 -3 -5 1 -18 -17 -3 -4
1532259961752226 2 1 13 18 -10 0 2 3
1532259961782146 -4 -5 -12 -18 16 13 2 -3
1532259961797106 -2 4 13 -9 -31 -19 -1 -3
1532259961863928 0 1 -1 -13 -6 -4 1 1
1532259961931746 0 -1 -5 12 50 12 4 -1
1532259961961666 -1 0 3 14 8 -21 -1 -1
1532259962066386 -4 2 3 8 16 38 -59 -11
1532259962089325 0 1 -2 2 18 1 20 8
1532259962104285 3 12 1 0 -35 -6 -5 -4
1532259962119244 2 -3 -4 -2 25 8 3 2
1532259962149164 -2 -15 1 -5 -38 -4 10 0
1532259962179085 -1 5 7 14 65 16 2 -7
1532259962223981 3 13 -5 -15 7 -2 6 0
1532259962276824 -4 1 6 -1 -32 -9 1 -2
1532259962306743 3 2 4 -16 24 11 1 0
1532259962344642 0 -8 -12 0 -10 -13 -5 -3
1532259962404487 -5 -2 -3 13 4 -4 3 -2
1532259962434401 -2 -4 -7 -23 10 9 -2 -2
1532259962539122 -1 -1 2 13 -23 -2 -9 -4
1532259962577021 1 -2 -3 -1 22 -2 35 9
1532259962606941 -2 -1 2 -10 0 3 -6 4
1532259962636861 -1 -1 1 1 6 -2 -12 -6
1532259962659799 -10 0 5 10 25 28 -23 -16
1532259962704679 -16 -2 -5 -3 23 -2 -3 -6
1532259962726620 12 -4 -5 -1 2 -4 0 5
1532259962771500 7 -4 2 7 -6 4 -1 17
1532259962862258 2 1 -5 9 38 -10 -2 8
1532259962884199 2 4 11 1 -11 1 5 13
1532259962914119 3 25 -21 -14 -5 26 -4 1
1532259962981937 7 1 14 17 17 -5 10 11
1532259963041777 0 -3 1 14 -16 -2 -7 2
1532259963267175 8 -3 -2 2 19 -9 -7 0
1532259963386855 -2 -1 -1 -10 -10 8 -11 -5
1532259963401827 2 -9 -1 -4 -17 -9 -5 -1
1532259963454679 -2 -1 -1 -3 -2 -4 0 0
1532259963664125 -1 0 -2 -8 -21 -5 -1 -1
1532259963708993 -2 -1 -1 11 13 1 0 -2
1532259963738913 0 -1 0 2 14 7 -1 1
1532259963768833 -3 0 -2 0 -53 -2 1 -2
1532259963806732 -2 -1 -1 -7 6 -6 0 -1
1532259963821692 0 0 -1 -6 4 0 -2 0
1532259963942369 -2 -4 -3 -2 -5 5 3 -1
1532259963957337 0 -1 -4 -4 3 -2 3 -1
1532259964077010 1 -2 1 -3 -4 -14 -4 0
1532259964159788 1 2 0 5 0 13 3 0

1532259964249548 -1 -2 -1 10 6 4 1 -1
1532259964639505 2 -2 0 1 -5 0 1 -2
1532259964691366 0 -6 -1 -3 -17 -30 -2 -2
1532259964722284 -2 -2 1 0 4 8 -1 -2
1532259964789105 -1 -3 -1 1 -3 0 0 -1
1532259964819036 0 -2 2 1 2 2 1 0
1532259964856937 -1 0 -2 -2 2 -6 -3 1
1532259964909796 0 1 -2 -1 -4 -2 0 -2
1532259964934729 -3 0 -1 0 -3 -1 -4 -3
1532259964984596 -1 -2 -4 -2 -3 -4 0 -1
1532259965059396 3 0 0 -1 2 -2 -4 2
1532259965112276 -1 -1 -1 0 -1 0 2 -2
1532259965142196 -1 -2 -1 -2 0 1 0 -2
1532259965164138 3 -1 0 -2 -1 -3 -1 3
1532259965209018 -1 0 -1 -1 -2 0 4 -1
1532259965261876 -5 -1 -3 -2 -2 -1 -4 -4
1532259965300772 -2 0 -3 -3 0 1 -1 -2
1532259965344655 -4 1 0 -2 0 -2 -2 -2
1532259965426436 1 1 -3 0 -2 -2 -1 -2
1532259965539134 1 -2 -2 -2 -2 2 0 2
1532259965562073 3 0 0 0 1 -3 0 1
1532259965621914 -1 -5 -5 -3 -1 -2 -1 0
1532259965719651 -1 -3 -3 -4 -3 5 -3 -4
1532259965764531 -3 -6 -2 -1 3 4 4 1
1532259965794453 -1 -1 -3 -1 -3 -9 -1 -1
1532259965847318 0 2 -1 -1 -3 -5 1 -2
1532259965914132 -1 0 -1 -2 -3 -10 0 1
1532259965952031 1 -1 0 -3 0 1 -1 2
1532259966026830 -2 -3 0 1 0 0 -2 -3
1532259966139529 -1 -1 0 -1 0 -2 0 -1
1532259966169449 -1 0 -2 -1 -2 -1 -3 -1
1532259966191390 -2 -1 -1 -1 -1 -2 -5 -1
1532259966244253 -2 -2 -1 -1 1 -1 -1 -2
1532259966319049 1 -1 -3 -1 -3 1 1 0
1532259966506547 -2 -1 1 -1 -1 0 2 -2
1532259966829683 8 2 -1 0 1 0 2 1
1532259966851626 -3 -2 2 1 0 -3 -1 -2
1532259966881546 -1 0 -1 -1 -1 -1 0 1
1532259966949363 -2 -2 -1 -1 -1 -1 0 -2
1532259967002222 -1 -1 -1 -4 -1 1 -1 -2
1532259967077023 -2 -1 -3 1 -1 -1 0 -2
1532259967136862 -2 -2 -1 -2 0 -2 -2 -5
1532259967174777 0 0 -1 0 -1 -1 1 -1
1532259967226622 0 -1 -2 -1 -3 -1 -3 2
1532259967279481 1 0 1 0 -1 -3 0 2
1532259967339321 -2 -1 -2 -1 1 1 1 -2
1532259967377219 -3 -2 -1 -1 -3 -2 -2 -2
1532259967616579 -1 -1 1 0 0 0 -1 0
1532259967692382 -3 -1 -1 1 -1 -2 0 -1
1532259967738254 0 -1 0 0 -1 -1 0 -3
1532259967812056 -2 0 -1 0 0 -1 -1 -2
1532259967841977 -1 -1 0 1 0 1 -4 0
1532259967886857 -1 -1 -2 0 -1 -2 -3 -3
1532259967909795 0 -2 -3 0 0 -4 -4 -1
1532259968082334 0 -3 0 0 -1 0 0 -2
1532259968158132 1 -1 -2 0 -2 0 -3 0
1532259968246894 -2 -2 -1 2 -2 0 -4 -3
1532259968336654 0 -1 0 0 -1 0 -1 -3
1532259968494232 -1 0 -1 0 0 -1 -3 -1
1532259968591971 0 -2 -1 -1 -2 -1 -1 0
1532259968666771 2 1 -2 3 0 -1 4 -1
1532259968689710 0 -2 -1 -2 -1 -3 -1 0
1532259968741571 0 2 -1 0 4 -1 0 0
1532259968794430 -3 -1 0 -3 -3 -2 -1 -4
1532259968816370 -2 -1 -1 0 27 -2 0 2
1532259968877209 -1 -4 -3 1 -16 0 1 -1
1532259968944031 -1 -4 -3 -18 26 -2 -4 -2
1532259969079667 1 3 7 7 -1 4 -6 1
1532259969101608 1 1 5 16 5 -1 1 -1
1532259969199347 0 0 -2 0 -20 -13 -1 -16
1532259969214306 -15 -2 -5 -4 15 -5 -2 -4
1532259969244227 14 -1 5 -21 -19 14 -4 6
1532259969259186 -3 1 4 5 -14 -3 10 2
1532259969282125 1 -3 6 2 11 24 8 -1
1532259969304067 0 1 18 26 47 17 1 2
1532259969341966 2 2 14 44 9 3 6 3
1532259969363907 -5 -6 -10 -2 -15 -17 -5 -1
1532259969409784 -2 1 7 0 -30 9 -4 3
1532259969461646 2 -1 -1 -9 -5 14 -23 -7
1532259969514504 1 -1 1 9 -1 -6 2 -2
1532259969574344 -4 -11 2 -1 5 3 -7 -2
1532259969597283 -1 2 5 6 -13 6 -2 -4
1532259969642162 -3 1 -1 -8 39 15 2 0
1532259969687042 1 -1 -2 -2 -16 -4 -1 0
1532259969723944 1 8 20 38 7 4 3 2
1532259969761842 -1 -1 -3 6 -3 -5 -3 -2
1532259969851603 -3 0 8 -4 48 6 0 -1
1532259969911443 0 -1 4 12 -5 6 1 0
1532259969987240 1 -2 -8 -14 -20 -3 -31 -5
1532259970039101 -1 1 -2 0 5 0 0 -2
1532259970054091 0 -2 -3 -6 -7 -5 4 1
1532259970076999 2 -2 -1 4 -7 2 -2 -2
1532259970106920 1 1 10 10 -7 9 -2 0
1532259970121880 -1 4 7 -5 12 3 0 -1
1532259970151801 -2 -4 -13 -12 -39 3 1 1
1532259970174738 1 1 13 6 -12 -11 -3 -3
1532259970204664 -2 -3 4 6 40 20 -1 1
1532259970241559 -2 3 5 13 -7 -5 -3 0
1532259970279458 -1 0 0 3 1 -5 2 -4
1532259970339298 -1 0 -2 -16 15 36 -53 -13
1532259970422078 6 -6 -3 -1 6 -26 49 19
1532259970458979 1 -4 0 1 -3 -1 -10 -4
1532259970481918 2 0 -4 3 16 6 -18 -1
1532259970511837 4 0 1 8 -16 -4 -6 -2
1532259970549735 8 -5 -4 -2 -6 -2 -6 -4
1532259970579656 -5 -12 2 0 -17 -7 -1 0
1532259970616557 1 7 8 10 18 6 -5 1
1532259970669416 -8 -12 -36 -18 -5 -4 -4 -4
1532259970691357 -4 -7 -16 -10 -33 -6 -4 -4
1532259970759176 -3 5 5 -1 -38 0 0 -2
1532259970782114 0 -2 -1 1 -5 7 14 3
1532259970812035 -11 2 5 5 4 2 -12 -6
1532259970886834 0 -1 -2 0 -22 6 -14 2
1532259970961634 -2 1 -1 -7 -12 -5 -2 -2
1532259971097271 2 4 9 13 3 -3 0 0
1532259971164093 -2 -2 -1 -4 -19 0 -7 -2
1532259971419410 -1 -3 -3 -17 -13 -12 10 -2
1532259971524130 0 -1 -2 3 -11 -3 -4 0
1532259971644808 -1 -1 1 -3 -6 -1 5 -1
1532259971711628 -2 -3 -3 -1 -1 1 -1 0
1532259971749527 0 0 -2 -3 -7 -9 1 -1
1532259971779447 0 -2 0 -5 15 16 -1 -2
1532259971809368 -1 0 0 3 -3 -14 -9 -1
1532259971854266 -2 -1 -2 -2 -3 2 0 0
1532259971877186 -2 0 -1 5 -3 -63 -24 -1
1532259971914087 2 1 -1 -7 -50 57 7 -1
1532259971929048 -3 -1 -2 -7 -20 7 2 0
1532259971981907 -1 0 0 -1 -11 21 2 0
1532259972041746 -1 -3 -4 -3 -12 -4 -6 -2
1532259972094604 0 -2 -2 -3 12 -82 -3 -2

1532259972146466 -1 2 -2 -4 -58 -48 -6 0
1532259972229244 -3 -1 -4 -4 -2 9 8 -3
1532259972267143 0 3 -1 -6 -11 13 -2 0
1532259972312267 -1 1 1 -1 2 1 6 -1
1532259972342186 -1 -2 1 1 -21 -29 5 -4
1532259972364128 -1 -3 -4 -4 -12 1 -5 -1
1532259972416987 -3 -1 -1 -2 -8 15 -4 -1
1532259972431947 1 -1 -3 0 -4 3 0 1
1532259972499765 -2 -1 -3 0 -1 0 -4 -3
1532259972545643 -2 -1 -1 -3 2 -7 0 -2
1532259972596506 0 -2 0 -1 4 3 2 -3
1532259972649365 -2 -4 -3 -2 0 -6 -6 -4
1532259972702223 -1 -1 -1 -2 -3 -9 -1 -1
1532259972724165 -3 -2 -2 -2 0 3 6 -2
1532259972762064 -2 1 0 0 0 -1 -5 0
1532259972828885 -1 -3 -2 -3 -2 -4 -3 -2
1532259972851824 0 -2 -1 0 -1 1 4 0
1532259972874762 -1 1 1 0 1 1 -1 -1
1532259972889722 1 -1 -1 -3 -2 10 -2 0
1532259972964522 -2 0 -2 0 0 -2 -1 -1
1532259972994442 -2 0 -1 0 -2 -2 -1 -1
1532259973032341 0 0 -2 -4 -2 -2 -4 -2
1532259973054291 -1 -2 -2 0 -2 -13 -4 -3
1532259973099162 -2 -4 -1 0 0 2 1 0
1532259973114122 -2 0 -1 -6 0 -5 -2 -2
1532259973188922 -1 0 1 -1 0 -4 -3 -2
1532259973211861 0 -1 1 0 -3 0 0 0
1532259973309600 -1 0 -2 -1 -1 -2 -2 0
1532259973369439 -2 -1 -2 0 1 -2 -1 -1
1532259973391380 0 -3 -2 -2 -1 -1 -1 1
1532259973429280 -1 -1 0 1 1 7 -5 0
1532259973452218 0 0 -1 -1 -1 -3 0 1
1532259973467178 -3 -2 -1 -3 0 1 3 0
1532259973541978 1 -1 -1 1 0 0 -9 -1
1532259973594837 0 -3 -1 0 -2 -8 1 0
1532259973661658 0 0 -1 -2 -1 -3 -8 -3
1532259973721498 0 -1 -1 -2 -1 0 -1 0
1532259973759396 0 -1 -1 -1 -2 2 0 0
1532259973812255 -1 -1 -2 -2 -1 -1 -1 -1
1532259973857147 -2 0 0 -1 0 0 -1 -2
1532259973908997 -2 -1 -2 -1 -1 -2 1 0
1532259973946895 -1 -2 0 0 0 0 -1 1
1532259973984794 0 0 -3 0 -2 0 -1 -1
1532259974021696 -2 0 0 -1 -2 0 -4 -2
1532259974059594 0 -1 -1 -1 -2 0 -3 0
1532259974081535 1 -3 -1 -2 0 -1 -4 -2
1532259974119434 -1 0 -4 1 0 -1 -2 -1
1532259974149354 0 -1 -2 -1 -2 -3 -5 -2
1532259974164314 -1 0 -2 -1 -2 1 -1 -2
1532259974224154 0 -1 -3 0 0 -1 0 -1
1532259974284003 -2 -2 -1 -2 0 4 0 1
1532259974328874 0 -1 -1 -2 -1 0 -4 0
1532259974351813 1 1 -2 -2 0 1 2 1
1532259974366772 -2 0 0 0 -2 0 -2 -1
1532259974419631 -1 -1 -2 0 -1 -2 -3 -1
1532259974464511 -1 -2 -2 -1 2 -1 0 0
1532259974486465 0 0 -1 -1 0 -1 0 0
1532259974509391 -2 -1 0 -2 -1 -2 -1 0
1532259974554271 0 -2 1 0 0 1 -2 -3
1532259974614111 -1 -2 0 0 -2 0 -1 -1
1532259974660986 -1 -2 -1 -1 -1 1 0 -1
1532259974771690 -2 -2 -1 -2 -1 1 0 -2
1532259974869428 -1 -1 -1 -1 -1 -1 2 0
1532259975071899 -1 -1 0 -1 0 -3 -3 -2
1532259975169626 -3 0 0 1 -2 1 -2 -1
1532259975408986 -1 -1 -1 -4 -2 0 -2 -2
1532259975589503 -3 -1 -2 -2 1 -2 -1 -1
1532259975664303 -1 1 -1 -2 0 2 2 -2
1532259975717161 -1 -1 0 0 -1 0 -6 0
1532259975754093 -3 -2 -1 -1 -2 -3 0 -2
1532259975769023 0 0 0 -2 -1 0 -5 -1
1532259975956522 -4 0 -3 -3 -1 -2 -1 -4
1532259976294617 1 -3 -6 -19 6 15 3 2
1532259976346479 -1 3 2 -1 -4 -4 1 2
1532259976361439 -3 -3 -8 -7 -12 -8 1 -3
1532259976384377 -1 -7 -4 -2 13 -13 29 3
1532259976444217 -16 -1 -4 -19 -3 18 -63 -14
1532259976512037 6 -4 -1 -6 -26 -11 7 3
1532259976556916 5 2 3 9 -50 -29 -8 2
1532259976586836 9 -2 -7 -3 3 -35 -5 -10
1532259976684574 -1 -1 -9 -2 -67 -12 -4 -3
1532259976766356 -6 1 0 0 -62 -14 -1 1
1532259976834174 2 -2 -2 -2 -18 -7 19 2
1532259976857127 4 -1 -1 -1 11 8 -24 3
1532259976872074 -1 7 8 6 2 -4 -26 -22
1532259976931914 -7 -2 -3 6 29 -30 11 -5
1532259977029652 -6 0 2 1 -69 -7 -6 1
1532259977059572 -8 -2 -3 -6 -5 0 -6 -21
1532259977126393 6 16 54 66 39 11 1 6
1532259977164291 4 3 -2 16 19 1 -3 0
1532259977262030 0 -4 -8 -2 -33 7 -26 0
1532259977298932 -5 -5 -2 -8 -11 2 -8 -5
1532259977336830 -2 -1 -1 3 3 0 2 -1
1532259977359769 -3 0 4 6 -10 7 -2 -5
1532259977456510 -13 -13 -33 -17 -4 -16 -5 -3
1532259977524328 -2 -4 14 2 24 -3 3 1
1532259977607108 -13 -15 -37 -23 -4 3 -8 -8
1532259977681908 3 -7 -12 -17 -38 -10 1 1
1532259977734766 -2 -5 -5 1 11 -2 12 1
1532259977764686 0 1 2 4 2 17 -18 -5
1532259977831507 -4 -3 -4 -3 0 -11 17 -4
1532259977922265 -2 -9 -18 -23 -16 -9 4 5
1532259978101785 1 4 -10 -14 11 2 1 0
1532259978251385 6 -3 -2 -2 7 13 -31 17
1532259978372062 0 0 0 -10 -5 -1 4 0
1532259978529640 -2 -2 2 5 54 17 0 -3
1532259978649321 -1 1 3 15 -3 -5 -23 -5
1532259978806899 0 2 2 -1 -7 8 -5 1
1532259978836819 -2 0 -1 0 -7 -6 6 1
1532259978889678 -2 -4 0 -3 -6 16 -5 -3
1532259979084158 0 -2 0 -2 2 18 3 0
1532259979114078 -1 -2 -2 -4 -4 7 -9 -2
1532259979151977 -1 -2 -1 0 -13 23 8 1
1532259979173918 -1 1 0 -4 13 14 5 -1
1532259979196856 1 -1 -1 -1 16 2 -14 -2
1532259979211816 -1 -2 -1 4 2 28 13 0
1532259979226776 -1 0 -1 1 -12 -11 -3 -2
1532259979271666 0 -2 0 2 -17 -14 0 -1
1532259979286616 -1 -2 -3 -3 -12 -69 -3 -4
1532259979339475 -1 0 -2 -3 -8 -37 -4 -2
1532259979422254 -3 0 -2 -5 -2 60 3 1
1532259979459154 0 -1 1 10 -15 21 6 1
1532259979482094 -2 1 2 -3 -13 39 10 1
1532259979526974 1 -3 -1 -4 3 -17 2 -3

1532259979564872 -2 -2 0 0 8 21 3 0
1532259979586814 -4 -5 -3 -5 -17 23 5 0
1532259979616733 -2 -2 -3 -1 20 19 -5 -4
1532259979631693 -3 0 -2 -5 8 26 -8 0
1532259979676573 0 -1 -2 -3 -5 9 -11 0
1532259979699512 -1 -1 -2 2 9 18 4 -1
1532259979751373 -2 -3 0 -3 -3 71 3 -1
1532259979767338 -2 0 -1 -2 -37 -70 -7 -2
1532259979804232 -1 -8 -2 -2 -6 -25 -5 -1
1532259979834152 1 0 0 0 1 -37 -3 -3
1532259979857091 -1 0 0 0 -26 -39 9 -1
1532259979879032 0 -1 -2 -4 5 -9 -6 -3
1532259979893992 -1 0 -2 -2 -9 -1 8 0
1532259979916936 -1 -3 1 -2 -4 24 5 -2
1532259979984749 -1 1 -5 -6 -3 -22 -5 -3
1532259980006691 -1 -2 -4 -1 1 14 -3 0
1532259980051570 -2 0 2 0 -3 7 -2 0
1532259980104440 -2 -1 -2 -2 -2 0 0 1
1532259980134350 -1 -1 -2 -1 0 1 0 -2
1532259980164269 -1 2 0 1 -1 -1 2 21
1532259980239069 20 2 2 0 3 20 -3 -5
1532259980254033 -11 0 3 0 13 -48 -7 -2
1532259980329826 3 -2 -3 -1 3 41 -1 -13
1532259980381688 -9 0 -1 2 34 -6 -1 -20
1532259980434547 -8 0 0 -1 1 -10 -7 -71
1532259980479427 0 -1 0 1 3 10 -3 15
1532259980517325 -3 0 -1 1 0 -5 -2 -1
1532259980554232 -8 0 -1 0 2 6 -1 8
1532259980584147 -1 -1 0 0 0 0 -1 0
1532259980637005 6 -1 0 -1 1 -16 -2 16
1532259980711806 1 -1 -3 -1 -1 0 -2 -1
1532259980741725 1 0 -1 0 -8 7 -1 12
1532259980794584 -9 -1 2 0 -1 2 -1 3
1532259980922243 -3 -3 -1 -1 -3 -7 -2 -8
1532259980937203 -3 -1 0 -3 -1 1 -3 -4
1532259980997043 -4 -2 -1 1 -1 -3 -4 -4
1532259981018984 2 -3 -2 -2 -2 6 1 11
1532259981033944 -1 -1 -1 -1 -1 2 -3 -15
1532259981071843 -1 -1 -2 0 -1 -3 2 2
1532259981101763 3 -1 1 -2 -1 -7 -1 11
1532259981161603 -5 -1 -2 -1 0 0 -1 -13
1532259981221457 -3 -2 -3 -3 -2 7 5 2
1532259981274301 2 -1 -2 -2 -2 -7 -9 5
1532259981342120 -2 1 -1 -1 -2 -4 -4 -3
1532259981410936 -1 0 -1 -1 -1 4 4 2
1532259981491720 1 -2 0 -2 -1 -3 -2 0
1532259981566519 -1 -1 0 -1 -1 -3 0 2
1532259981627357 0 0 0 -1 -1 0 2 7
1532259981732077 -3 -2 -2 0 0 -6 -7 1
1532259981783938 -2 -1 0 1 0 2 -1 10
1532259981829815 8 1 -2 1 -1 -7 -7 8
1532259981881677 -2 0 -1 -1 -2 -5 -2 -10
1532259981919575 -3 -2 -1 1 0 2 3 -5
1532259981964456 -1 -2 0 -3 0 -1 0 -10
1532259981986397 -3 0 -2 -1 -1 -4 -2 -3
1532259982025293 0 -3 -2 0 -1 4 1 -10
1532259982054216 -2 -1 0 -1 -1 4 -8 8
1532259982084135 -2 -2 0 -1 0 -1 3 -5
1532259982107074 -6 1 -2 -3 -2 -2 0 0
1532259982143976 0 -1 -2 -2 0 4 -3 2
1532259982256674 0 -3 0 -2 0 5 2 -2
1532259982271634 -1 -1 0 -1 -2 -1 -2 -6
1532259982301554 1 -1 -2 -1 -2 0 -1 0
1532259982346434 1 1 -2 -2 -2 -6 0 4
1532259982399292 -2 0 -1 1 -2 -4 2 -5
1532259982474093 -1 -1 -1 0 0 -1 1 5
1532259982548893 -2 -2 -2 -2 -2 -3 3 11
1532259982639666 2 1 0 0 -1 -3 -2 1
1532259982736391 -2 -1 -2 0 -3 -2 2 -1
1532259982767308 0 0 -1 -2 0 -7 -6 -3
1532259982842109 0 -1 0 -2 -2 3 3 7
1532259982893969 -4 0 -1 -2 -1 2 5 4
1532259982969767 -2 -2 1 0 -1 0 0 1
1532259982999687 2 1 1 -1 -1 0 2 33
1532259983029608 0 1 1 -1 -1 7 -9 0
1532259983097425 -5 -1 -2 0 0 0 -5 -15
1532259983119367 0 -1 -2 0 -2 -6 -1 -7
1532259983172226 -2 -1 0 -1 -2 -4 -6 -10
1532259983187186 1 0 0 -2 -1 -5 5 52
1532259983374684 -2 -1 -1 0 0 2 -4 -1
1532259983434525 1 -1 -1 -1 -1 4 0 -4
1532259983636983 0 -1 -6 -4 -13 -9 -5 -1
1532259983719761 -8 3 -8 -5 -60 -3 -5 -5
1532259983795560 3 7 -3 -1 60 49 -10 1
1532259983809522 -15 -9 -5 -5 -27 -25 20 2
1532259983839442 1 -5 -4 -6 -38 -8 -15 8
1532259983899281 -7 -4 -6 -5 33 3 -2 -9
1532259984004009 -2 -1 -1 -7 -1 4 -9 -1
1532259984071820 -4 0 1 2 19 13 1 -3
1532259984116700 -3 0 -1 -6 -12 5 1 0
1532259984139639 9 3 -2 -3 0 8 3 1
1532259984176540 16 -12 0 -5 -44 2 -3 -3
1532259984199479 -11 -7 -5 -2 52 16 -2 2
1532259984221421 0 -4 -1 -7 -10 -7 1 0
1532259984251340 -2 -6 -7 -8 9 -5 -6 -1
1532259984282258 -5 -3 -2 2 43 18 1 -3
1532259984349079 0 -5 -9 -4 23 17 2 0
1532259984378999 -1 -3 0 8 30 10 -4 0
1532259984439841 -13 1 0 -2 -43 -26 -1 -1
1532259984484716 13 21 1 2 18 5 -20 -4
1532259984514636 2 2 2 4 26 11 6 1
1532259984544556 3 12 5 -3 22 -9 15 2
1532259984559516 -13 -3 -8 0 0 0 -7 -5
1532259984596417 1 -5 -5 -1 -3 -2 -6 -1
1532259984627335 1 10 -7 -1 5 -1 -6 1
1532259984687175 0 -6 -10 6 3 -1 -2 -1
1532259984761975 0 5 6 -1 6 -5 -3 -1
1532259984776935 1 -5 -1 2 -19 -11 -2 -1
1532259984836775 -2 4 4 8 2 17 -49 -19
1532259984866695 0 -4 -7 -3 -9 -11 50 15
1532259984904594 -10 -7 0 1 4 -14 21 4
1532259984949473 -2 -3 -1 2 6 -10 4 0
1532259985039239 -1 1 -2 2 -36 5 -15 -3
1532259985196812 -7 -3 -10 5 -5 -4 3 -2
1532259985249670 -5 1 -4 -1 29 0 6 -8
1532259985377329 2 5 3 6 10 12 -11 0
1532259985594748 -9 -9 1 13 54 -5 -3 -4
1532259985752327 -2 -1 -2 -3 -21 -18 8 3
1532259985804188 -1 1 20 -3 -15 -69 -20 -2
1532259985849068 -2 -1 3 -19 -20 14 4 -3
1532259985931846 -3 -1 -7 1 1 23 3 -3
1532259986119345 -1 1 0 0 7 2 3 -1
1532259986157244 -2 -1 0 1 -6 -4 0 -2
1532259986202124 0 1 -3 -4 2 10 0 0
1532259986232044 -1 0 -1 3 -5 -12 -3 1
1532259986268945 1 -1 -4 -8 0 -14 7 -3
1532259986291883 0 -2 0 -3 3 28 0 -4
1532259986321805 -2 -4 -5 -1 -5 8 1 1
1532259986337761 -2 -1 0 -1 -3 9 -4 -3
1532259986359702 -2 -2 -1 0 7 -1 2 0
1532259986396604 2 1 2 5 5 12 0 2
1532259986434502 -3 -3 1 1 -5 -25 -1 0
1532259986449462 -2 -3 -1 1 -2 5 -4 0

1532259986479397 1 1 -3 -2 31 8 5 0
1532259986547201 -2 -2 -4 0 -10 -4 3 -1
1532259986569142 -2 0 -2 7 17 31 6 -1
1532259986599062 -1 -3 0 -1 5 -7 -3 -1
1532259986636983 0 1 -3 0 -17 -16 -2 0
1532259986673869 -2 -2 -4 -7 -53 -66 -11 -4
1532259986696808 -1 -1 -1 -4 -11 -3 0 -1
1532259986771607 2 -1 -2 0 1 6 1 1
1532259986824465 -1 4 1 -1 -18 -32 0 -2
1532259986854399 -2 0 -2 -2 3 -7 -11 -1
1532259986959130 1 -2 -3 -3 -4 -6 2 19
1532259986982068 1 2 0 0 -2 -1 6 10
1532259987018970 -1 0 1 0 12 7 2 -3
1532259987063849 1 -5 -3 -4 -18 -7 -6 4
1532259987131678 -1 -2 0 0 4 4 -3 1
1532259987169567 1 -2 -1 1 3 -7 0 1
1532259987206468 0 -3 -1 0 1 -6 -1 -3
1532259987229407 -2 0 0 0 3 -4 0 2
1532259987259352 0 -3 -2 -1 -1 -4 1 -1
1532259987289272 0 -2 -1 1 -1 -2 -1 -1
1532259987319192 -2 -1 0 -1 1 -2 0 -2
1532259987357091 -3 -1 -1 0 -3 -8 -2 1
1532259987408952 -1 0 -2 0 -5 -31 -6 0
1532259987454157 -1 0 -2 -3 0 -2 1 0
1532259987469103 0 1 -3 -1 -2 3 3 -1
1532259987492050 -2 -1 -1 1 -2 9 0 -2
1532259987543911 0 -1 0 0 1 2 -1 -1
1532259987619709 -1 -1 -2 -1 -1 1 0 -3
1532259987649629 -3 -1 0 1 0 1 -5 -3
1532259987686530 0 0 0 -3 -2 -2 0 -1
1532259987739389 -1 -1 -1 -2 -2 -1 2 1
1532259987784269 0 -1 0 -1 -1 1 2 3
1532259987814189 -1 -1 -1 -2 1 -7 -7 -3
1532259987829149 0 -2 -1 1 0 6 2 -1
1532259987859069 -1 -1 0 -3 -2 -3 0 2
1532259987882007 -1 -1 -1 -2 0 -3 2 2
1532259987934867 0 -1 1 -1 -1 -3 -2 -2
1532259987948828 -1 -2 -3 -1 -2 -1 0 -1
1532259987964786 0 -1 -1 -1 -2 1 -1 -1
1532259988031607 -2 -1 -2 -1 -1 0 -1 -1
1532259988069506 1 0 0 1 -2 -5 -2 -2
1532259988099425 -1 -1 -1 -2 0 0 -7 0
1532259988129345 -2 -1 -1 -2 -2 -1 1 -2
1532259988167244 -2 -3 -2 2 0 4 0 -2
1532259988234066 0 -2 -2 0 0 0 -3 0
1532259988257005 -1 0 -1 -2 -1 -2 -1 1
1532259988301885 0 -1 -2 -2 -1 1 0 -2
1532259988346764 1 -1 -1 -1 -1 0 -1 -3
1532259988369703 0 0 0 1 -1 1 2 1
1532259988421564 0 0 -2 -2 -2 1 -1 -2
1532259988436524 -2 -2 -3 -2 -2 -5 -4 -3
1532259988481404 -1 -2 -1 -2 -1 -2 -1 0
1532259988542242 0 -1 0 -1 -1 -8 -2 -1
1532259988572162 2 0 -3 -1 1 6 1 2
1532259988603079 -2 -1 -1 1 0 0 0 -2
1532259988646962 -2 -2 -2 0 -1 2 3 -1
1532259988714780 -2 2 1 -1 0 -4 -4 -3
1532259988744711 -1 -2 -1 -1 0 3 2 0
1532259988766642 -2 -1 1 -1 -1 0 -3 -3
1532259988834460 0 -3 -4 -3 -3 -2 -5 1
1532259988871362 -2 -2 -1 0 0 -3 -9 1
1532259988924220 0 -1 -3 -3 0 4 3 -1
1532259988984060 0 -1 -2 0 1 -5 -4 1
1532259989021959 0 -2 0 -1 -3 -1 1 0
1532259989051878 0 0 0 0 -1 -2 -5 2
1532259989111718 -1 -1 -2 0 0 1 -3 -1
1532259989149617 0 1 1 -1 -2 -4 -1 -1
1532259989239378 -1 -2 -3 -3 -2 -4 -2 -1
1532259989292236 0 -3 0 -1 1 -3 -2 -1
1532259989337116 -2 -1 0 0 0 1 -1 -3
1532259989367036 -1 0 -2 -2 -1 -1 1 -1
1532259989531596 -2 -3 -2 0 0 -3 -2 0
1532259989667234 -3 -1 -3 -1 0 0 4 1
1532259989704167 -1 1 -2 0 -4 -3 -2 -1
1532259989742032 0 -1 -1 0 -1 3 1 -2
1532259989779939 0 -2 -1 0 -1 0 3 1
1532259989816833 -1 -2 1 -1 1 -5 -3 -2
1532259989891633 -1 -3 -1 -1 0 2 1 0
1532259989974412 -2 -1 0 0 1 5 4 -2
1532259990094092 -1 0 0 0 -2 0 1 1
1532259990131991 1 -1 -1 -3 -1 4 3 1
1532259990199809 -2 0 -3 -2 0 -2 1 -1
1532259990409249 -2 0 0 -2 -2 0 -2 -1
1532259990484049 -4 -6 -8 -7 -1 -1 -11 -5
1532259990558849 1 -4 3 1 -4 -11 -14 -2
1532259990596748 0 -5 -13 -32 -11 -5 20 16
1532259990619687 0 0 -5 9 5 -2 -4 -2
1532259990664566 -21 6 -1 -1 1 16 5 -5
1532259990716428 5 -5 -5 4 -3 -2 11 18
1532259990731387 2 -7 0 -3 -19 -25 -16 -10
1532259990807185 3 -4 -2 -2 20 -1 -10 -18
1532259990829127 -37 3 0 2 5 7 1 -17
1532259990874006 -6 -4 -16 -22 10 3 3 0
1532259990919883 -2 -4 -5 -25 -24 -25 -8 -2
1532259990933846 1 2 -3 -25 -74 -14 -4 0
1532259990986704 -3 -5 -9 -5 -3 -10 0 -1
1532259991001665 -1 -2 -2 -13 44 6 -4 0
1532259991091424 8 -1 1 1 5 -4 17 -4
1532259991129324 4 -1 -3 3 70 12 -12 1
1532259991152262 -1 -1 0 3 -26 -6 13 6
1532259991167222 -7 -7 -3 -2 3 -1 2 -5
1532259991197142 -1 -8 1 -5 12 -14 1 -1
1532259991212102 3 6 17 -3 19 9 5 5
1532259991256981 -3 3 -11 -9 -16 -4 -4 -3
1532259991271956 0 5 7 14 12 12 2 1
1532259991293884 1 7 17 -2 -14 -13 0 -2
1532259991339761 -2 1 10 -22 9 -18 -6 -1
1532259991354736 -5 -7 -29 -20 -31 2 1 -4
1532259991399600 -1 -1 1 -4 13 -8 -3 0
1532259991466422 3 5 12 17 -1 5 1 2
1532259991504322 -1 -5 -8 -15 -37 -21 34 7
1532259991527259 1 3 3 10 -4 -1 -15 -5
1532259991549215 0 -2 2 9 -14 16 -18 0
1532259991624001 -1 -3 -2 0 -5 10 -24 -2
1532259991668881 -3 3 5 7 12 4 -19 -11
1532259991706795 -2 -2 -3 -6 2 -12 3 -2
1532259991804526 4 5 7 5 27 8 5 4
1532259991834438 -1 -6 -26 -30 10 0 1 -1
1532259991849397 -2 -21 19 39 -21 -4 -5 -62
1532259991902257 -9 -10 -30 -3 -33 4 3 19
1532259991924198 -10 -14 -11 5 40 2 0 7
1532259992066816 -5 -8 -6 16 44 7 0 -3
1532259992149595 -1 0 -2 -8 10 -10 0 7
1532259992186497 0 1 -2 -9 -4 -12 -23 -4
1532259992314156 4 0 0 3 12 -19 4 31
1532259992352054 1 2 2 5 18 23 6 1
1532259992456774 -11 -15 -37 -39 -24 -27 -20 -13
1532259992614353 0 -2 -12 -1 -9 7 -4 -4
1532259992801851 2 1 0 4 2 -6 1 -1
1532259992824790 2 1 1 7 3 -3 2 -1
1532259992884629 -2 -2 -1 -1 -13 -1 -1 1
1532259992936490 2 -2 -2 -1 9 9 -1 -3
1532259992951451 -2 -1 -3 -5 1 1 1 0
1532259992981371 1 -2 0 4 6 -5 -2 1
1532259993034230 -4 -1 -1 8 -2 -12 -9 -3
1532259993154907 -2 -4 -2 -7 -8 18 -7 -2
1532259993221742 2 1 2 3 3 2 0 0

1532259993274587 -2 6 8 6 8 11 0 -3
1532259993311488 0 -2 -4 -3 21 12 3 -2
1532259993334427 0 -4 -2 -1 9 9 -3 0
1532259993402245 -4 -4 1 1 8 3 2 -1
1532259993439147 -3 -7 -6 -4 -2 3 -9 -3
1532259993492005 -3 -4 -2 -1 -17 -16 -6 0
1532259993506966 -1 2 -2 -1 4 -1 3 -3
1532259993551846 -2 -2 1 1 -3 23 5 2
1532259993574784 0 -1 2 3 3 -38 1 4
1532259993596725 0 -4 -3 1 8 -8 -3 -2
1532259993657563 -1 0 -1 -3 -1 33 1 -1
1532259993679504 -1 -1 0 -2 -4 -8 -3 1
1532259993716405 0 -1 -1 -1 0 6 -2 1
1532259993792202 0 -1 -1 0 -1 2 2 18
1532259993837082 -1 -1 -1 1 0 -2 -1 -2
1532259993867003 -1 -3 -1 -1 -1 3 -4 -1
1532259993904918 0 0 -1 0 0 -1 7 3
1532259993926843 -2 -2 -2 -1 -3 2 2 -2
1532259993956767 -4 -1 -1 -1 -1 -2 -3 0
1532259993986682 -1 1 -1 -1 -4 -7 -3 1
1532259994001643 1 -2 -2 -2 -3 4 2 3
1532259994069462 -3 0 -2 -3 -4 -3 -1 -1
1532259994107359 -1 -1 0 0 0 0 -3 0
1532259994137286 -1 0 -1 0 0 -1 -5 0
1532259994189147 -2 -2 -4 -3 -1 -3 2 0
1532259994204107 -3 1 1 0 0 -2 -1 -2
1532259994219067 -2 -1 0 -2 -3 -4 -6 -3
1532259994256972 -1 -2 0 2 0 1 4 -2
1532259994286892 0 -3 -1 -3 -1 0 0 -1
1532259994316812 -1 -1 0 1 0 0 1 -1
1532259994354711 -3 0 -1 -2 0 0 -5 -2
1532259994391612 0 -1 -3 -1 -1 -1 -1 0
1532259994421532 -1 0 -2 -1 -1 1 -1 0
1532259994497339 -1 0 -1 0 1 0 -4 -5
1532259994542209 -4 -1 -1 -1 -2 0 3 2
1532259994579111 -6 -2 -1 -4 -1 0 -3 -2
1532259994602050 1 0 -1 -1 0 -1 2 -8
1532259994617009 -1 -2 -1 -1 0 0 -1 -11
1532259994668887 -2 -1 -2 0 -3 -5 -7 -8
1532259994691809 -2 -1 -2 -2 -1 0 0 -1
1532259994744670 1 -2 0 0 -1 -2 0 -1
1532259994759627 -2 -1 -3 -2 0 -1 -2 -1
1532259994781569 1 -2 -2 -2 -1 -2 0 0
1532259994796529 0 -1 0 0 -1 -1 0 0
1532259994811492 -2 -1 0 -1 -1 -1 -4 -4
1532259994841409 -1 -2 0 -2 -1 0 1 -1
1532259994879308 -2 -1 0 0 -2 -2 -3 -1
1532259994902246 -2 -1 1 -1 -2 -2 2 -2
1532259994924188 -2 -1 -4 -1 -1 -1 -2 -1
1532259994954108 -1 -2 -1 -1 -1 -1 -2 -1
1532259994977047 -1 -1 -2 0 0 2 -2 -1
1532259994998987 0 0 -2 -1 -1 -1 1 -2
1532259995028907 6 -1 -2 0 0 -1 -2 -1
1532259995051846 -6 -1 -1 -2 -1 -2 -1 -2
1532259995089745 -1 0 -2 -1 -1 -4 -1 -2
1532259995126647 4 -1 -1 0 0 -1 -8 27
1532259995186492 -3 -2 -2 -1 -1 -1 0 -3
1532259995239345 -3 0 -2 -2 0 -1 -1 -2
1532259995299185 -1 0 -2 -1 -2 -1 0 -5
1532259995337083 1 -1 0 0 1 3 4 35
1532259995381964 6 1 0 -2 -1 -1 1 38
1532259995426844 2 -1 0 -1 0 -2 1 -4
1532259995441803 -4 -2 -3 0 -2 -2 1 -18
1532259995464758 -3 -3 2 1 -1 0 1 -15
1532259995501643 1 0 -1 0 1 2 2 8
1532259995576444 0 -2 -1 -2 1 -1 -3 -3
1532259995591403 0 0 -1 -2 -3 1 -3 -3
1532259995629302 -3 -1 -1 -1 -2 -2 -1 -1
1532259995652241 -3 0 0 -1 -1 -2 -2 -5
1532259995674182 -2 -3 2 -2 -3 -5 -6 4
1532259995704105 0 1 -2 1 -1 1 0 -2
1532259995727041 3 1 -2 0 1 1 1 2
1532259995771921 0 0 0 -2 -2 2 3 1
1532259995794860 -1 0 1 1 -1 -3 1 15
1532259995831761 7 0 1 -1 -1 -3 -3 8
1532259995869660 -2 -1 -1 2 -2 1 0 -3
1532259995921537 -1 0 0 1 2 3 -4 -1
1532259995997318 2 -3 -2 -1 1 1 0 -1
1532259996116999 -8 -2 -1 -2 -3 -3 -10 -60
1532259996161878 0 -1 -1 -1 1 1 1 10
1532259996191798 -2 -3 -2 -1 -1 -1 0 4
1532259996236678 0 -2 -1 -1 -2 0 -3 6
1532259996259617 -2 2 -1 -1 1 1 -2 -4
1532259996289537 0 1 -2 0 -4 -1 0 -2
1532259996326439 0 -2 -1 -1 0 1 1 15
1532259996349377 -2 1 -1 -2 0 -1 1 5
1532259996364337 2 -1 -2 -1 -3 -1 2 7
1532259996402236 0 -1 -2 0 -1 -1 2 2
1532259996417196 0 -1 -1 -1 0 0 -3 7
1532259996477036 0 0 0 -4 -3 -3 -1 0
1532259996536876 -1 0 -1 -2 0 1 -1 -2
1532259996551835 -2 0 -2 -1 0 -2 -1 1
1532259996566795 0 0 0 1 -1 0 -3 -2
1532259996589734 -1 -1 -1 -2 1 -3 -1 0
1532259996634614 0 -1 1 0 -1 3 3 -1
1532259996686475 -2 -4 -2 -2 -2 1 -1 -2
1532259996754294 -2 0 -1 0 -1 -2 -2 2
1532259996807152 0 -1 -3 0 -2 -6 -6 0
1532259996852033 -1 -1 0 0 0 4 -1 0
1532259996979691 0 -3 0 -3 -3 -2 -1 -3
1532259997016593 -1 0 3 -1 -1 -2 -2 -2
1532259997069451 -2 -2 1 -3 0 -3 -2 -1
1532259997182150 -2 0 0 1 1 0 3 -1
1532259997271910 0 -1 -2 -2 -1 -6 -5 -2
1532259997399569 -1 -1 -2 1 -1 -1 -1 1
1532259997676827 -2 -1 -1 -1 -1 -1 0 -4
1532259997729686 1 -1 -2 -3 -4 0 3 3
1532259997804486 3 -1 0 1 -1 3 2 3
1532259997849366 -2 -1 -1 1 -1 0 2 -3
1532259997864326 0 -2 2 -1 1 0 -3 -1
1532259997947104 1 3 -1 -14 1 -39 -1 1
1532259997998965 -2 -2 -14 -21 6 -7 -4 -1
1532259998126624 -2 2 -11 -27 -4 -19 -6 -1
1532259998277221 -6 -1 -3 2 10 12 11 0
1532259998299162 0 -4 -3 -5 1 -17 -5 20
1532259998352022 -1 -2 -11 -21 31 7 3 -3
1532259998366981 4 1 17 46 14 -3 3 1
1532259998411862 -8 -4 -7 -20 5 -6 3 -7
1532259998479680 0 -3 -10 -31 -3 6 0 1
1532259998501622 0 -4 -5 20 -11 -4 -2 -1
1532259998531542 0 0 1 -2 39 17 -1 -4
1532259998569440 2 2 3 4 -47 -7 -18 0
1532259998652219 -1 1 4 -1 -2 20 1 -2
1532259998712059 0 0 -3 2 14 3 -2 0
1532259998734000 -1 0 1 3 12 3 4 35
1532259998756939 -7 0 4 0 32 3 0 -13
1532259998771899 -1 -1 -2 -4 -6 -1 6 -8
1532259998816779 -2 -1 -2 -3 -29 10 0 -2
1532259998869637 1 1 0 4 -45 -29 -3 2
1532259998899557 -3 -6 -7 -4 8 1 -10 -7
1532259998914518 -1 0 1 1 6 20 -3 -2
1532259999034198 3 0 1 4 52 35 0 0
1532259999072097 -2 1 0 15 29 8 -58 -15
1532259999176816 -3 -2 1 1 13 -7 -9 1
1532259999214715 -4 0 0 1 2 -17 -19 -5
1532259999289515 -2 -2 1 12 5 -14 2 -5
1532259999326416 -2 2 9 28 -5 -4 1 0
1532259999364315 -2 -6 9 9 -7 -40 -5 -5
1532259999469035 5 9 4 -44 -37 11 10 8
1532259999544832 -5 -9 -22 37 33 -1 -7 -5
1532259999634591 4 -5 -4 -1 22 12 -10 6
1532259999686453 -5 0 3 -3 -12 -92 -21 -8
1532260000091371 -1 2 10 -9 -32 2 -5 0
1532260000233999 -1 -1 -2 1 -9 -13 -6 -3
1532260000504267 -2 -1 -3 -2 -1 -2 -2 -2
1532260000542165 0 -1 -2 -10 2 -1 -2 -1
1532260000572084 -1 -1 -3 -4 -10 -4 -1 1
1532260000623946 0 0 -1 -2 4 1 1 -2
1532260000706725 -2 -1 -1 2 5 4 3 -1
1532260000736645 -1 -3 0 -5 -8 2 2 1
1532260000766565 0 0 -2 4 -5 -9 3 -2
1532260000789503 1 -1 -1 -1 -18 -8 0 -1
1532260000804480 1 2 3 17 -12 -11 -3 0
1532260000841365 -2 -1 -1 -6 4 4 -4 -2
1532260000856325 -2 2 4 21 7 -4 -1 0
1532260000917162 -2 -1 -4 -7 -7 7 -4 -2
1532260000947082 -1 1 0 -2 -15 -14 -6 0
1532260000962042 -2 -1 1 -3 0 -10 1 -1
1532260000998943 -1 -1 -1 5 20 4 3 2
1532260001029861 -5 -13 -4 -15 -9 -5 0 -2

1532260001051802 2 -1 -2 3 17 2 1 0
1532260001066761 -1 3 -3 -7 -21 -8 -6 -3
1532260001104661 0 4 1 0 -17 -31 -9 0
1532260001134581 -2 3 3 7 7 40 3 -3
1532260001171494 0 -5 -4 -2 10 9 7 1
1532260001209381 1 -2 1 4 3 8 9 0
1532260001247279 -2 -4 -5 -7 2 -17 -6 1
1532260001299141 1 -1 -2 0 -9 -18 -7 0
1532260001322080 0 0 -3 -2 4 -18 -6 -1
1532260001366959 -3 0 -1 -1 27 -2 4 1
1532260001396879 -1 -2 0 0 -10 48 1 1
1532260001419818 0 -1 -1 0 19 42 1 -3
1532260001434778 -1 -4 -3 -1 27 -12 -1 38
1532260001471679 -2 -3 -3 -2 1 -6 -3 1
1532260001486640 -4 -1 1 -2 -8 -6 0 -6
1532260001531519 0 -3 -1 -2 -1 -8 0 -7
1532260001554464 -2 -1 1 -1 -1 -3 0 0
1532260001599338 -6 -3 -2 -1 -1 -9 -8 -76
1532260001629258 2 0 -1 -2 -2 5 -8 11
1532260001667156 -1 -4 -2 -1 -3 -3 0 -17
1532260001697077 -3 -1 -1 -1 -3 -6 -4 -14
1532260001719017 1 0 0 0 -2 -7 -1 2
1532260001741956 0 1 -1 1 1 -7 -4 2
1532260001764895 -2 0 -2 0 -1 -8 1 -9
1532260001786837 -2 -2 -2 -2 -1 3 -1 -11
1532260001809775 -3 -1 1 1 2 1 2 -14
1532260001846677 -2 0 -2 -2 -2 -1 -2 -1
1532260001891557 -2 -1 -2 -1 -1 3 -2 -1
1532260001914495 -3 0 -1 -2 0 1 1 -11
1532260001967356 -2 -2 -1 -2 -2 -3 -1 10
1532260001997274 3 0 0 -1 -2 -9 -6 -2
1532260002027194 -2 1 0 -1 -1 0 -3 5
1532260002064095 -7 -2 -1 0 0 1 2 -51
1532260002101994 -1 -1 -1 -2 1 -2 -1 -2
1532260002131913 -2 -2 -2 -1 -1 -1 1 7
1532260002169812 -4 1 -1 0 -1 0 1 6
1532260002184772 -3 -1 0 0 0 2 1 0
1532260002236646 3 -1 0 -3 -1 2 -1 15
1532260002289493 0 0 0 -1 -1 -1 0 0
1532260002311434 0 -1 -2 -1 -1 0 -2 -3
1532260002349332 0 0 1 -2 0 -2 0 -3
1532260002379253 -1 -1 -2 -2 -4 -2 -2 0
1532260002417151 -8 -4 -4 -1 0 -1 -4 -58
1532260002439093 -1 0 -1 -2 -1 2 1 2
1532260002581711 0 -3 -1 -1 -4 -5 -2 8
1532260002626591 0 1 -2 0 -1 2 -1 -10
1532260002671471 -6 -2 -1 -2 0 3 -5 -68
1532260002732309 1 -2 -1 0 0 -1 2 10
1532260002814090 -3 -1 -3 0 0 5 1 -6
1532260002873930 1 -1 -1 -3 0 -1 6 6
1532260002889888 0 -2 0 -1 -2 0 1 -3
1532260002911828 0 0 -1 1 -1 -3 -4 -2
1532260002934768 -1 -1 0 -3 0 0 6 -2
1532260002964687 0 -2 -1 -2 -3 -1 -5 -3
1532260002994607 0 -2 -1 0 -2 7 3 -1
1532260003039487 -3 -2 -1 1 -1 0 -2 0
1532260003069409 0 -2 0 0 -1 -1 -5 -1
1532260003099327 -1 0 -1 -1 -1 -4 0 -1
1532260003159167 -1 -2 -2 0 -2 6 4 2
1532260003197100 -4 -1 0 -2 -3 -1 -4 -2
1532260003257903 -1 -2 -1 0 -4 -32 -10 -2
1532260003301785 -1 -1 -1 -1 1 14 7 -1
1532260003354645 1 -2 1 -1 1 10 -1 -1
1532260003414484 -2 -1 0 -1 -2 -17 -1 2
1532260003429448 -3 -2 -1 -1 0 -3 2 -1
1532260003512223 -1 -2 -1 -2 -1 -5 1 -1
1532260003534164 0 -1 -2 0 2 0 1 -2
1532260003564084 1 -2 -2 0 -1 -3 -3 -6
1532260003587068 -2 0 -2 1 -2 -5 -2 -7
1532260003631903 -4 -1 -1 2 1 1 -1 11
1532260003646863 -1 -1 -1 -1 -1 -5 -4 8
1532260003661823 -2 -2 -3 -1 -2 2 -4 -3
1532260003691743 0 -1 -1 0 -1 -5 -1 13
1532260003729642 -2 0 -1 -1 -1 -2 -2 -5
1532260003766543 -1 -1 -1 -2 -1 -10 1 -2
1532260003781502 1 -2 0 0 0 0 -1 -1
1532260003834361 1 -2 -1 -3 -1 -4 2 0
1532260003902180 -1 -2 -1 -2 -1 -2 0 -1
1532260003954041 -1 -3 0 -1 1 1 -5 0
1532260003999918 0 -1 -1 0 -1 8 4 -1
1532260004013881 0 -1 1 1 0 -6 2 0
1532260004044817 0 -1 -2 -1 0 -3 -1 -1
1532260004066740 -1 -1 0 -2 -3 1 -1 -1
1532260004119598 -1 -1 -1 -1 -1 -1 0 0
1532260004187417 0 -1 -2 -1 1 -3 -3 -1
1532260004232297 -2 -2 -1 0 -1 -9 -8 -2
1532260004262217 0 0 -4 -2 0 0 1 0
1532260004358958 -2 -2 -2 0 0 0 -1 -1
1532260004411817 -1 -1 -2 0 -1 1 -3 -43
1532260004524515 -1 -1 -1 -1 -2 -1 0 -4
1532260004599315 -1 -1 -1 -2 -1 -2 1 1
1532260004674116 1 -1 1 -1 1 5 -1 10
1532260004741934 -1 -2 -2 -3 -1 4 -5 2
1532260004944393 -1 -1 -1 -1 -2 3 -1 14
1532260004966334 -1 -1 -4 -1 -2 -6 -4 -3
1532260005027172 2 -1 -1 -2 -2 1 3 13
1532260005125908 -3 -2 -2 -1 0 -1 -3 -9
1532260005169789 -2 -1 0 0 -1 0 1 3
1532260005229630 -4 1 0 -1 -1 0 -5 2
1532260005319391 -2 -3 -1 -2 -2 -7 -2 0
1532260005372249 3 4 0 5 6 13 14 10
1532260005581688 -1 1 -1 3 18 15 -9 -16
1532260005919784 1 -1 -1 -6 -19 -46 -8 -1
1532260005934745 1 0 0 6 15 96 18 2
1532260005979625 1 2 1 -3 -8 -21 6 2
1532260005994585 -2 -4 -3 -12 -4 -33 -5 -4
1532260006039464 -1 -2 -8 -7 -3 -31 -4 1
1532260006069385 -3 -3 0 1 23 9 -5 -2
1532260006152163 1 0 0 -9 16 -5 -7 0
1532260006197044 5 8 18 41 -18 -3 -1 1
1532260006226963 0 0 -5 -29 -12 -6 -2 -1
1532260006316723 -1 -5 -7 -2 31 5 23 3
1532260006391523 -2 -2 0 -2 3 -13 7 0
1532260006406483 -3 2 2 7 -3 1 13 0
1532260006482280 0 0 6 1 -9 12 -1 -1
1532260006564062 -3 -5 -3 -4 3 -25 -5 -1
1532260006684747 -2 -6 -7 -12 -3 -4 -5 -3
1532260006811401 1 2 10 23 -45 -1 4 2
1532260006849299 -7 -5 -11 -11 -3 17 -3 -5
1532260006894179 0 -5 -10 -12 -22 -19 41 5
1532260007111598 -4 -2 1 3 1 -4 -1 -1
1532260007569373 0 2 5 5 10 -21 -1 1
1532260007741912 -1 2 0 -1 -1 16 -1 -2
1532260007854611 -2 -1 -1 0 2 14 3 0
1532260007884531 -2 -1 1 -2 -2 -27 8 -1
1532260007929411 -1 0 -2 -1 -12 -23 -9 -2
1532260007997229 -4 -4 -2 -3 2 -19 -1 -1
1532260008012189 -1 1 0 -2 4 7 -4 0
1532260008043123 -1 -2 0 9 13 -2 7 0
1532260008079011 -2 1 1 -3 10 4 2 -2
1532260008146829 0 -1 0 2 1 8 -4 -1
1532260008169768 -3 -2 -2 2 4 20 5 -3
1532260008214649 -1 -1 1 5 25 9 0 0
1532260008266509 -3 -4 -2 -1 28 9 -4 -2
1532260008289448 0 1 -3 -2 -3 0 2 0

1532260008342307 -4 0 -2 -2 -5 2 -4 -2
1532260008402172 0 -2 -2 -3 -7 -16 -1 3
1532260008417131 0 2 -2 -3 -5 14 -1 0
1532260008439088 0 -1 -4 -2 -18 -1 -3 0
1532260008476972 0 1 -3 -2 -5 11 -1 -2
1532260008498913 0 -2 1 -2 2 46 12 3
1532260008536812 -2 -1 0 1 10 17 -1 -2
1532260008626572 -2 -1 -1 -3 -5 0 -2 -2
1532260008649511 0 2 -1 1 -6 -11 -4 -2
1532260008694419 -3 -1 -5 -2 4 70 11 -3
1532260008724338 1 -1 -2 0 0 -11 0 0
1532260008754259 -2 1 -2 0 -5 -17 -4 -1
1532260008799138 -1 -1 -1 -1 2 8 1 -1
1532260008844022 -2 -3 0 -2 -1 -5 -3 -2
1532260008873938 -2 0 0 -1 0 -1 3 0
1532260008903858 -1 -1 -2 -1 -4 3 3 0
1532260008926796 0 -1 -2 0 -1 -1 -3 0
1532260008979655 0 -2 -1 0 2 9 5 1
1532260008994615 0 1 0 -3 -1 -4 -1 -1
1532260009061436 0 -1 -3 0 -5 -3 -1 1
1532260009107321 1 0 -1 0 0 4 -1 -2
1532260009129256 -2 0 -2 -2 -4 -2 -5 -2
1532260009174135 -3 -2 1 0 -1 2 -1 1
1532260009204056 -1 0 -1 -2 0 2 -1 -1
1532260009226994 -1 0 -2 0 -2 1 1 -4
1532260009248936 0 1 -1 -2 -1 2 1 -1
1532260009271903 -2 -1 -1 -1 0 4 -2 -2
1532260009332739 0 -2 -2 0 -2 -3 0 1
1532260009346703 -1 0 0 -1 -1 -3 0 1
1532260009459400 -2 -2 -2 -1 -3 1 0 -1
1532260009527220 -1 -3 -1 -1 1 4 5 -2
1532260009542180 1 -2 -1 -1 -1 4 0 -1
1532260009579080 1 0 -2 -1 -4 0 -3 1
1532260009594040 1 -1 -2 -1 0 0 2 -1
1532260009661860 -2 -1 1 -1 -2 3 0 -2
1532260009736659 -1 -2 -2 -1 0 3 1 0
1532260009804478 1 0 -1 -1 0 1 -1 0
1532260009932136 0 -2 -1 -2 -2 -5 -3 -1
1532260009947096 -1 -2 1 0 0 -2 2 -2
1532260009998958 -2 -1 -1 -2 1 -3 -5 0
1532260010029875 0 -3 -1 -1 -2 2 0 -2
1532260010126617 -2 -2 1 -1 1 1 -1 -2
1532260010149556 1 -2 -1 -1 -1 -1 -2 -1
1532260010239316 -1 -3 -1 -1 -3 -1 -3 -2
1532260010262253 1 0 -1 1 -1 -1 0 1
1532260010352014 -2 -2 -2 -1 0 -2 4 -1
1532260010373966 -2 -1 -1 0 -2 -2 0 -1
1532260010419832 -1 0 1 1 1 0 -2 0
1532260010539512 -1 -1 -2 -2 -3 -1 1 -1
1532260010576413 -1 -1 0 0 1 11 2 0
1532260010608330 1 -1 -4 -1 -3 -4 -5 0
1532260010644233 -1 1 -3 -1 -1 -3 -1 -2
1532260010689112 -3 0 -1 -1 1 -1 2 -4
1532260010704073 0 0 -3 -1 -4 -3 0 1
1532260010719033 -2 -1 1 -3 0 2 2 0
1532260010765907 2 0 -2 0 -1 -5 -4 2
1532260010794830 1 0 1 -3 -1 -3 -3 -1
1532260010846691 -1 -1 1 -2 1 1 -4 0
1532260010876611 -1 0 -3 -1 5 0 0 0
1532260010899549 -2 -1 0 -2 -3 -3 -3 0
1532260010968377 -4 0 0 0 1 -6 -5 -3
1532260011019229 0 1 1 0 0 -1 -2 0
1532260011057129 -2 0 -2 0 -1 0 2 1
1532260011079069 -1 0 -4 -2 -1 2 0 -4
1532260011116968 -1 0 -1 -1 -1 -2 1 -1
1532260011146889 -2 -1 0 0 -1 -3 3 0
1532260011184787 -3 -1 -1 -1 0 2 -2 -2
1532260011199747 -3 -1 0 -2 -3 -1 1 0
1532260011281529 -1 -3 -2 0 -1 0 -5 0
1532260011349347 -1 -1 -1 -1 0 1 3 -1
1532260011462045 -3 -1 -1 -1 -1 0 -9 -1
1532260011536846 0 -2 -2 -3 1 0 4 2
1532260011611646 0 -1 -1 -1 0 18 2 1
1532260011709384 0 -1 -2 -1 -1 3 4 -1
1532260011739304 -2 -1 -1 -1 -2 -3 -1 1
1532260011786178 1 -2 -3 1 -2 0 -1 0
1532260011858984 -1 -1 -2 0 -3 2 -3 0
1532260011888905 -1 -2 1 0 2 2 -1 -1
1532260011964702 -3 -1 0 -1 -1 0 0 -1
1532260012159182 1 0 1 1 2 -1 -5 -1
1532260012331720 -2 -1 0 0 -1 -8 1 -4
1532260012415496 -1 -1 -3 -4 4 0 0 -2
1532260012459379 -3 -2 3 -6 -4 21 5 -1
1532260012542161 -4 2 9 10 -3 35 3 -9
1532260012564098 0 0 -7 2 23 1 -5 0
1532260012647874 14 11 -5 -3 9 0 25 20
1532260012676797 -8 -6 9 5 -15 19 -1 21
1532260012729655 -11 -3 -4 -3 -7 -8 -8 -3
1532260012759576 -1 0 -1 3 -15 -5 -12 4
1532260012796477 4 -3 -5 0 1 -1 -7 3
1532260012811437 1 -3 -2 -13 13 -6 -5 -3
1532260012834376 -1 -2 -5 -4 5 -4 -1 1
1532260012864296 -2 -3 -4 -6 -8 -22 -2 -1
1532260012887274 0 4 -3 4 21 11 4 2
1532260012924164 -3 -4 -1 -7 -29 12 -6 -3
1532260012962062 1 -1 2 9 -34 -15 2 3
1532260012984004 0 -1 1 3 3 12 -22 -2
1532260012998964 -3 0 0 4 8 20 1 -2
1532260013036863 -1 -2 1 5 39 9 -2 -2
1532260013066782 -2 -2 0 -3 -18 -14 9 3
1532260013089721 -2 -5 -6 -1 19 -15 13 3
1532260013126623 0 -2 -3 -4 -2 5 19 1
1532260013201423 -1 -2 -5 -10 -7 -20 -22 -4
1532260013337060 0 0 -1 4 -2 15 -6 0
1532260013419839 -1 0 2 11 35 11 2 1
1532260013479679 -1 -1 2 1 0 2 0 0
1532260013614318 -2 0 -1 -1 -4 -1 -3 -3
1532260013659198 1 3 -4 -17 -37 -1 -5 0
1532260013719038 -2 -5 -7 -10 20 0 -1 0
1532260013756938 -2 -2 -12 -12 3 -1 -3 -1
1532260013809795 -5 -10 -18 -12 7 -5 -6 -6
1532260013846697 -1 3 31 7 7 0 4 -1
1532260013884598 1 6 16 10 -10 11 0 -2
1532260013906537 0 1 15 9 11 -1 -3 2
1532260013944435 2 -3 -5 23 42 7 1 2
1532260013966378 2 3 -2 -2 -30 -4 -15 -6
1532260014072095 1 -5 -11 -10 -19 -5 16 6
1532260014154873 -3 -1 -1 0 8 8 -15 -4
1532260014184793 -2 -2 -3 1 39 51 21 2
1532260014251629 -2 -1 -1 -2 0 -6 -17 -3
1532260014589710 -3 9 14 -18 -14 -15 -4 -3
1532260015001608 -2 -10 -14 -13 -1 20 1 -2
1532260015076409 -1 -1 5 1 6 11 2 0
1532260015107326 -1 1 0 -5 -3 -1 3 0
1532260015271886 -4 -2 0 0 3 8 -2 0
1532260015354664 1 1 -1 7 4 3 -7 0
1532260015399545 -1 -1 0 -2 -11 5 0 -1
1532260015421497 -2 -2 -3 -6 -13 -11 -8 -3
1532260015452403 -1 -1 -1 -4 6 -10 -1 0
1532260015474345 -2 -3 -4 -6 10 4 2 -1
1532260015504264 -1 1 2 0 -12 2 -3 -1
1532260015557123 0 -1 0 3 26 7 -1 -2
1532260015602004 -2 -1 0 -2 -20 -15 -10 -1
1532260015638904 -1 -1 -3 -5 -18 -25 0 -3
1532260015676803 -4 -4 -6 -12 -72 4 -3 -1

1532260015714702 1 -4 -4 1 2 -6 2 1
1532260015759582 -2 -1 1 5 15 2 2 -2
1532260015804462 0 -1 -1 2 6 18 3 -1
1532260015834382 0 0 2 0 -3 0 -2 1
1532260015879262 -7 -8 1 0 0 -1 -3 7
1532260015902200 15 1 1 3 -6 -5 1 21
1532260015932121 -3 -2 0 0 -2 11 3 -4
1532260015954062 2 0 -1 -1 25 -27 5 -4
1532260015969022 7 0 3 3 1 46 8 0
1532260015983981 -3 -3 -2 -2 11 10 -1 -4
1532260015998942 -2 -2 -4 -5 -19 26 5 -31
1532260016021880 0 -1 -3 0 3 -1 1 1
1532260016036840 0 -1 1 2 3 -20 8 25
1532260016066760 -1 0 -2 -2 -15 11 1 11
1532260016089699 -2 -1 0 0 -6 -10 -2 -8
1532260016111640 2 -1 1 0 0 -9 -1 7
1532260016134579 -2 -3 -1 -2 -2 12 -4 -4
1532260016156520 1 0 -2 0 0 1 0 -1
1532260016179459 -3 -1 0 0 -1 11 1 0
1532260016194418 -2 -1 -2 -2 0 -6 -2 0
1532260016232318 0 0 -1 -2 -4 -13 1 20
1532260016262238 -1 -1 -2 0 -4 -5 0 8
1532260016299138 -2 -1 0 0 4 3 -2 1
1532260016329059 0 0 -1 -2 0 1 0 1
1532260016366957 -3 0 -1 -1 -1 6 2 -12
1532260016388899 0 0 -2 -1 -2 4 -5 9
1532260016441758 0 0 -1 -1 -3 1 0 -4
1532260016456718 1 -1 1 -1 -2 -9 -2 3
1532260016516558 -3 1 -2 -3 0 5 -1 -1
1532260016546478 1 -2 -3 -1 -2 0 -3 -2
1532260016592354 0 -2 -1 -1 -1 -1 -2 1
1532260016614296 -1 -1 -2 -2 -2 0 2 -1
1532260016637235 -1 -1 -1 -2 0 1 3 -1
1532260016674136 1 0 -2 -1 -2 6 -4 -2
1532260016741955 -1 -2 0 0 0 -1 -1 0
1532260016801795 0 -2 -1 -2 1 2 2 -2
1532260016816755 0 0 -1 -2 -1 7 3 1
1532260016884573 0 -1 -1 -1 -1 1 1 0
1532260016906515 -1 0 -1 -1 0 -2 1 -1
1532260017019213 -1 0 -2 -2 0 2 -4 -3
1532260017094013 -1 -1 -2 -1 -2 -3 -1 -1
1532260017139891 0 -1 0 -1 -2 -3 -1 -1
1532260017176792 0 -1 -1 0 -3 -14 -9 -3
1532260017221672 0 -1 -1 -3 -5 -4 5 0
1532260017251591 0 2 -1 0 0 2 2 1
1532260017289490 -1 -1 1 -1 -2 8 6 1
1532260017304451 -2 -3 -1 0 2 0 1 -1
1532260017432110 -1 -1 -1 -1 -2 3 -2 -2
1532260017506909 -1 0 -2 0 -1 -2 1 0
1532260017589688 0 0 -3 -1 -1 3 6 1
1532260017679448 -2 -2 0 1 0 3 -5 -1
1532260017732307 -1 -2 1 0 -1 -1 2 0
1532260017807107 -1 -1 -2 0 -1 -3 -2 -1
1532260017881906 -2 -3 0 -1 -1 3 4 1
1532260017919805 -2 1 -1 -1 -2 0 -4 2
1532260017979645 1 -1 0 0 0 0 0 -1
1532260018009565 -2 1 0 -2 -1 -3 0 -1
1532260018061426 1 0 -2 -3 -2 3 -1 -1
1532260018108304 -1 -1 -1 -1 -1 0 -4 -1
1532260018137223 -2 1 -1 2 0 -1 -3 -3
1532260018189085 0 -2 -1 -2 0 -1 -1 0
1532260018212024 -1 -1 -1 -1 -2 -3 0 -1
1532260018271864 0 -2 -2 -3 -2 2 3 0
1532260018286824 -2 -1 -2 -1 -2 0 1 -1
1532260018324722 -3 0 -3 -1 0 3 5 -1
1532260018361624 1 -1 1 0 -1 1 1 1
1532260018414482 -1 -2 -1 -1 0 -7 2 -1
1532260018459362 -3 -1 -2 -2 -1 9 8 1
1532260018474322 -2 -1 -1 -1 -1 1 -3 -1
1532260018616941 0 -2 -1 -1 -3 -8 0 0
1532260018639880 -4 -1 -2 -1 -1 2 -3 -3
1532260018751581 3 -1 0 -1 0 2 -2 -2
1532260018819399 0 0 -1 0 -2 1 -4 0
1532260018894200 -1 -1 -2 -1 -2 3 -1 -1
1532260018968999 -2 -1 -1 -1 -4 0 1 -3
1532260019036825 -1 -2 -1 -1 -1 -1 -3 -2
1532260019066737 0 0 0 -1 -3 -3 0 2
1532260019119597 0 -1 -2 0 -3 0 0 2
1532260019171459 -1 -4 -1 -2 -2 -1 -3 0
1532260019217335 -1 -2 0 0 -1 0 -1 0
1532260019307096 0 0 -1 -1 -2 0 5 -1
1532260019396856 -2 -2 0 -3 -1 7 2 1
1532260019456697 0 1 -2 -2 0 3 1 -1
1532260019592342 1 3 -11 -13 6 -8 0 2
1532260019644197 1 -3 -7 -18 8 1 23 11
1532260019674114 1 3 13 13 -4 21 -36 -8
1532260019704034 -2 -2 0 4 10 -6 13 3
1532260019718994 -17 3 1 6 21 18 -15 -60
1532260019771853 -8 -2 0 -2 -4 -4 2 12
1532260019786813 -5 2 1 3 16 16 4 -1
1532260019801772 6 -4 0 7 45 3 1 20
1532260019846653 -2 0 2 -4 17 0 -4 6
1532260019876573 -3 -6 -6 -11 -16 -14 -1 2
1532260019914471 -8 -8 -8 -9 -34 5 -8 2
1532260019944391 2 -4 -11 -5 23 7 2 -2
1532260019997250 3 1 6 5 4 4 -2 1
1532260020027170 -2 -4 -2 -6 -21 -14 -5 -1
1532260020049112 -2 2 6 21 13 0 -2 -1
1532260020079031 2 -3 -7 -10 -20 -2 8 2
1532260020116930 4 -2 -3 -4 -2 4 -26 3
1532260020154830 0 0 2 -1 -17 -2 0 2
1532260020304429 3 6 17 22 -1 10 3 4
1532260020364269 -5 -13 -26 -8 39 -4 -1 -4
1532260020424109 -2 1 -6 -3 -28 -18 -1 1
1532260020447047 2 2 -2 -7 -23 0 4 0
1532260020544786 -2 1 3 -3 -4 3 8 -5
1532260020581687 -2 3 3 2 4 6 -10 -7
1532260020611607 0 -8 -9 -14 -8 -3 12 5
1532260020634546 -1 0 -1 -1 -3 3 -3 -1
1532260020686406 -1 0 1 6 5 4 8 0
1532260020762205 1 -7 -14 -7 -13 -8 -4 -9
1532260020843985 1 -12 -49 -7 -1 -12 1 -1
1532260020926764 0 3 5 -20 -14 -5 2 1
1532260021069382 -2 -4 -3 7 26 15 3 3
1532260021174103 -2 -4 0 -1 15 11 0 2
1532260021241922 3 4 5 7 29 50 16 4
1532260021286801 0 2 1 6 15 17 -2 -1
1532260021331682 1 -2 -3 2 8 20 7 2
1532260021527159 -2 -1 2 6 17 33 1 -2
1532260021669777 -3 -1 0 8 4 8 3 -1
1532260021804417 0 0 -3 -8 -5 0 -2 0
1532260021879218 -4 -2 -2 -9 0 -2 -3 0
1532260021924097 -3 2 1 4 -3 -3 2 -1
1532260021947035 1 0 -3 -4 0 -3 -3 0
1532260022014854 -2 -4 0 -2 -2 22 9 -2
1532260022081675 0 0 0 -2 0 3 0 1
1532260022111596 -3 -2 -1 -8 -13 -12 -2 0
1532260022156476 1 0 -4 -7 6 -8 -1 -2
1532260022171436 -2 -5 -7 -9 1 4 3 -3

1532260022239254 0 5 -5 -6 -1 6 -2 1
1532260022292113 -1 -2 3 6 6 12 -11 -2
1532260022307073 -3 -6 0 -1 37 18 7 -1
1532260022351953 1 -2 -2 -4 3 10 7 0
1532260022434732 -1 -2 -2 -4 9 11 -2 -3
1532260022479611 -1 2 1 3 30 12 5 0
1532260022501552 0 1 -1 -2 -19 25 5 0
1532260022532041 -1 -1 0 -1 -28 -23 3 2
1532260022576922 0 -3 -2 -1 8 13 1 -2
1532260022599859 2 4 0 1 -9 -2 2 -5
1532260022636774 -5 -1 0 3 12 2 1 -14
1532260022651736 -1 -4 -3 -2 -14 11 -2 -7
1532260022689634 1 -1 1 -1 -11 5 1 -7
1532260022711575 0 -2 -3 1 30 -4 -3 -17
1532260022756455 14 22 3 1 -4 10 -2 4
1532260022771426 -3 -7 -3 -1 -22 -6 -7 -17
1532260022817292 6 4 -1 -1 -4 -4 -3 0
1532260022832251 -7 -5 -3 -1 5 1 3 -7
1532260022854203 1 0 -2 -1 -5 4 0 0
1532260022877131 4 -1 -1 -4 0 4 5 48
1532260022914033 -3 -3 -1 -3 0 6 -8 0
1532260022943953 0 1 -2 -2 0 9 4 -7
1532260022966892 0 -2 -1 0 -1 2 -4 8
1532260022996840 -2 -2 0 -3 -2 -5 1 -2
1532260023026770 -2 -1 -2 -1 0 0 -4 -3
1532260023056680 0 -2 -2 -1 2 -2 -2 -3
1532260023079618 -3 -1 -2 1 -3 -3 -6 -3
1532260023116521 -2 0 -3 -1 -6 -1 -3 -6
1532260023139458 1 -2 0 -2 -3 -4 -1 0
1532260023154418 -1 -1 -1 -1 0 -3 0 0
1532260023184343 -1 -1 -1 0 2 0 -3 -2
1532260023214258 0 -1 -1 -2 -3 -8 -3 0
1532260023244178 -2 -2 -1 -1 -1 -1 -2 -1
1532260023259148 -1 -1 0 -1 4 11 -2 -1
1532260023304018 0 -2 -2 0 2 5 5 -1
1532260023318978 0 1 0 -2 -1 3 1 -1
1532260023356877 -1 -2 -1 0 -1 2 7 1
1532260023379816 0 -1 -1 -1 -1 -3 -1 -2
1532260023401757 0 -1 -1 -2 -3 -7 -2 -4
1532260023431676 1 -2 -2 -2 -3 2 2 -2
1532260023484536 -2 0 -2 -1 -1 0 3 -1
1532260023529415 0 -2 -2 -1 0 1 -5 -2
1532260023567314 -2 -1 0 0 -2 -3 4 2
1532260023612194 -1 -1 -1 -2 0 -5 -3 0
1532260023649095 -2 -2 -1 0 0 -3 -7 -2
1532260023679016 -1 0 0 -1 -1 7 6 -1
1532260023708936 -1 0 0 -2 -1 -4 -3 0
1532260023746834 0 -1 0 -1 -3 -3 -1 -1
1532260023784733 0 -2 -1 -1 0 -3 -1 -1
1532260023821635 1 -2 -3 -1 1 0 -1 0
1532260023881474 -1 -1 -1 -1 -1 -3 -2 -2
1532260023896434 0 0 -1 -1 -2 2 -5 0
1532260023942312 2 -3 -2 0 -1 -3 3 -2
1532260023957285 1 -1 -1 -1 -1 1 0 0
1532260023979212 -2 -2 -2 1 -1 -4 3 -1
1532260024009133 0 -1 0 -1 -1 1 4 3
1532260024032071 0 -1 -2 -3 -1 1 -3 -1
1532260024054016 0 -1 0 0 -3 -4 -8 -2
1532260024098893 -3 0 1 -1 -1 -1 -4 0
1532260024113853 -1 0 0 -1 -1 0 4 0
1532260024166711 1 -1 1 -1 -2 4 3 -1
1532260024181687 -1 -3 0 -1 -1 0 -1 -1
1532260024226551 -1 -1 0 -1 0 0 -3 -1
1532260024271431 0 0 -1 0 0 -3 -7 -3
1532260024302363 -2 -2 -2 -2 -3 -9 -7 -2
1532260024332269 0 -2 0 -2 -1 5 1 0
1532260024436989 0 -1 -1 -1 1 0 0 0
1532260024489847 -1 -2 -1 0 0 -1 -5 0
1532260024549687 -1 -1 -1 0 -2 -5 0 0
1532260024586588 -1 -1 0 1 -1 1 4 1
1532260024601562 -2 -1 -2 -3 -1 0 0 -3
1532260024624487 -2 -3 -2 -1 0 -1 3 0
1532260024654407 -1 2 -2 0 0 -4 -2 -2
1532260024678344 -2 -1 -2 -2 -1 -1 -1 1
1532260024699287 0 -1 -3 -1 0 -2 -1 -1
1532260024737186 -2 0 -2 0 -1 0 3 -2
1532260024774087 2 -3 -1 1 -1 1 -2 -1
1532260024789048 0 -1 -1 -2 0 -2 1 -1
1532260024818968 0 -1 0 -2 0 5 5 2
1532260024841906 2 -1 -1 1 -2 -5 -2 -1
1532260024856866 1 1 -2 0 1 2 -1 -1
1532260024879804 -1 1 1 -2 -2 -2 -4 -2
1532260024901746 0 -1 0 -3 -2 -5 -5 -3
1532260024924685 -1 -2 -1 -1 0 -1 0 1
1532260024976546 -1 -2 0 -1 -1 -7 -4 -3
1532260024999485 -1 -1 0 -1 0 0 5 -1
1532260025059325 0 0 -2 1 -1 3 3 1
1532260025112183 0 -1 -1 -2 -4 -3 0 0
1532260025179004 -2 -1 -2 -1 -1 -1 -4 -1
1532260025209926 0 -1 0 -2 1 5 1 0
1532260025276743 -2 0 0 -1 0 2 -2 0
1532260025336583 0 -3 -1 -2 1 -3 0 0
1532260025411383 -5 -2 -2 -2 -2 3 -3 -1
1532260025614839 0 -1 -1 0 0 -4 6 1
1532260025711581 0 -2 0 1 -1 0 1 -3
1532260025764439 0 -1 -1 -1 -3 1 0 -1
1532260025884118 0 -1 -1 0 -2 -1 -1 -1
1532260025907057 -2 0 -1 0 0 0 0 -1
1532260025966897 -2 -2 -2 -2 0 2 0 -2
1532260026056658 0 0 0 -2 -2 1 -1 0
1532260026139436 -3 0 1 0 -8 -16 -7 -3
1532260026356855 -11 -3 1 6 -24 -18 -7 -5
1532260026394754 -6 -3 -3 -3 -24 -48 -15 -3
1532260026431655 0 -6 -3 0 23 14 3 11
1532260026446615 -1 -5 1 -1 18 -4 -5 -1
1532260026476535 -3 1 3 2 -29 2 0 -4
1532260026506455 -1 2 0 -2 -7 -19 -1 0
1532260026529394 -5 -2 -2 3 -25 -29 -8 -3
1532260026552332 1 -2 -4 -18 -16 -7 4 0
1532260026574274 1 -1 2 -5 -20 3 1 1
1532260026597212 0 -1 4 1 40 18 2 -1
1532260026612171 -2 -5 -9 -7 -6 -1 2 -1
1532260026657052 0 -1 0 0 -4 -3 -2 0
1532260026678994 -4 -5 -17 -5 38 5 -1 -2
1532260026724871 -2 -3 -1 3 -28 -34 20 1
1532260026791692 -1 -1 -2 2 -11 5 -7 -2
1532260026821612 -1 -1 0 -3 2 -12 -3 -1
1532260026836572 1 -1 -7 -5 -35 -3 -5 4
1532260026859511 -1 12 7 5 -10 6 -3 0
1532260026874471 -3 -8 -7 -7 -5 -2 -9 -6
1532260026905388 -1 -9 -15 -11 -2 -5 -5 1
1532260026927329 -6 2 -4 3 -4 -9 0 5
1532260026957249 -7 33 2 0 12 3 2 -11
1532260026994151 3 0 -3 -6 -20 -18 -8 -3
1532260027009110 1 -5 1 -3 14 41 11 -1
1532260027039031 3 -3 2 -3 -77 10 2 -8
1532260027068950 0 -2 6 7 55 7 1 -4
1532260027083911 -7 -5 -2 10 24 -5 -2 -1
1532260027129788 4 2 8 15 23 -12 -5 -3
1532260027144748 4 0 -4 -5 35 20 1 0
1532260027189628 -3 -3 -5 -5 58 26 4 -3
1532260027219548 1 1 -2 -9 -3 -8 8 2
1532260027271409 -2 -2 -4 -3 11 -33 -5 -2
1532260027286369 -2 -2 1 -1 -17 -61 6 2
1532260027317294 1 -4 -3 2 7 4 7 4
1532260027354201 -2 -8 -2 2 -12 15 2 0
1532260027377127 1 -1 -3 -4 -17 -29 -10 4
1532260027451926 -5 4 -5 -7 10 41 -3 -3
1532260027556646 -1 -10 -37 -46 -56 -17 -3 -2
1532260027601526 -4 -4 -21 -2 1 9 7 -3
1532260027677331 -1 0 6 21 60 -6 2 0
1532260027707243 -8 0 -2 -9 -29 -14 -11 -9
1532260027722204 0 -4 -4 -10 -31 -1 6 4
1532260027752124 0 -1 -1 -5 -44 -4 -9 -3
1532260027774065 1 -3 -3 -4 -14 -1 15 4
1532260027797004 0 -1 -3 -1 12 -9 9 2
1532260027826924 9 -1 4 15 17 4 2 32
1532260027880780 -8 -8 -8 -8 -21 34 -10 -40
1532260027909702 0 -7 -4 -7 -11 25 5 30
1532260028052321 31 2 0 -4 -20 -39 -11 7
1532260028112161 -1 1 3 9 -6 8 6 15
1532260028201922 0 0 0 -8 -35 -27 3 -3
1532260028246801 -41 0 -3 -10 26 23 10 -6
1532260028276721 10 0 -2 1 18 19 5 4
1532260028306641 9 -1 -2 -9 -15 3 11 5
1532260028329579 15 1 1 -6 19 36 -2 1
1532260028374460 4 -6 -3 -1 -5 -13 -18 -3
1532260028434300 0 -3 -2 -21 -5 5 -4 -4
1532260028464219 2 -1 1 6 19 -8 -2 1
1532260028651718 -1 0 1 6 8 -3 5 -2
1532260028681639 0 1 5 13 -2 -5 -2 1
1532260028756438 1 1 1 -10 -7 -6 -5 -1
1532260028884097 0 -2 -5 -3 10 -29 -6 -3
1532260028907036 -3 -1 1 7 1 4 5 1
1532260028951915 2 1 2 3 0 13 1 0
1532260028974854 -2 -1 -2 -7 -7 -6 -3 -1
1532260029019734 1 -5 -1 -4 15 3 -2 -4
1532260029071595 -2 -1 -1 -9 12 11 -4 -4
1532260029124453 -2 -1 -1 0 -5 8 -1 -3
1532260029146395 1 2 -2 -9 -1 -8 5 1

1532260029177313 3 6 1 4 -9 1 0 2
1532260029192283 1 -3 -13 -26 -23 -12 -11 -4
1532260029237153 -3 -3 2 4 7 17 -1 -1
1532260029274054 1 -7 -1 3 11 -9 2 0
1532260029296993 -3 -3 2 5 3 13 -1 -2
1532260029318934 -1 -3 -4 -10 -13 -1 -1 -3
1532260029356833 -3 -2 1 -3 -19 -15 1 -1
1532260029379771 -2 -3 -1 -3 -35 -31 -1 -4
1532260029409691 2 2 5 7 15 7 -6 3
1532260029431633 -2 0 -1 2 4 2 -2 0
1532260029478507 1 1 1 2 0 19 1 0
1532260029499451 -2 0 0 0 -18 -9 3 0
1532260029544331 -2 -1 0 0 7 -16 0 0
1532260029589211 -2 -1 -2 -1 6 -2 -1 0
1532260029619131 -3 -4 -1 -2 -3 -5 -1 0
1532260029664011 1 -2 -1 -2 0 0 -2 -2
1532260029693931 -1 -1 -3 -1 -4 -7 -2 0
1532260029739808 -1 1 -1 0 -1 1 1 0
1532260029761750 -3 -1 -1 -2 -5 -6 0 0
1532260029791670 -1 -2 -3 -1 2 -2 -1 -1
1532260029821590 -1 -2 0 -1 -2 -3 -8 -2
1532260029851510 -1 -2 -2 -1 4 5 2 -1
1532260029866469 -1 -1 0 -1 -3 -3 -2 -1
1532260029892400 0 0 -2 -1 -3 -4 -1 -1
1532260029927307 1 -2 0 -2 -7 0 -1 1
1532260029942267 -1 0 -1 -1 -3 0 1 0
1532260029964208 -1 -2 -1 -1 3 -2 -1 -2
1532260029987214 0 -1 0 1 0 -2 2 -2
1532260030032085 0 1 -1 0 2 1 2 -1
1532260030076965 -1 0 0 -1 -2 0 -2 1
1532260030091925 -1 -2 -1 -1 -2 -2 -5 -2
1532260030136805 -2 -2 0 0 0 -2 -2 -2
1532260030151765 -3 -1 -2 -2 0 1 -1 -2
1532260030204625 0 -2 0 -3 -2 -2 -1 -1
1532260030226565 -3 -2 -2 1 0 0 -1 -4
1532260030271445 0 1 0 0 1 -2 -1 2
1532260030295381 -2 -2 -2 -2 -2 -3 -4 -1
1532260030407082 -2 -2 0 -1 0 -4 -7 -1
1532260030481882 0 1 0 -2 -2 -1 -3 2
1532260030541722 2 0 0 0 -1 -1 -4 0
1532260030677359 -2 -1 -2 0 -2 -2 0 0
1532260030699315 -2 -2 -2 1 0 0 0 0
1532260030752159 -2 -1 -1 -2 0 0 0 -1
1532260030826960 0 -1 -1 -1 -2 -1 -2 -2
1532260030894778 -2 1 -1 -1 -2 -1 -3 -2
1532260030946640 1 -2 -1 -4 -1 -1 1 -1
1532260030984538 -3 -1 0 -1 1 -1 -2 -1
1532260031052361 0 -1 -3 -1 -1 -1 0 -2
1532260031164058 -2 -1 -3 0 -1 -1 -1 -1
1532260031239856 0 -1 -2 0 -2 1 -2 0
1532260031270774 0 -3 -1 -2 -3 -1 -1 0
1532260031306677 -1 0 -3 -1 -3 -2 -2 -3
1532260031329621 0 -2 -2 0 -3 -2 -3 -1
1532260031374495 -1 -1 2 0 -1 -2 2 0
1532260031426357 0 -2 -2 0 -2 -2 -1 0
1532260031464256 -2 -2 -2 0 -1 -1 -2 0
1532260031554016 -1 -1 -3 -2 0 1 -1 -1
1532260031583935 1 -1 0 0 -2 0 2 1
1532260031637809 -1 -1 0 1 -1 0 1 -1
1532260031681674 0 0 -1 1 -3 -5 0 -1
1532260031786394 0 -1 -3 -2 1 -1 3 -1
1532260031854212 -1 -1 1 -1 1 -1 -3 -2
1532260031936991 0 -1 -2 -2 0 0 0 -1
1532260032011792 -2 -2 -2 0 -2 0 -1 -2
1532260032222229 0 -3 0 -2 -1 1 1 -1
1532260032289050 -1 0 -1 -1 1 1 -3 -3
1532260032416709 -2 0 0 0 0 3 -1 1
1532260032491509 1 -3 -2 -1 -1 -2 0 -2
1532260032701945 -3 -2 0 -2 -1 -2 -1 0
1532260032791706 1 0 -3 -1 -1 -3 1 0
1532260032979204 0 -1 0 0 -2 1 -4 -2
1532260033061983 -2 -1 -10 -10 -8 -32 -3 -6
1532260033114842 1 3 -4 -5 -9 9 4 2
1532260033249481 2 3 -2 -3 -1 6 -7 0
1532260033301343 -2 -1 -4 0 -16 -11 6 5
1532260033362180 4 1 -1 -3 14 -3 -9 9
1532260033392100 9 1 -2 -5 -15 -16 -11 9
1532260033451940 -4 -4 -2 -5 -19 -10 -6 7
1532260033526740 -2 -2 -6 1 -13 -18 -6 1
1532260033624479 0 0 6 26 19 3 -2 -1
1532260033707257 0 -1 -1 4 -8 -10 -12 -2
1532260033767097 0 -2 1 5 -7 -1 -1 1
1532260033782057 4 2 8 18 -21 -2 2 -1
1532260033797017 -4 -1 -3 -6 14 4 2 -5
1532260033863839 3 2 1 -6 4 0 2 -1
1532260033901737 2 0 0 4 6 -1 12 6
1532260033954610 9 4 7 5 19 25 5 4
1532260033999476 -4 0 -1 -6 18 21 1 1
1532260034044356 1 3 15 41 53 26 -15 1
1532260034097215 -2 3 -1 7 -23 10 -36 -7
1532260034142095 3 0 1 11 -28 0 12 5
1532260034157054 -2 0 -3 3 48 -5 -6 -5
1532260034186974 -3 -2 3 2 18 1 -13 -2
1532260034254794 -5 -1 -1 -2 10 13 -1 -3
1532260034284713 0 -1 1 4 19 -12 -11 -1
1532260034366494 0 -1 0 -1 2 17 3 -2
1532260034576932 3 -1 -7 -30 -36 -6 -8 -4
1532260034726532 -3 -1 -7 -1 -6 2 -5 -2
1532260034958911 -2 -3 0 -2 -37 16 18 3
1532260035011769 3 3 5 4 0 23 11 3
1532260035274068 -5 -9 -10 -11 25 36 -1 -4
1532260035394745 1 0 -4 0 -2 -10 1 0
1532260035491507 0 -1 -4 -4 6 -24 -6 1
1532260035672003 -1 0 0 6 -1 -7 -1 -2
1532260035731843 -3 -2 -1 -2 -11 -17 -13 -4
1532260035769742 -1 -2 -3 -3 -12 -25 -1 -3
1532260035814622 -2 -1 -4 -5 -6 1 2 -3
1532260035866484 1 2 1 8 7 6 -3 -1
1532260035896403 -2 -1 3 -3 -16 -2 1 0
1532260035957241 -3 -3 -1 -3 -5 7 -1 -1
1532260035979182 1 1 1 1 11 10 2 2
1532260036017081 2 2 -1 -2 -20 -39 4 1
1532260036061960 -1 -1 3 3 23 6 2 0
