1532261199231996 1 -7 -4 -1 0 1 -1 0
1532261199278860 -1 -12 -1 4 1 3 1 2
1532261199297809 -1 5 -1 12 3 1 -1 -1
1532261199335708 0 9 -2 2 -3 -1 -3 -1
1532261199396545 1 24 10 -10 0 -3 1 0
1532261199442422 -1 -11 -5 1 -2 -3 -1 0
1532261199503260 1 -2 3 -1 -1 -1 -1 -1
1532261199523207 -2 -5 -7 -6 -2 1 -1 0
1532261199571078 1 -13 -7 0 2 -2 1 0
1532261199583046 0 10 14 1 0 -2 -1 0
1532261199612966 -2 3 -7 -2 -3 1 0 1
1532261199657846 -2 1 -7 -3 -4 -1 -1 -2
1532261199680785 -1 -16 -3 -2 -2 0 -2 -2
1532261199740632 -2 4 2 12 4 1 -2 2
1532261199785505 -7 -39 -6 -3 -4 -1 -2 -2
1532261199823404 6 23 7 2 2 3 0 1
1532261199913164 5 23 23 23 -4 -1 3 1
1532261199943084 0 1 1 -18 -12 -2 -3 -2
1532261199980982 -2 -29 -20 -42 -10 -1 0 -2
1532261200070751 -4 -12 19 16 0 -2 1 1
1532261200168480 -1 -1 -14 -7 -5 -2 -3 -1
1532261200258241 -1 20 7 16 6 1 2 3
1532261200275196 9 -6 -10 -5 -4 -2 -2 -1
1532261200295143 1 0 14 5 -1 -2 -1 -12
1532261200430779 -56 -16 -1 0 -1 -3 -3 -16
1532261200490620 -39 -2 -7 -7 -4 -1 -2 -11
1532261200595340 -25 0 -22 -2 -1 -1 2 9
1532261200693079 70 49 -2 1 3 1 -16 4
1532261200820737 -17 -14 -5 0 -3 -3 5 1
1532261200842678 -15 15 -4 -1 -1 1 4 -4
1532261200873596 -1 -2 24 -2 -2 0 1 0
1532261200964364 1 5 -9 0 -1 -2 -2 -2
1532261201023195 3 7 -4 -16 -3 0 1 2
1532261201263552 5 29 13 19 5 0 -36 -7
1532261201285493 7 18 17 -7 -6 2 25 1
1532261201330374 -16 5 -14 -17 -10 1 23 -1
1532261201368273 -15 -88 -2 -8 -6 -8 -31 -12
1532261201398193 23 101 29 12 8 12 20 -2
1532261201413153 3 -17 -3 -2 -3 -7 -5 80
1532261201451051 7 -5 -4 -9 -8 -1 59 -8
1532261201487953 -22 38 -45 -16 -2 -12 -87 -23
1532261201541817 1 -45 3 6 -2 -29 -90 3
1532261201562753 -19 -2 -6 5 4 19 69 -81
1532261201645531 7 -41 -33 -5 -1 1 49 14
1532261201668470 -2 -2 11 4 -7 -27 -90 15
1532261201698390 15 84 17 5 5 7 2 23
1532261201720331 -12 10 -31 -5 -3 7 64 10
1532261201750252 11 -69 -25 -7 -1 14 -4 7
1532261201773190 0 54 7 0 3 6 8 13
1532261201811088 -18 -99 15 1 0 -5 9 -4
1532261201833030 6 104 5 8 6 11 5 -4
1532261201855969 -18 39 1 -7 -4 -1 12 -4
1532261201877909 20 50 39 15 6 -20 -57 2
1532261201907830 -12 -39 -27 -17 -4 10 68 12
1532261201967670 -31 -43 -44 -5 0 8 10 2
1532261202028507 18 56 41 8 8 23 70 -11
1532261202050449 20 9 14 0 0 -3 -28 16
1532261202095329 -9 -31 -2 3 5 19 25 -21
1532261202118267 7 -110 10 2 0 -1 -17 3
1532261202163147 -1 -76 2 1 -3 -5 -25 20
1532261202178107 -10 -27 -8 -3 0 2 -8 -66
1532261202194065 2 13 24 5 -1 -3 9 4
1532261202237948 0 35 10 -3 -2 -4 -25 -21
1532261202260885 -9 23 -5 -7 -6 -6 4 -11
1532261202327707 -28 64 -13 -1 -1 1 22 -13
1532261202358624 -3 -54 -27 -13 -7 -1 -14 3
1532261202373602 1 22 11 2 -1 1 -16 -26
1532261202418464 -11 -7 4 -1 0 2 -2 -29
1532261202448384 -2 11 6 3 1 3 9 7
1532261202508224 -5 -7 26 -2 -1 1 -1 -4
1532261202553104 -7 37 -11 -1 -1 1 -1 -4
1532261202605963 -8 23 -21 -3 -1 0 1 -1
1532261202951040 14 -2 -56 4 3 -7 -13 -21
1532261203010880 29 13 7 -27 -11 -4 -8 4
1532261203055761 -96 -28 -19 7 -8 9 -13 -18
1532261203130569 -40 1 -26 -16 0 8 5 7
1532261203250240 41 5 -70 -9 4 9 1 -1
1532261203318059 2 -9 7 -3 -4 0 -5 6
1532261203371915 63 7 8 1 -2 -1 -6 -68
1532261203415798 -29 32 11 -19 -4 1 16 16
1532261203475638 -7 -15 -16 0 -2 -1 12 -1
1532261203505557 20 11 -43 18 2 4 5 18
1532261203543456 -17 1 32 -34 -9 -3 0 -1
1532261203595317 20 -19 45 0 -2 -1 0 0
1532261203627241 26 15 5 -4 2 1 2 -4
1532261203650171 -32 -7 7 0 1 2 11 10
1532261203671129 -24 61 6 -16 -6 -5 -2 5
1532261203694053 -57 6 -6 -13 -6 -7 -16 -4
1532261203730954 31 38 -4 -3 -5 -2 1 24
1532261203752896 10 0 -8 -17 -11 -15 -78 7
1532261203865594 17 -11 71 5 -1 -1 -10 28
1532261203880554 33 -5 -82 27 14 10 17 24
1532261203927429 -2 2 127 65 10 7 9 -11
1532261203948373 1 7 22 -3 -6 -3 4 1
1532261203970314 -11 19 -4 3 -5 -4 -4 -13
1532261203993282 -14 -2 -14 16 2 2 -1 -8
1532261204061100 -11 -38 8 35 5 5 1 -3
1532261204083041 4 16 -107 0 4 1 2 1
1532261204127922 36 17 14 8 1 -1 -5 1
1532261204142881 28 23 36 0 -2 -3 2 5
1532261204159836 -21 -2 29 -10 -3 -1 7 -5
1532261204187762 -9 -2 -1 -2 -6 -8 -29 -82
1532261204202722 -13 -70 1 -1 -3 -2 2 25
1532261204225660 -14 31 -27 -2 0 -2 -7 -47
1532261204270540 -7 -16 -20 -11 -23 -29 -15 -73
1532261204293479 -38 27 -11 -10 -14 13 30 47
1532261204339357 -31 -52 17 15 17 14 -39 -43
1532261204421156 7 -22 -11 3 9 13 32 28
1532261204451065 -1 -7 -8 0 1 -3 7 -3
1532261204466026 8 -24 1 -20 4 3 2 -8
1532261204480985 -4 0 3 0 -3 -1 1 -2
1532261204502927 -7 -7 4 6 6 5 6 5
1532261204526863 -2 -14 -10 -5 -2 0 1 0
1532261204547806 1 -4 -6 13 1 0 -3 1
1532261204630586 0 1 16 -13 -3 -3 0 1
1532261204645546 -10 -45 -37 6 13 7 2 -3
1532261204683444 -2 -15 -47 22 1 -2 0 1
1532261204705400 2 10 26 -32 -5 0 -1 -3
1532261204720346 0 -3 -68 -21 -11 -9 -4 0
1532261204736303 -5 -53 -79 -10 -6 -6 0 -1
1532261204758244 0 18 63 44 12 3 0 0
1532261204781183 3 9 -26 -14 0 1 0 0
1532261204818083 -1 6 -37 -35 -8 -3 0 -2
1532261204892884 -6 -7 19 -17 -10 -1 -2 -4
1532261204953735 2 38 61 -5 -13 -6 -3 0
1532261204975663 -7 -42 -43 2 -6 -4 -3 -5
1532261205005590 -16 5 -5 -1 4 -2 -3 -5
1532261205028522 -7 -3 15 -7 0 -4 -5 -12
1532261205103324 -9 28 48 -9 -11 2 0 -4
1532261205141221 6 -33 -48 -7 5 13 3 -1
1532261205230979 8 6 9 12 4 2 1 4
1532261205282842 -5 -4 41 -6 0 -3 -5 -6
1532261205305784 7 -2 -21 5 2 3 1 -1
1532261205365620 10 -2 -29 2 2 0 -2 2
1532261205463373 -1 -1 45 7 -1 0 -1 0
1532261205493293 8 10 14 10 5 2 1 2
1532261205515234 -2 2 11 -1 3 -5 1 2
1532261205547149 12 4 -33 9 -2 -6 -1 2
1532261205568116 -8 8 73 17 3 0 0 -3
1532261205627933 5 2 -31 1 2 -10 3 3
1532261205650872 0 -2 21 -12 -3 1 9 0
1532261205672813 2 -4 5 3 -3 6 -1 -4
1532261205696748 4 -1 -8 -1 11 0 -1 6
1532261205779530 -5 -1 7 14 11 -1 20 -6
1532261205853330 -17 -4 -14 4 2 3 -3 -8
1532261205920151 0 -5 -20 -4 -2 -1 -2 -1
1532261206002930 5 2 9 2 0 -1 2 3
1532261206062770 13 -7 -2 -3 -3 2 1 3
1532261206130589 1 2 0 -1 0 -1 -3 -14
1532261206183447 -3 4 13 1 -2 -2 -3 10
1532261206228327 -1 2 4 -1 -1 -1 -5 -4
1532261206273207 -1 -2 -1 0 -1 1 1 2
1532261206341026 4 -2 -10 -2 -1 -6 -15 -4
1532261206505586 -2 4 -6 -8 -1 0 -1 -1
1532261206745943 -4 -19 -20 -15 -5 -4 -1 -2
1532261206835703 -3 -12 -48 -1 1 1 -1 0
1532261207015223 -1 -1 4 7 0 -1 -1 0
1532261207046140 0 0 1 3 -1 0 0 1
1532261207068082 2 10 7 12 2 0 -3 1
1532261207098002 -3 1 11 0 -1 -1 1 -2
1532261207127922 0 -10 -1 0 2 0 1 -1
1532261207150860 0 4 19 -3 0 0 -1 0
1532261207180780 -3 -24 -18 -11 -8 -3 -4 -2
1532261207196738 1 0 -8 -5 -2 0 -1 -1
1532261207240620 -1 0 -2 -3 -2 -2 0 -3
1532261207263559 -1 4 11 0 2 0 -1 -1
1532261207278519 -3 3 17 27 8 3 0 -3
1532261207315420 -1 -2 3 -1 -1 -2 0 -2
1532261207345340 -1 0 9 -5 -1 -1 1 0
1532261207360300 -5 -6 12 -5 0 0 -1 -1
1532261207445074 -9 13 18 -2 0 1 3 -2

1532261207480977 -12 19 15 1 5 11 12 6
1532261207556776 15 34 39 2 0 -2 -5 -10
1532261207623607 -10 -19 -8 -27 -2 4 -1 -1
1532261207660497 7 32 -22 -3 -2 -3 -10 -1
1532261207675582 -2 1 39 4 -2 -1 -2 -2
1532261207691540 0 -2 -4 14 2 1 -2 -2
1532261207728441 -4 -12 7 -7 -4 -4 -5 -5
1532261207758361 2 7 -30 -5 -1 0 0 1
1532261207780302 -8 -2 -8 -2 2 0 -1 -4
1532261207818201 1 5 10 -1 -1 0 2 0
1532261207856099 -2 2 -20 -4 -3 0 -2 -1
1532261207893000 2 -2 -10 1 -2 -1 -1 -1
1532261207915939 0 -13 -49 -1 3 1 1 0
1532261207937881 1 -18 -16 -5 -4 -1 -3 -4
1532261207967800 -4 -38 14 2 1 -3 1 2
1532261207990739 -2 -29 -6 -1 -2 1 -4 -9
1532261208012681 4 14 -5 0 1 0 -1 2
1532261208050579 -4 6 1 1 1 -1 -1 2
1532261208067534 -1 11 -32 0 -3 -2 -3 -3
1532261208103438 -4 6 5 0 0 -2 1 0
1532261208170259 -2 0 -5 0 -1 0 0 -3
1532261208200179 4 8 32 2 4 1 1 3
1532261208255033 1 6 29 -12 -4 -3 -1 1
1532261208290937 4 -25 -77 2 -1 7 5 18
1532261208327838 21 17 9 0 -5 -46 4 -28
1532261208372718 21 12 -7 -3 -9 -55 53 91
1532261208470456 0 6 35 6 2 3 -5 -3
1532261208493395 0 -19 -7 -5 -5 3 -3 -3
1532261208538275 4 16 41 13 2 3 -2 -8
1532261208568194 -1 0 0 3 2 6 -4 3
1532261208591136 0 -4 -18 6 0 1 -2 -1
1532261208621053 -1 6 5 -8 -3 0 2 1
1532261208643993 -1 -8 -6 -6 -10 0 -1 -1
1532261208665933 4 13 -3 3 4 -1 -1 0
1532261208725773 -3 -12 1 1 1 1 1 0
1532261208747715 0 -16 4 -1 0 -1 -1 -2
1532261208762675 -2 4 9 0 2 -1 -3 0
1532261208800573 -1 -2 -7 -2 4 0 -1 0
1532261208838472 0 -8 -4 10 1 0 0 -1
1532261208883352 1 18 16 -4 2 0 2 -1
1532261208905293 0 20 4 -9 1 0 -3 -1
1532261208935224 -2 0 -2 -9 -4 1 1 0
1532261208981091 0 3 0 0 3 1 -1 0
1532261209003032 0 3 4 0 -6 -1 0 0
1532261209017992 0 34 -2 13 -8 -3 -3 0
1532261209047912 0 -5 -2 -11 17 -3 -1 -3
1532261209077837 2 4 5 4 16 -1 2 0
1532261209122712 0 -5 -9 -12 9 9 -1 2
1532261209145651 -3 -8 -4 -18 -18 -10 -3 -3
1532261209190531 0 1 13 0 7 1 0 -1
1532261209235410 -4 -1 0 0 1 -3 -2 -3
1532261209303229 3 -4 8 -1 1 0 -1 1
1532261209371048 -5 3 19 -6 -2 -2 -2 -3
1532261209422923 2 -11 -66 -2 3 -1 0 -2
1532261209437869 31 8 31 0 -1 2 3 7
1532261209513684 19 9 5 -6 -1 -1 -1 -6
1532261209610408 -25 -3 13 -3 -3 -1 2 4
1532261209633347 -29 -14 33 1 -1 0 0 -1
1532261209655288 -5 -14 -19 3 3 5 2 -19
1532261209723107 10 -32 6 0 -2 1 1 6
1532261209753027 -1 28 2 1 0 -1 3 -1
1532261209812866 17 2 10 10 1 -3 -3 -4
1532261209880685 6 9 -1 -5 -1 -1 -1 -1
1532261209970445 -3 2 -2 4 0 -1 -2 -2
1532261210030285 1 -11 -3 2 3 0 -1 0
1532261210091123 1 8 1 -2 -2 0 -2 -2
1532261210225762 -2 -3 12 -6 -4 -4 -1 0
1532261210293582 -1 2 0 3 10 -2 17 -2
1532261210345450 8 33 14 -1 6 1 0 5
1532261210390323 -3 -20 -4 -3 4 2 -9 -3
1532261210415255 0 29 5 6 -4 -4 1 0
1532261210481080 -10 -64 -7 -11 -23 -12 -2 -4
1532261210525960 3 -32 14 -2 -3 1 22 3
1532261210541917 -3 -19 -6 -15 -10 -6 -8 -7
1532261210564856 2 -38 -4 12 15 2 6 3
1532261210585800 -2 -25 -12 7 3 7 -13 -1
1532261210607750 13 -48 33 12 12 -4 -20 12
1532261210622701 -21 -12 -2 -5 -17 -22 -56 -27
1532261210690519 -19 -47 -15 -13 -16 -4 71 1
1532261210720440 -20 -12 -25 -4 -6 6 4 -6
1532261210750359 -24 -6 -22 -5 -2 -8 -7 -9
1532261210820173 -4 52 -21 -6 -4 -3 3 12
1532261210863059 -12 21 -10 -5 0 11 51 -21
1532261210915917 -22 -8 6 -4 5 28 83 4
1532261210952818 8 27 22 11 9 10 -72 -10
1532261210990717 -2 21 -7 3 4 9 -13 3
1532261211126354 -28 -18 -42 -21 -7 -3 -29 -14
1532261211155277 6 -53 17 2 6 19 33 0
1532261211216114 -13 68 -37 -8 -3 -6 -12 -16
1532261211312855 -23 -65 -43 -18 -10 -12 16 0
1532261211372710 16 21 1 8 9 8 49 19
1532261211455475 10 -63 25 0 0 -5 -35 -31
1532261211485393 -9 -75 -28 -13 -11 -15 -22 9
1532261211613053 3 31 16 0 0 -1 19 14
1532261211657933 -18 0 -8 -8 -10 -12 -37 -49
1532261211689847 1 -52 -12 -2 -3 -1 11 -12
1532261211702813 19 20 -4 -2 -1 5 57 25
1532261211755680 -8 -16 -6 -7 -13 -27 -79 -21
1532261211830471 3 29 3 2 1 5 17 9
1532261211913250 8 -7 64 1 1 -3 -1 -2
1532261211929208 -50 21 -53 -8 -5 -2 -1 -3
1532261212183527 19 3 9 -6 1 1 0 2
1532261212252343 -6 -8 34 -7 -9 -3 -31 8
1532261212422888 12 35 22 3 3 2 7 -1
1532261212469762 -1 -63 10 -6 -3 -1 -4 -50
1532261212512648 -67 3 -3 -2 -2 -4 -7 91
1532261212535585 51 23 3 1 3 6 0 13
1532261212558524 -16 -10 0 17 11 0 -10 -10
1532261212588444 19 7 -5 -12 -10 -3 -3 -5
1532261212648285 -22 0 22 20 2 0 -1 -8
1532261212678204 -18 0 -86 45 26 7 0 -7
1532261212799879 28 10 19 6 2 0 -1 53
1532261212812845 -17 -31 32 9 2 1 10 -56
1532261212873682 -14 -68 2 -2 -5 -2 26 -61
1532261212957458 52 37 10 5 5 5 -5 -1
1532261213000344 29 -6 -13 -1 5 1 -21 9
1532261213106060 8 -11 48 -22 -3 -1 -2 8
1532261213128002 16 5 18 21 6 3 5 8
1532261213202802 -7 -39 4 -12 -7 -2 -5 -4
1532261213240700 17 -11 3 0 0 -3 -2 3
1532261213293566 28 -30 14 -5 -5 -7 23 31
1532261213323479 -83 -79 -22 -3 -8 -24 10 51
1532261213338439 16 90 1 -7 -7 25 -128 -128
1532261213398279 6 -9 -6 -2 -18 -4 96 1
1532261213481057 15 -14 -6 -18 -9 -1 10 2
1532261213577798 5 -1 -12 -8 7 2 3 2
1532261213638636 1 -3 -26 -20 -16 5 4 1
1532261213675537 3 -9 -26 87 42 12 2 2
1532261213690497 -1 7 7 27 12 4 -1 0
1532261213728396 0 0 -20 -7 18 14 5 2
1532261213750337 -4 -11 -1 -46 2 1 -1 -1
1532261213818156 1 1 24 -21 -11 -8 -1 -2
1532261213885975 -2 -14 -12 -2 0 -1 1 1
1532261213900935 3 -12 -17 -12 0 3 2 7
1532261213924871 -2 -7 -36 14 20 7 2 -1
1532261213952796 -3 -18 -19 -22 -8 -3 0 -3
1532261214088442 1 -33 -13 -29 -10 -3 1 -1
1532261214133313 2 15 -25 1 3 1 3 1
1532261214208113 4 0 -8 -2 -2 0 -1 1
1532261214246012 1 -7 1 -3 -8 -2 -3 -1
1532261214282913 -12 5 7 17 6 4 2 1
1532261214342753 0 4 -4 -12 -3 1 2 1
1532261214396609 0 0 -15 4 -4 -1 -1 -1
1532261214410572 3 1 -6 -1 -1 0 1 0
1532261214485372 -4 -24 5 -6 -2 -1 -1 -2
1532261214560172 10 -3 -2 -11 -6 -4 -1 -2
1532261214642951 4 1 1 -15 -7 -2 0 4
1532261214687831 3 6 13 -10 -4 -4 -3 13
1532261214741687 6 5 0 3 -1 1 6 8
1532261214785569 2 4 -15 -3 1 -1 0 3
1532261214875329 8 -5 0 -4 -4 -2 -1 -7
1532261214920209 3 7 10 -3 -3 -3 0 3
1532261214981046 -4 -6 -3 3 2 0 1 1
1532261215040886 1 4 12 -4 -3 -1 -1 3
1532261215085766 -5 -12 -17 0 -3 -2 -3 -12
1532261215160576 -3 -2 0 1 0 -2 -2 -2
1532261215237360 -1 1 -2 -9 -7 -3 -3 -1
1532261215273265 1 -4 0 4 3 3 -1 0
1532261215295206 6 15 -14 -2 -4 -3 0 2
1532261215318145 -3 -19 -10 -1 1 -1 0 -3
1532261215385964 3 -2 3 -3 -6 -3 -1 0
1532261215430844 -2 -2 -4 -12 -5 -4 -1 -2
1532261215528583 -1 -21 -12 -2 -1 0 -2 0
1532261215573462 5 -1 14 0 0 -1 -1 1
1532261215603382 0 -16 -22 -17 -5 0 -2 0
1532261215618342 -1 -4 18 -5 -3 -3 -2 -2
1532261215648265 0 -1 -31 3 1 1 1 1
1532261215670203 -1 -10 -34 -6 -2 0 0 0
1532261215701121 -2 -8 12 1 2 -1 1 0
1532261215738022 -2 -6 24 2 0 -1 0 -2
1532261215782902 -5 -20 -15 -3 -1 0 -3 -3
1532261215805840 0 3 4 16 5 2 2 1
1532261215857703 -2 9 8 12 1 -2 -2 -1
1532261215873659 0 -20 -51 -8 -2 0 -3 -1
1532261215925521 0 6 15 -12 -4 0 -1 -1
1532261215963419 -4 14 39 5 -1 -6 -1 -11
1532261216008299 -12 -22 -4 -6 -9 13 13 44

1532261216053180 1 6 -41 12 17 27 -5 -9
1532261216092076 -1 -12 25 -8 -4 -9 -3 -8
1532261216114017 1 21 39 4 -2 0 -2 6
1532261216135958 -4 11 7 -1 -2 4 -6 -5
1532261216173352 2 -3 9 9 2 -2 2 1
1532261216195293 1 10 16 -1 0 -4 -4 -4
1532261216225213 2 13 -4 -7 -6 -3 -2 -2
1532261216262790 2 -2 6 0 -1 -3 0 1
1532261216292710 -1 1 -1 0 -2 -2 1 3
1532261216353547 0 -20 0 -13 -3 -1 0 -4
1532261216383467 0 -7 0 -2 -2 -3 3 2
1532261216443307 -1 -18 -13 -3 0 -1 -3 -2
1532261216458267 -2 -5 -1 1 1 0 -2 -1
1532261216503147 -1 -4 8 3 0 -1 -2 -2
1532261216541046 -3 0 8 3 1 -4 0 -1
1532261216586932 -1 -1 3 1 0 0 0 -1
1532261216600886 -3 -10 -1 3 0 1 1 -1
1532261216637787 -1 -5 3 -3 0 -1 -3 0
1532261216660725 -2 -7 -13 0 -1 -2 1 -1
1532261216675686 -1 -3 -1 -2 0 -3 -2 -1
1532261216690646 2 7 -2 12 2 3 -1 -1
1532261216720566 -2 -2 4 -4 0 0 0 -1
1532261216743504 -1 6 47 4 1 0 0 0
1532261216773425 -1 -8 -64 -4 -3 0 1 -3
1532261216818304 -1 -2 -21 -2 -3 0 1 -1
1532261216855205 -3 -5 -1 -1 2 0 0 -3
1532261216924021 2 1 -2 -3 -5 -4 -2 0
1532261216937996 3 0 17 -2 0 1 0 1
1532261216952944 1 8 37 -2 -4 -3 -3 -2
1532261216975882 0 20 10 10 1 1 0 1
1532261216997824 3 -20 -65 -10 -1 -6 2 7
1532261217020763 26 1 18 9 8 -14 -5 -56
1532261217042705 -26 56 7 -2 -1 13 -25 -35
1532261217095563 -8 -36 -4 0 -3 -21 -3 16
1532261217140443 3 16 30 -2 -6 5 2 14
1532261217157398 5 1 54 16 3 -5 3 3
1532261217185323 3 9 -25 -23 -4 -3 -2 6
1532261217215243 1 0 -28 -6 -4 -3 1 3
1532261217246174 1 6 -10 1 6 -5 3 1
1532261217372822 2 8 -10 24 9 3 0 0
1532261217417702 1 -2 -18 -3 0 0 0 -1
1532261217432662 -2 -25 37 -1 2 -1 0 -1
1532261217485520 2 21 15 -9 -6 -3 -1 1
1532261217501477 0 -4 6 17 9 0 1 2
1532261217553338 1 8 1 -5 -5 0 -3 1
1532261217568299 -2 -6 -1 1 5 -1 -1 0
1532261217606204 0 7 -3 -7 -5 -1 -1 0
1532261217621158 -1 12 -12 -6 -5 -2 0 1
1532261217651077 0 3 4 -3 1 1 0 -1
1532261217680998 -1 0 3 -20 2 3 1 0
1532261217747819 -1 -5 -11 8 4 1 -2 1
1532261217770757 1 6 8 22 13 10 2 -1
1532261217838576 -1 -8 15 5 1 1 1 1
1532261217958256 -5 -2 10 7 3 -2 -2 -1
1532261218035051 21 0 -3 9 3 2 0 6
1532261218062976 -1 -4 -16 2 1 1 -1 -1
1532261218100874 23 7 -29 -11 -2 -2 2 10
1532261218122816 -10 -2 -91 12 3 -1 -2 -8
1532261218228534 10 -8 -17 9 -2 -2 11 34
1532261218295355 -60 92 29 4 -3 -2 -7 -23
1532261218340235 5 -7 2 1 2 0 13 4
1532261218452933 14 -67 11 2 -1 0 8 -3
1532261218565632 6 10 -8 1 0 0 -3 -5
1532261218633451 18 -4 -2 5 3 3 7 11
1532261218700272 -1 -10 -5 -2 0 1 -8 -3
1532261218812971 -6 -3 0 -2 0 -1 6 3
1532261218865829 -2 4 3 6 -1 1 1 0
1532261218918688 4 1 -1 8 24 4 1 3
1532261218940629 2 37 5 7 -7 -2 0 0
1532261218970549 -11 22 10 2 -2 5 0 -4
1532261219000469 1 -32 -6 5 -1 -1 4 1
1532261219151080 -6 87 -11 -8 -12 -2 -33 3
1532261219181984 -9 55 6 7 4 6 37 5
1532261219202928 -32 -60 -24 -16 -11 -13 7 -16
1532261219232848 6 -49 -5 2 -11 -27 -97 -10
1532261219277727 3 63 5 5 6 4 27 10
1532261219323605 10 -16 35 10 9 12 31 -44
1532261219428325 18 35 49 9 6 19 94 2
1532261219465226 14 -5 -24 15 16 19 -9 14
1532261219511103 12 -6 -6 -7 -6 -13 -15 40
1532261219541024 -10 19 3 -3 -4 2 35 1
1532261219577925 -4 -29 -12 -5 -7 -18 -33 0
1532261219667685 -12 1 8 -5 -1 10 48 15
1532261219690624 0 -21 -3 0 0 0 19 -6
1532261219743482 -3 -2 37 0 -1 -7 7 13
1532261219782378 27 28 27 16 8 1 -5 45
1532261219916021 0 -39 -20 -2 2 23 13 17
1532261220020740 15 42 -2 1 6 10 48 16
1532261220042682 -7 -49 7 -3 -1 -6 -25 -40
1532261220246138 2 10 21 -3 -2 -3 -10 7
1532261220500458 14 16 20 8 5 -15 -8 0
1532261220532373 -7 -20 26 22 -5 -8 -1 0
1532261220606189 3 -26 61 9 -1 -3 -1 -2
1532261220680975 -28 -6 -12 3 -1 3 -4 -7
1532261220770735 -49 -2 0 2 3 -4 3 40
1532261220838554 21 -22 -4 0 -2 -6 -8 -25
1532261221027060 -10 11 -3 0 3 3 0 7
1532261221062954 15 -10 -2 1 1 -2 -2 50
1532261221077913 -61 18 -12 2 2 2 9 -10
1532261221107834 -25 -90 -17 -9 -6 -5 -7 43
1532261221152714 68 4 -11 0 -2 1 11 59
1532261221190613 2 -36 -7 0 1 -2 -13 -76
1532261221228510 -23 -18 -7 -1 -2 1 7 73
1532261221280372 -64 -18 -6 -6 -7 -6 -7 -33
1532261221365145 19 -37 89 -25 -9 -1 2 0
1532261221393071 -13 37 37 -1 6 2 1 -3
1532261221416018 6 12 -20 -10 -6 -3 -5 -3
1532261221437951 -2 -38 14 11 4 0 -2 3
1532261221467871 5 12 -12 17 7 1 2 -1
1532261221497791 7 101 32 2 0 -6 -1 0
1532261221580570 65 -28 -10 9 12 11 9 6
1532261221619466 -11 -24 4 0 -6 -15 -50 -15
1532261221670330 -10 25 0 1 -2 -3 -8 -24
1532261221693268 -6 -10 -8 -10 -2 -7 -2 20
1532261221715210 -5 1 6 86 -5 1 -4 -8
1532261221746127 -4 -20 -27 -32 -2 -1 0 5
1532261221761087 3 18 12 -30 -10 -7 -4 4
1532261221791007 -4 -26 -19 55 37 11 2 2
1532261221835887 -1 2 -5 11 -8 -5 -2 0
1532261221857829 2 -6 25 38 13 3 1 3
1532261221919663 -1 -32 35 -86 -21 -1 -2 -2
1532261221963545 -3 -18 -36 5 -2 -3 0 -2
1532261222113146 -4 -25 -26 51 17 5 3 -2
1532261222143066 8 4 -3 0 7 3 2 -1
1532261222202906 1 -5 5 -15 -8 -5 -1 0
1532261222308623 -1 1 -7 -15 0 1 -1 -2
1532261222345524 -5 6 13 -21 -2 -1 3 0
1532261222420324 2 -6 -31 34 13 2 0 2
1532261222556959 2 1 -1 -2 -3 -3 -1 1
1532261222615818 -2 -5 -8 -4 -1 -2 -4 0
1532261222713540 -4 8 20 5 1 -1 -3 -2
1532261222758420 1 -6 -14 -7 -4 0 -1 -1
1532261222774377 -5 5 -38 -5 -4 -1 -2 -3
1532261222818259 8 -2 0 2 -2 -8 -2 0
1532261222833219 8 0 3 -4 -3 -5 2 10
1532261222878100 -1 -7 0 -5 0 0 -3 -3
1532261222930959 -8 -8 -6 1 3 0 3 0
1532261222975838 3 -2 -2 0 -2 -2 -4 0
1532261223029695 -6 -2 -3 0 1 2 0 0
1532261223066596 0 -7 -5 -6 -1 -1 -1 -1
1532261223095519 -1 -1 0 3 -1 0 -1 2
1532261223110479 -1 -6 -9 -3 -3 -1 1 0
1532261223253097 3 -3 -5 0 1 0 -2 0
1532261223455556 -1 5 -5 5 -2 1 -1 -1
1532261223508414 0 -1 -15 5 3 0 0 0
1532261223590196 1 19 3 -1 2 -2 -1 0
1532261223607151 -4 -31 -7 4 2 -1 -1 -3
1532261223643054 0 -13 -64 2 -1 1 1 1
1532261223680953 -3 -30 -22 -2 -2 0 0 0
1532261223732814 -1 1 13 -6 -6 -2 -3 -1
1532261223762734 -1 -4 -4 -11 -8 -2 -2 0
1532261223785681 -3 3 2 1 0 0 -1 -3
1532261223823572 3 -5 -9 -1 -1 -1 -1 1
1532261223853492 0 12 24 -5 2 2 -2 0
1532261223884408 -1 0 -29 0 -2 0 -3 -3
1532261223913332 -4 -4 2 6 1 -1 -1 -1
1532261223958214 -4 -3 -35 0 2 -3 -2 -11
1532261223995113 5 -2 -41 1 3 4 0 4
1532261224018051 3 16 23 3 -2 -24 6 70
1532261224055952 -5 -22 -1 -5 -2 10 -16 -45
1532261224085870 -15 -30 69 32 10 -8 8 -17

1532261224161668 3 8 -25 -1 -7 -4 1 9
1532261224183608 -9 -6 -9 -7 -3 -7 0 7
1532261224205550 2 3 43 6 3 -4 -4 4
1532261224273369 -4 -9 -24 -21 -8 2 1 1
1532261224310270 5 8 21 -3 -3 1 -2 -1
1532261224363128 3 -4 -27 -1 3 2 0 -1
1532261224408009 -9 -2 -11 -4 -1 -1 -2 -4
1532261224475827 1 7 68 -5 -4 1 0 9
1532261224490787 -3 15 23 -10 -7 -5 -2 -4
1532261224535667 2 -22 -59 -1 -6 -2 0 -23
1532261224580548 7 -16 -46 1 1 -11 9 34
1532261224610467 -1 23 -19 -2 2 -8 -28 -18
1532261224723167 -2 1 6 -9 -2 -2 2 -4
1532261224746105 0 6 -9 2 0 -2 -2 -9
1532261224768046 -1 2 -7 -3 -1 -1 -3 3
1532261224820905 3 46 22 -5 0 2 0 -2
1532261224895705 0 -7 3 5 0 0 1 1
1532261224955553 0 -22 4 1 -2 1 -2 -1
1532261224993456 -1 7 -9 0 0 -2 -2 -1
1532261225030345 -3 7 7 5 -3 -3 -2 0
1532261225053291 1 12 -35 -6 0 0 2 1
1532261225075225 4 22 44 5 -1 -2 0 0
1532261225090185 -2 0 14 1 -1 -1 -1 -1
1532261225113123 -2 0 -1 -6 2 1 -2 -3
1532261225143043 0 20 -11 -4 -3 -3 -2 -2
1532261225172963 1 -8 -23 12 0 -6 -2 -2
1532261225187923 0 7 -7 -3 2 0 0 -1
1532261225272703 0 5 -4 -13 -1 -4 0 0
1532261225309598 1 6 30 19 5 0 0 0
1532261225338534 1 -13 -37 -7 -9 -2 1 0
1532261225383401 0 -2 8 -5 1 -1 0 0
1532261225428280 0 -3 -11 16 10 1 -2 -1
1532261225473160 0 -1 5 -3 -3 -6 -1 -1
1532261225585859 -1 9 1 0 -1 -1 0 1
1532261225622765 -3 7 -2 11 2 -1 -1 -2
1532261225660659 1 0 -5 -3 -4 -3 -1 -2
1532261225713518 -2 2 -1 -2 -2 -1 -2 -3
1532261225735459 -4 -3 -2 0 -2 1 -2 -1
1532261225758397 0 1 3 -2 -2 0 0 -2
1532261225773358 4 1 2 2 -1 0 0 -1
1532261225825219 12 12 21 1 -2 -1 -1 1
1532261225855150 -19 -5 -11 4 2 2 1 -5
1532261225997758 81 3 3 -2 1 -1 4 25
1532261226043635 -5 42 1 -1 0 2 2 3
1532261226110456 1 -13 2 -1 -4 -3 0 -2
1532261226148355 16 3 1 -2 0 -1 1 6
1532261226238115 5 -14 -1 1 1 0 0 5
1532261226478472 5 5 4 2 6 4 2 1
1532261226553272 -1 23 0 2 4 0 0 -1
1532261226665985 0 30 -5 2 5 2 -21 0
1532261226725811 -7 -21 -12 0 -6 -2 1 -2
1532261226747752 -2 -16 1 25 8 2 19 0
1532261226770690 -1 0 -3 -21 0 1 5 -4
1532261226808589 10 21 -18 33 2 2 2 6
1532261226853469 8 59 20 -1 -2 -9 24 6
1532261226890371 9 52 18 0 0 1 5 -5
1532261226952205 -18 1 -9 -3 -3 1 39 7
1532261227003069 -4 13 -5 -11 -3 -5 -55 -19
1532261227072899 -8 -54 -19 -18 -10 -1 -8 -9
1532261227115768 7 13 -7 -8 -1 1 7 14
1532261227168641 -11 1 -9 -5 -4 5 96 3
1532261227191566 22 -4 9 12 8 28 37 56
1532261227205530 -2 24 7 4 -3 -8 -38 -36
1532261227235448 -5 -16 -17 -14 -7 -2 2 5
1532261227258387 8 49 6 5 1 4 10 -19
1532261227280328 22 35 22 7 6 3 16 3
1532261227348147 -17 -3 -3 1 -2 -1 -17 -11
1532261227415965 -10 1 0 -1 -1 -7 -1 5
1532261227475805 8 33 -8 0 1 6 -18 4
1532261227497747 -10 -51 -5 3 3 4 -29 -42
1532261227716164 -2 14 -14 -6 -4 1 49 20
1532261227746083 3 -15 7 -2 -1 0 5 8
1532261227783982 -3 -8 6 5 0 2 -4 -13
1532261227805923 -3 -27 -12 -3 0 0 -1 0
1532261227857784 0 22 12 -1 -1 0 -5 -6
1532261227887704 -1 38 -1 1 -1 0 -2 3
1532261227994419 0 13 7 5 1 -3 -4 0
1532261228015363 -14 0 -76 -13 -5 -3 -1 -6
1532261228047277 7 0 -12 6 -1 2 2 11
1532261228098141 8 4 2 8 1 -5 0 3
1532261228157981 -37 -25 -126 5 -3 -5 -24 -24
1532261228217821 30 5 8 1 0 -2 -13 -2
1532261228315560 -26 -14 -9 -2 -1 -1 8 4
1532261228360440 19 -1 -10 -7 0 2 1 4
1532261228405319 -9 -3 22 -1 2 0 -2 -4
1532261228450200 -7 -15 3 -7 -2 -1 0 1
1532261228503068 -4 -11 -9 -2 1 2 0 -2
1532261228556915 25 6 -12 2 0 0 1 -1
1532261228652658 -14 -4 -6 -1 0 0 0 10
1532261228728455 10 7 -4 -1 -3 2 12 104
1532261228788295 -16 20 -2 -5 -5 -3 0 10
1532261228818215 -33 -17 -2 2 2 5 1 -3
1532261228857112 26 -7 -14 -48 -12 -2 1 7
1532261228896020 1 10 -46 6 5 -2 -1 1
1532261228922952 -10 -3 7 15 4 1 -3 -6
1532261228960835 1 10 86 -5 -5 1 0 -3
1532261228982775 3 -2 -15 -6 -6 -2 1 0
1532261229005715 0 16 -48 -3 -1 -1 -2 0
1532261229050594 18 -49 -9 -2 0 0 -3 15
1532261229073533 -3 -7 2 1 -2 -2 -5 -54
1532261229127390 0 29 -5 -3 -2 -5 6 12
1532261229157309 -19 17 2 -2 -3 2 -4 -44
1532261229170274 -7 6 1 2 2 2 5 -2
1532261229208173 69 -5 -3 3 4 5 6 64
1532261229231111 -12 7 0 0 0 1 -1 3
1532261229246072 -2 -8 2 3 3 -1 3 89
1532261229282973 5 5 56 -28 -24 -7 -3 -15
1532261229305912 -4 -12 59 22 17 5 2 -13
1532261229350791 -16 -28 42 -3 -1 -1 0 4
1532261229372733 11 5 -72 45 13 1 1 5
1532261229417612 0 -6 -77 0 -1 -1 -1 -2
1532261229440551 -7 -31 -69 2 -1 -2 0 -2
1532261229478450 19 32 28 -14 -10 -6 -6 -17
1532261229500391 -9 72 4 -4 -3 1 21 -8
1532261229515351 -25 -48 -10 2 0 -1 -3 -69
1532261229554248 25 -95 -15 -2 -5 -6 -22 36
1532261229568209 -11 -103 -1 1 1 -5 -24 -22
1532261229598130 -12 -58 -10 -2 -2 -2 7 -8
1532261229628049 1 23 -4 2 1 6 1 97
1532261229672930 2 -16 -3 1 -4 -26 -15 10
1532261229726787 -2 23 -1 1 2 10 4 5
1532261229747730 12 -6 0 2 -2 -2 -4 18
1532261229778647 4 5 2 13 2 1 -3 5
1532261229800589 -2 -2 -4 5 -12 -1 -6 7
1532261229823527 -1 -24 -21 -25 -9 0 -4 -6
1532261229853448 0 -10 -15 -6 5 4 -2 -1
1532261229906308 -1 2 -12 -13 -7 -3 -1 -2
1532261229950188 0 7 10 -8 -1 1 3 1
1532261229973127 0 -2 -29 26 -7 -2 -1 -2
1532261229988087 0 -4 -100 9 -4 -2 -1 -1
1532261230032967 -1 4 19 -12 0 3 1 0
1532261230137687 1 3 -19 -28 -10 -2 -1 0
1532261230198525 0 11 -6 -5 2 0 -1 -1
1532261230265346 0 6 31 -2 -1 -3 -3 -2
1532261230288284 -2 0 7 -9 2 5 2 -2
1532261230348124 2 15 8 -12 -1 4 6 0
1532261230393004 3 5 29 -2 -3 -6 -3 2
1532261230407964 0 4 -10 -7 -6 -5 -4 -4
1532261230505703 -1 11 6 4 1 1 3 0
1532261230520663 1 -12 7 -9 -5 -1 0 -1
1532261230544599 2 -3 3 -11 -5 -1 0 0
1532261230558561 -1 -8 6 4 -2 -1 0 -1
1532261230580503 -2 -3 -8 11 -1 -4 -1 -1
1532261230610425 0 9 0 -31 -9 -3 -2 1
1532261230716140 -3 -5 12 -8 -2 -2 2 -3
1532261230738084 -1 -11 -29 4 1 1 -1 1
1532261230782962 2 4 -4 -10 -4 -3 2 4
1532261230903638 -4 1 7 -7 2 3 1 -1
1532261230955500 6 2 70 2 4 2 0 0
1532261231038279 5 0 -15 2 -3 9 -3 6
1532261231060220 4 1 19 -1 -3 1 2 2
1532261231083159 -3 -7 -35 0 -1 1 -3 -2
1532261231098119 -2 0 2 3 0 -3 2 0
1532261231136017 4 -3 2 2 0 -3 2 -1
1532261231157959 5 -11 -5 -4 -1 -1 -3 8
1532261231225777 -2 -3 -11 2 2 1 1 -4
1532261231293600 3 -1 1 2 -1 -7 2 4
1532261231338480 -3 1 -1 0 -1 2 -2 -7
1532261231368395 4 -1 -22 -5 -2 -3 -1 6
1532261231383356 4 -2 -6 0 -1 -2 -2 -5
1532261231398316 5 3 -3 0 -1 -2 -4 -4
1532261231503036 -7 -1 4 -1 1 0 1 -2
1532261231600775 1 -3 -10 -5 -4 -2 -1 0
1532261231645655 2 5 12 -2 -2 -1 -2 1
1532261231698513 -2 0 7 1 0 1 0 -1
1532261231863073 -1 -3 -7 -6 -3 -1 -1 -1
1532261231878037 -1 -16 1 1 -4 0 -1 0
1532261231900972 1 17 79 -4 -2 -4 -1 0
1532261231945852 1 -9 36 10 1 0 0 -2
1532261231967793 23 -30 -28 -6 -5 -4 -4 -2
1532261232020652 -5 -5 42 2 -2 1 3 1
1532261232088470 -5 26 -35 -2 -1 2 -1 -2
1532261232133355 -4 -38 12 -3 -6 -2 -2 2
1532261232155292 0 26 0 -2 -2 -4 -4 -3
1532261232261009 9 1 -71 2 -2 63 42 -50

1532261232434545 0 -7 -5 3 0 2 2 -4
1532261232455489 1 15 -23 2 1 -1 0 2
1532261232523308 -2 2 6 -3 1 -1 -1 -2
1532261232545249 0 -5 -10 -1 -3 -3 1 7
1532261232576166 1 -3 -15 -5 0 1 1 0
1532261232606087 -5 2 -12 0 1 -1 -1 -2
1532261232680903 3 -1 44 3 -2 -2 3 -3
1532261232710823 1 0 7 -2 -3 0 -2 0
1532261232755710 2 -1 -5 1 1 0 0 2
1532261232808562 -11 8 35 2 1 -2 -4 -1
1532261232830503 2 -5 -7 -2 -1 1 2 4
1532261232868402 1 -5 2 -1 1 3 2 -4
1532261232884368 4 -9 19 -4 -2 3 0 0
1532261232928242 4 -4 -26 -2 -4 -2 -2 -3
1532261232958162 -3 6 20 -1 -1 -2 -1 2
1532261232988082 -4 12 4 0 1 2 1 -3
1532261233011021 -4 2 18 0 -1 2 0 -3
1532261233032962 0 -6 -11 -2 -2 0 -2 -10
1532261233047922 1 -5 -20 -2 -3 -3 0 5
1532261233070860 1 -2 8 4 0 -1 -4 0
1532261233092802 -1 -3 4 -3 1 -1 0 0
1532261233130701 7 1 9 -5 -4 -3 -2 -1
1532261233152642 -3 -1 -18 1 0 -1 -1 -2
1532261233190540 -2 -1 -15 -2 -1 -1 -1 -1
1532261233220461 -2 -8 -8 1 -1 0 -1 -3
1532261233235448 -2 6 15 3 -1 -3 -2 3
1532261233265369 -10 13 24 4 2 1 1 -5
1532261233295313 1 4 -35 -3 -2 0 0 -2
1532261233310270 7 -7 -12 1 0 -1 1 9
1532261233348169 -2 0 14 -2 -1 0 1 -1
1532261233378088 -2 4 23 -2 -1 0 0 3
1532261233430948 1 -6 -22 -2 -1 2 -2 -2
1532261233452889 0 -2 -23 -1 2 -1 3 17
1532261233550627 -1 7 22 2 -1 0 -1 -4
1532261233588539 3 1 -7 -2 -1 1 1 2
1532261233618445 -3 -7 -32 -4 0 1 -2 3
1532261233670307 -2 4 8 0 0 -2 0 0
1532261233693245 -10 1 -3 -4 -2 2 -1 -3
1532261233739124 1 -10 -17 2 2 -2 0 -1
1532261233783006 1 -5 1 -4 -4 -2 1 7
1532261233814921 -3 -4 -11 -1 1 -1 0 0
1532261233842855 -1 -3 -31 1 2 0 1 10
1532261233865784 -4 6 22 -1 -3 1 -2 -4
1532261233887725 1 -2 10 2 -2 -2 -1 -1
1532261233918643 -2 -9 -2 -2 0 -1 0 -5
1532261233963524 -3 -8 -18 -7 -3 0 -3 -4
1532261234031342 -4 -1 21 3 1 -1 0 -5
1532261234106151 -1 -2 -3 -3 -2 0 0 -1
1532261234172964 -1 13 39 1 0 -1 -1 -1
1532261234195912 0 -3 -3 0 -1 -1 3 3
1532261234255742 2 -5 10 0 0 -2 0 4
1532261234300622 3 -6 -3 0 -3 1 -1 -4
1532261234330542 0 -6 -62 -1 -1 0 -4 -1
1532261234368441 0 -2 -21 -3 -2 3 -3 2
1532261234390382 -3 -22 22 7 -2 -3 1 7
1532261234413320 3 -10 -3 2 2 -1 -2 -1
1532261234435262 0 12 43 2 -1 -3 0 0
1532261234451218 1 0 3 -1 -1 -1 -3 -3
1532261234473189 -1 1 9 2 1 -1 5 14
1532261234503108 3 0 -1 -2 -3 1 0 -3
1532261234555973 -1 -1 -2 -1 0 0 0 -3
1532261234728506 8 -53 -17 -9 0 22 16 55
1532261234818265 -5 -1 9 1 1 15 -2 -12
1532261234863146 2 -7 34 -29 -4 3 5 8
1532261234887082 -2 -1 19 -2 -1 6 2 7
1532261234937945 -2 -4 9 -3 -2 1 0 -2
1532261234969860 -1 -2 11 -3 -2 -1 2 1
1532261235005764 0 -4 -16 -1 1 7 4 -1
1532261235065604 -1 9 25 -3 -3 5 2 1
1532261235103502 1 3 -9 0 -2 -1 0 5
1532261235180297 -1 -3 1 5 2 1 -1 -1
1532261235217199 0 21 26 1 3 1 -1 1
1532261235231162 0 13 -6 -1 -6 -4 -1 -2
1532261235277039 -1 6 3 0 -1 0 -1 -1
1532261235305962 -2 -19 5 0 1 1 -1 -2
1532261235335881 -1 4 -7 -20 -4 1 -2 -3
1532261235365802 -6 -70 -8 3 2 0 -1 -1
1532261235387743 1 26 -1 -3 1 -2 0 0
1532261235417663 1 31 13 -2 0 0 1 0
1532261235524378 2 13 -13 -21 -13 -2 -1 -2
1532261235560282 4 19 44 34 12 5 5 3
1532261235628100 1 4 0 5 -1 1 0 1
1532261235740800 2 3 7 -2 1 -1 1 -2
1532261235808617 0 1 0 -1 1 0 2 2
1532261235823578 4 5 5 -1 0 0 1 -1
1532261235868457 10 8 5 1 3 1 0 5
1532261236003097 -1 -24 -27 -14 -4 -1 -1 -3
1532261236070916 -29 4 -5 -3 -1 -2 -1 -12
1532261236145716 25 13 6 2 -1 -1 3 41
1532261236175637 -13 -9 -3 0 1 1 4 18
1532261236250436 -13 -12 -7 -3 -1 -1 -2 -23
1532261236265396 -5 -10 -4 -4 -3 -3 1 10
1532261236318255 -8 3 -2 -1 0 -1 0 5
1532261236387071 -1 12 3 0 -1 -1 0 -1
1532261236422975 3 3 4 2 2 1 0 3
1532261236475833 0 3 1 -1 1 0 -1 0
1532261236542654 3 7 -10 -2 -1 0 -2 -1
1532261236664329 -1 5 -14 18 4 3 17 3
1532261236678292 -5 50 -3 -12 -7 -1 -7 -5
1532261236694250 16 47 22 36 9 6 -7 5
1532261236715193 10 -7 3 -11 -5 -1 13 -4
1532261236776030 7 18 18 15 5 1 -19 5
1532261236835870 -17 -7 -16 -20 -5 1 2 1
1532261236880750 6 65 8 0 1 -2 6 2
1532261236933609 17 -59 22 4 1 -4 15 2
1532261236948569 9 -41 14 2 7 24 -1 5
1532261236978489 -18 -6 -15 -1 -1 0 5 -4
1532261237008409 2 -27 18 9 3 -9 -7 0
1532261237038329 -4 -44 16 10 3 0 -35 -26
1532261237060270 -14 -62 -13 -3 -2 -14 -5 -3
1532261237091188 -9 -28 -7 -5 -4 -4 -38 -20
1532261237113129 7 50 9 -2 0 7 30 32
1532261237219844 -16 -18 -17 -8 -3 -1 19 16
1532261237315588 27 -7 4 5 3 -6 -6 -8
1532261237353486 -1 -25 -6 -2 7 10 64 -3
1532261237383406 13 17 -8 0 -1 7 56 62
1532261237497102 -13 -73 -12 -6 -4 5 -71 51
1532261237607806 -16 -36 -18 -3 0 -7 0 18
1532261237637726 -1 30 13 1 0 1 -4 -5
1532261237675625 4 40 -15 -8 1 1 -3 9
1532261237750441 5 10 -51 4 5 6 17 11
1532261237803283 -8 -5 -8 -7 -1 -11 -2 0
1532261237825225 0 -9 -57 3 3 -3 1 1
1532261237855144 -8 -19 45 -3 -1 7 -14 1
1532261237915981 -36 9 30 2 -7 -16 -6 -31
1532261237960861 -57 3 67 -4 -2 2 16 -16
1532261238020702 21 -26 5 0 -1 -5 0 -4
1532261238080542 -22 -21 30 -8 -9 3 -2 -3
1532261238231139 11 34 24 0 2 3 6 6
1532261238305939 31 10 1 1 2 -1 -5 -10
1532261238329876 11 68 3 1 -5 14 24 -4
1532261238350819 10 -11 9 -8 -2 17 12 -6
1532261238395699 7 5 18 -42 -12 10 2 -6
1532261238440579 13 -1 55 -11 -6 7 -5 -7
1532261238553277 23 -7 24 4 1 0 -4 6
1532261238569236 18 1 8 2 -1 0 -5 -5
1532261238592174 36 -10 -1 3 3 -18 -9 -79
1532261238607134 54 16 1 1 1 -5 -5 127
1532261238636056 22 17 9 0 -2 -11 -6 21
1532261238665976 -71 -32 -5 -4 -9 -43 -70 -13
1532261238680936 -42 69 4 0 2 2 -2 -39
1532261238702878 -10 -99 -2 3 6 -21 0 15
1532261238740776 -8 39 6 6 5 -15 9 26
1532261238770697 11 27 5 35 31 29 25 3
1532261238838515 5 10 -66 -14 -2 2 3 -8
1532261238884393 5 29 3 12 4 2 0 -2
1532261238905336 -11 85 35 23 0 -3 0 5
1532261238973156 61 19 11 7 6 -10 -5 27
1532261239003075 -19 -20 10 8 12 -8 32 -15
1532261239040974 16 12 6 6 5 16 -4 27
1532261239062915 -11 1 -3 -7 -14 2 -15 28
1532261239107795 9 -4 1 -14 -14 5 -4 34
1532261239169630 -7 -3 -4 -3 -4 -3 0 2
1532261239190574 1 2 10 35 23 9 1 1
1532261239250414 -2 -1 -69 78 21 4 2 2
1532261239280334 1 -3 14 9 -3 2 1 -1
1532261239363113 -1 -9 20 100 30 5 1 0
1532261239424947 -1 -6 -10 -19 -6 -2 -1 -2
1532261239445892 2 5 -14 -20 3 2 4 0
1532261239558590 2 -3 10 16 0 4 0 1
1532261239665304 -2 1 0 -4 -1 2 0 -3
1532261239693230 2 6 -7 14 1 -2 2 0
1532261239850808 -2 -11 20 18 3 -1 -3 2
1532261239895688 0 -6 -45 4 4 4 1 -2
1532261239963507 -9 -1 -41 -11 3 1 -1 -3
1532261240001406 3 10 -14 5 -2 -3 -3 -1
1532261240195886 13 -4 11 1 -1 2 2 3
1532261240217827 6 4 13 -5 -2 -2 1 -2
1532261240278664 7 -1 6 4 0 0 -1 1
1532261240390366 1 -4 77 1 -2 -8 -2 1
1532261240600803 5 1 -10 -3 1 -1 8 3
1532261240713501 6 -3 11 -10 -6 -7 -1 -1
1532261240758381 9 -9 8 0 -5 -3 -4 -14
1532261240826200 4 0 -5 -1 -2 -1 0 2
1532261240856127 2 1 -7 -2 -1 -1 0 7
1532261240901000 0 0 5 -1 -3 -2 -3 -6
1532261240990760 -1 -1 -32 -1 -3 1 -2 -1
1532261241028669 -2 2 15 2 1 -2 -1 1
1532261241073539 2 -2 2 0 -1 1 -2 0
1532261241155320 1 -5 -24 7 2 2 0 1
1532261241223139 1 -39 -4 -10 -1 -2 0 -1
1532261241357779 -10 -10 68 -5 -2 -1 2 0
1532261241395678 -1 2 6 6 0 -1 -1 -5
1532261241425597 -4 -23 -39 -14 -6 -2 -2 -2
1532261241448536 3 -20 54 -3 0 1 0 2
1532261241470477 -3 -26 9 -6 -3 -3 -1 -3
1532261241500397 2 5 15 -1 2 2 1 1
1532261241523336 -2 -21 -83 -13 -6 2 2 0
1532261241545276 8 3 -10 -2 0 -1 0 2
1532261241583176 -4 11 -33 1 1 7 3 1
1532261241599133 -7 4 81 3 3 -7 -2 -12
1532261241636034 -13 1 -25 -2 1 -16 27 -31
1532261241659970 -16 -6 -37 -18 -13 5 -8 17
1532261241680914 -2 -28 -61 62 29 -23 12 1

1532261241755741 -9 12 91 14 -3 1 -5 8
1532261241793635 5 -14 63 53 16 4 0 5
1532261241815564 1 -11 22 5 0 42 18 -4
1532261241868422 -1 -1 -5 -30 -10 1 1 1
1532261241899346 -1 -8 -7 -18 -5 -11 -5 -2
1532261241914307 -1 -3 -11 -21 -12 -14 -4 -1
1532261241935245 0 3 12 15 3 -7 -3 0
1532261241958183 1 -3 -5 5 1 -3 -1 -2
1532261241981121 -3 3 16 4 0 -10 -4 -1
1532261242003062 -2 2 -8 0 0 0 -1 1
1532261242026002 -1 -2 8 1 1 -2 0 1
1532261242055945 1 -2 -1 -6 -3 -2 -1 -1
1532261242100825 0 -4 -9 -8 -4 -3 1 0
1532261242145705 -5 0 -12 1 1 1 -1 -1
1532261242160665 2 -11 -27 -3 -2 1 1 0
1532261242176622 2 9 30 -6 -4 -3 -1 1
1532261242220504 -2 15 12 4 0 0 1 0
1532261242258404 -2 11 17 2 -2 -1 0 -4
1532261242348202 0 -6 2 1 0 -5 -1 -1
1532261242378122 -2 -5 -17 -2 -2 -2 0 -1
1532261242423002 -1 -2 -9 2 -1 0 0 -1
1532261242454922 -8 4 -13 -2 4 -1 3 -1
1532261242482842 2 -15 -13 1 -2 1 -1 1
1532261242512762 -1 -1 2 -1 1 0 -2 -1
1532261242535701 0 7 6 -8 -6 -1 -1 -2
1532261242603564 -1 1 11 4 2 -1 1 0
1532261242627495 -2 -1 -2 -1 -1 -3 1 -1
1532261242723239 -5 6 1 -1 -1 -4 -1 1
1532261242791058 1 -4 -15 -2 -2 -1 -1 1
1532261242827959 0 -16 -25 -1 2 -4 -3 -2
1532261242857879 2 13 -21 -6 0 -1 -1 0
1532261242918717 -2 9 23 -2 -3 1 -3 -1
1532261242987546 0 4 6 4 6 16 1 -7
1532261243009474 4 9 8 5 -1 -12 -3 24
1532261243047373 5 2 -5 1 -5 -39 -11 -7
1532261243098236 -1 4 -2 -10 -4 -8 -10 13
1532261243121176 -3 -9 -16 -25 -7 0 -1 4
1532261243202956 -2 -3 7 3 -2 2 -2 -2
1532261243240856 -5 -4 22 -7 0 -1 -3 1
1532261243270774 0 -3 -6 -6 1 0 0 2
1532261243315654 -2 4 4 -15 -10 -4 -3 -1
1532261243338619 -1 -20 -1 -10 0 1 0 0
1532261243413394 4 27 -3 0 1 -1 -1 2
1532261243465255 -3 1 13 -4 -3 0 -2 -2
1532261243541063 2 28 -12 17 8 -1 0 1
1532261243570973 2 -13 0 2 4 -2 -2 -1
1532261243601902 -1 -13 -7 -8 0 1 -1 0
1532261243622837 -3 -28 -3 2 -3 -1 -2 -1
1532261243652753 4 5 6 29 9 2 1 0
1532261243698630 -4 -6 13 -3 3 -2 0 0
1532261243781409 -10 -7 -2 -4 8 0 -1 -1
1532261243848230 -12 -33 16 -2 -5 -3 -4 -15
1532261243879149 -6 -8 15 -9 0 -1 0 4
1532261243901089 -8 -2 10 0 -3 0 0 0
1532261243945970 24 3 12 0 1 0 0 7
1532261243990849 25 -19 -2 -1 0 -2 -2 -4
1532261244074626 -1 5 -3 0 -3 -3 -1 -6
1532261244103548 -35 15 6 0 2 -1 -3 1
1532261244163389 -4 -53 -5 2 1 1 5 15
1532261244291047 2 28 -3 -2 -3 -2 -4 -6
1532261244636124 -2 3 0 -2 1 2 -1 -1
1532261244658065 2 1 -2 -1 1 0 0 1
1532261244687985 2 -14 -5 -5 5 3 -1 1
1532261244717905 -4 -6 -1 13 2 2 1 0
1532261244755807 1 16 -1 -10 -3 0 1 0
1532261244808663 -2 -50 -5 -7 4 0 -2 -2
1532261244845563 2 22 5 11 11 9 0 -1
1532261244943302 -4 4 4 4 -7 -10 -90 -11
1532261244997159 -6 93 5 -8 -14 -20 -108 -28
1532261245018103 -14 -128 -15 -3 1 -6 -21 3
1532261245062982 4 25 -17 -2 -1 -4 -14 -10
1532261245124817 -6 -108 -30 -12 -9 -11 -71 15
1532261245213580 1 -41 1 6 3 7 13 0
1532261245228539 -5 -10 27 -8 -7 -7 -11 5
1532261245267435 1 2 8 0 1 -1 20 6
1532261245310321 5 -29 -15 -2 -2 -2 9 -13
1532261245401078 -23 -92 -27 -16 -11 -8 -19 -24
1532261245544695 18 11 26 13 6 6 -2 14
1532261245573616 11 -16 -6 -2 1 6 64 13
1532261245648418 -1 3 -12 -5 -5 -9 -46 -34
1532261245702273 0 8 -22 -1 1 0 23 -5
1532261245730199 7 -6 3 -1 0 1 -32 -56
1532261245791036 -14 -23 -14 -7 -6 -9 -1 12
1532261245820956 1 -12 -29 -6 -5 -3 -11 -16
1532261245850876 -11 -16 -8 0 2 9 10 -23
1532261245925675 0 -11 79 1 -2 -5 -16 -8
1532261246030395 -12 32 57 1 -3 -5 -14 -4
1532261246060316 -29 -31 -43 3 -1 3 7 -10
1532261246083255 -35 23 43 1 3 -9 15 -1
1532261246113174 96 21 -20 1 7 45 70 6
1532261246128134 -70 -30 27 4 2 -8 3 -1
1532261246210913 19 -5 12 -12 -9 -18 -36 -28
1532261246255794 -49 -12 6 15 2 11 -5 4
1532261246323611 -23 -11 -18 -11 0 0 -6 -8
1532261246345553 2 -39 -5 -1 1 3 2 6
1532261246375473 4 30 8 0 0 -4 -1 -3
1532261246450272 4 7 9 -1 1 2 1 -16
1532261246473211 9 -98 -18 -6 -4 -2 -1 58
1532261246585910 6 6 0 2 4 8 1 -41
1532261246616835 -14 15 3 26 11 -10 2 -1
1532261246683649 -3 1 -59 92 19 4 -4 -3
1532261246750469 10 -9 94 -8 -4 -4 -1 -3
1532261246863169 -34 -13 -9 4 1 75 74 18
1532261246901068 45 13 4 -14 -21 -29 -113 79
1532261246931984 7 -42 1 3 0 -43 8 20
1532261246967888 3 -16 -1 1 1 4 -1 10
1532261247005792 19 -31 -8 73 42 -7 4 25
1532261247027729 0 20 -2 -22 -19 -15 1 13
1532261247088565 -2 42 44 -4 -5 -3 -1 3
1532261247110507 -3 0 -6 -4 6 2 0 3
1532261247150400 -13 -8 24 -6 -2 0 3 -13
1532261247163366 -29 -32 -17 -1 -4 -4 -8 -27
1532261247185308 19 17 5 -2 2 -4 -7 26
1532261247208246 1 -41 -9 -4 -4 1 13 -1
1532261247261104 -11 40 5 -4 -5 22 -12 -57
1532261247291024 24 2 0 2 6 -23 -29 22
1532261247305985 -13 -17 4 3 10 96 89 -50
1532261247342886 22 2 -6 -6 -11 19 -14 11
1532261247410704 4 -17 1 1 2 9 -27 -25
1532261247425664 7 -20 -2 -4 -8 -8 21 -19
1532261247455584 2 5 -1 5 -8 -4 24 -5
1532261247478523 4 1 8 -7 2 0 4 -10
1532261247500464 0 2 0 32 8 -9 -8 0
1532261247523403 1 -5 -31 -45 0 3 0 -7
1532261247538363 -3 -9 -22 40 1 -6 -5 -3
1532261247575264 -1 -1 -3 -5 -8 -6 -1 -3
1532261247621141 -1 -4 31 43 8 0 -1 -3
1532261247643083 -2 -6 -21 -22 -9 0 -2 0
1532261247702923 1 9 36 3 4 0 -1 0
1532261247755782 -9 7 -10 -12 2 1 0 -1
1532261247770742 -1 23 20 -29 -12 -4 -3 -5
1532261247785702 -1 6 -22 14 3 0 -1 -2
1532261247875462 -3 -11 -4 -1 3 -1 -2 -4
1532261247943281 -1 2 -5 9 -3 -3 -3 -1
1532261247981191 1 8 45 43 0 2 1 1
1532261248027056 -2 -4 -14 -25 -3 35 4 0
1532261248070939 2 -4 7 -26 -11 -21 -17 1
1532261248122800 5 4 33 16 4 2 -6 -7
1532261248183638 -2 -6 -40 21 1 1 6 -1
1532261248205579 1 -1 -20 -1 1 3 7 0
1532261248295338 -9 -16 -18 -23 -8 21 11 -2
1532261248319275 -3 3 5 -7 0 7 3 6
1532261248371136 4 4 27 -15 -8 -11 -3 -1
1532261248482838 -1 1 -6 -12 -3 -10 -10 -3
1532261248565616 0 -7 7 -6 -5 4 -9 -1
1532261248588559 9 2 6 -10 -7 -11 -2 1
1532261248610496 9 2 -22 -6 1 2 -1 2
1532261248625456 -2 0 -2 -4 0 2 8 -3
1532261248655376 5 -6 -8 -24 -5 4 -10 -2
1532261248700256 21 0 28 -1 -4 -7 3 -1
1532261248753114 -26 5 7 7 1 -2 -1 3
1532261248820933 -12 5 13 -3 -2 7 1 -9
1532261248858832 2 -2 -17 -5 -1 4 -1 -1
1532261248910693 1 0 -4 0 -4 3 3 4
1532261248940613 -5 -3 8 1 2 -1 0 -15
1532261249075254 3 -3 -5 -7 -3 -2 -2 2
1532261249195931 -3 3 9 5 -1 1 -1 0
1532261249262752 1 1 -12 -5 0 -2 0 1
1532261249338550 -1 13 23 5 0 0 0 0
1532261249368469 0 21 50 -2 -2 -1 1 0
1532261249435291 -5 -50 -50 8 12 3 3 -1
1532261249473190 1 7 10 -12 -7 -3 -2 -2
1532261249488185 1 10 22 3 -3 -2 -2 0
1532261249503109 -2 -2 -19 0 -4 1 -1 -2
1532261249585888 -1 17 -9 -22 -7 -1 -1 -3
1532261249645728 -1 -1 5 19 -1 -2 -1 0
1532261249698586 1 -1 -59 -7 -2 -1 -3 1
1532261249713546 -2 8 24 -7 -5 -4 -4 -6
1532261249728507 -1 1 1 -2 -1 0 0 -2
1532261249765408 3 2 -9 -2 -2 3 3 1
1532261249780367 -3 -4 10 2 3 1 -1 -1
1532261249840208 8 -6 -18 -2 0 3 4 27

1532261249916005 -11 -1 23 3 0 95 -7 -73
1532261249945925 -16 -53 13 8 1 -11 1 -5
1532261249969861 -5 4 -3 -7 2 -7 -1 -9
1532261250027706 -12 45 28 14 6 -40 37 11
1532261250042666 29 -31 -2 1 -6 -62 37 32
1532261250103503 7 -70 -4 1 -7 5 -28 -44
1532261250157372 -9 7 11 1 -1 -4 5 1
1532261250238156 -3 -4 7 -8 0 -2 -3 -1
1532261250291014 -1 -2 -3 -8 -2 -1 -2 -3
1532261250335894 0 8 36 -12 -8 2 -1 -1
1532261250380774 -1 2 -2 3 4 2 -2 1
1532261250428655 -1 -2 -8 2 0 1 1 -3
1532261250508432 1 7 -36 15 2 1 1 1
1532261250524390 3 5 -16 -3 1 0 0 1
1532261250620134 0 -2 13 -2 -1 0 0 -1
1532261250651051 -2 -2 5 -2 1 1 0 -2
1532261250792673 2 4 0 18 7 0 0 0
1532261250845532 3 14 2 -10 -7 -4 0 2
1532261250890411 0 3 -18 -13 -4 -1 1 0
1532261250958256 -1 0 3 -4 -3 -1 -2 -1
1532261251228533 2 2 1 -4 1 1 -1 -2
1532261251303332 15 14 2 -4 -3 -3 1 2
1532261251363174 -44 10 -1 -5 0 2 0 -2
1532261251393093 -4 -35 1 -4 -1 0 0 3
1532261251437973 -13 35 7 1 -1 1 -3 -10
1532261251512773 1 4 -3 0 -2 0 -1 -1
1532261251544687 -7 6 -1 1 -3 -2 0 -3
1532261251611525 1 11 -4 -3 -1 -2 -3 -4
1532261251678331 -5 -11 1 0 -1 1 -1 0
1532261251715232 2 1 2 2 2 1 -1 1
1532261251783050 -1 -4 -4 0 -1 -2 -2 -1
1532261251805989 0 8 -2 0 -3 -5 -3 -1
1532261251835909 0 15 0 -1 1 1 -1 0
1532261251880789 -2 4 0 2 -3 -3 -1 -1
1532261251917691 0 14 -1 3 5 4 0 1
1532261251978527 3 -6 1 2 -9 -1 0 0
1532261252090229 -1 -16 0 3 -3 -2 -1 -2
1532261252121146 2 -83 -10 -2 10 1 2 -1
1532261252151066 -7 -66 -14 -11 5 -3 3 -4
1532261252173008 -1 50 -1 2 0 -6 -70 -7
1532261252202928 8 -24 -14 -20 5 0 -18 -1
1532261252240826 10 51 3 -20 -9 -7 0 2
1532261252315626 17 114 4 -21 21 1 -32 -3
1532261252360506 -8 -3 -13 6 8 1 1 -8
1532261252451264 -9 19 9 -2 2 3 22 2
1532261252465227 -10 -78 1 -10 -12 -16 45 11
1532261252505119 -4 80 -3 2 -2 3 12 2
1532261252526064 13 -33 42 10 1 2 -13 9
1532261252562965 -3 -55 2 -2 3 7 1 -4
1532261252593882 -5 -37 3 -6 0 0 29 -15
1532261252652725 -3 -55 2 -2 3 7 1 -4
1532261252675664 -5 -37 3 -6 0 0 29 -15
1532261252705584 4 0 22 11 5 2 1 2
1532261252743483 -10 16 9 1 0 5 20 7
1532261252773402 -6 85 11 -1 -8 -11 -5 1
1532261252833241 7 80 33 9 5 7 12 -14
1532261252848201 -9 19 -13 -4 -3 1 -21 -34
1532261252878122 1 -30 -7 -7 -4 -4 7 1
1532261252908042 -2 -26 13 0 -1 0 7 21
1532261252960901 -11 -10 6 -4 -5 -4 -31 -15
1532261253020740 15 53 18 4 4 -1 -10 -31
1532261253080580 2 17 7 -1 1 4 26 32
1532261253133439 -21 -23 -44 -3 2 0 19 -37
1532261253178319 2 17 10 -1 -4 -9 -30 45
1532261253246138 -1 -5 27 1 -6 -11 -32 -18
1532261253312959 -2 -19 5 0 0 -1 1 1
1532261253350858 5 0 -23 4 3 2 2 1
1532261253395739 -1 20 -20 3 1 0 14 3
1532261253485497 -18 -14 11 -2 0 0 -8 -5
1532261253554314 -2 12 -65 -3 1 1 0 2
1532261253590218 20 -4 -77 -6 -2 1 -1 14
1532261253613156 -16 2 12 9 0 -17 -4 1
1532261253755787 38 -3 -22 0 0 2 11 8
1532261253815615 4 -9 -7 -7 -6 15 3 -5
1532261253920335 -3 -1 11 0 1 -2 3 1
1532261254085892 14 -13 -5 -2 2 1 2 12
1532261254228510 15 -11 -4 -5 -3 -8 -14 26
1532261254356174 -1 -9 6 39 19 4 -1 8
1532261254401049 15 -59 -32 0 2 1 -2 4
1532261254416009 -25 -38 -47 -9 -3 0 2 -17
1532261254445930 -15 -5 21 11 9 7 43 33
1532261254467871 -13 -27 -11 -5 -9 0 27 78
1532261254490810 37 25 14 5 7 -2 -31 59
1532261254520729 -24 8 -3 5 5 -5 23 -76
1532261254535689 -26 32 5 5 1 11 7 37
1532261254573588 48 6 4 2 1 -1 -11 -28
1532261254603509 -21 -40 -9 -1 -2 -4 17 -25
1532261254633428 7 15 20 21 4 -3 -2 -9
1532261254664359 -17 -2 -29 -7 6 -3 1 -3
1532261254687284 12 14 28 -25 4 2 6 10
1532261254701246 -10 0 30 3 -2 -3 -4 -10
1532261254723192 9 -2 72 7 -2 1 0 -2
1532261254746129 -1 -34 -32 -11 -7 -2 -3 2
1532261254776047 -8 8 9 4 4 -1 2 6
1532261254820926 -2 -16 6 7 -2 -2 -3 -5
1532261254842868 -6 -91 6 3 -2 -1 2 -5
1532261254887748 35 -35 9 -8 -12 -6 91 21
1532261254941604 61 51 -2 5 -3 8 105 63
1532261254963545 -7 -9 -4 -2 -1 8 1 -8
1532261254978505 -9 -59 -5 8 -6 -5 -20 -18
1532261255008425 -3 -21 -2 -2 -20 0 -9 -11
1532261255038367 -17 2 -5 -5 5 3 0 -15
1532261255053317 4 10 -1 -2 -2 -3 -10 10
1532261255113157 -2 -11 -12 6 -5 8 5 -5
1532261255143077 3 -18 -41 -1 -2 -4 -2 4
1532261255158036 -5 -6 8 -20 -26 -6 -1 -4
1532261255180975 2 -5 10 15 -4 -10 -1 -2
1532261255210896 -4 -1 22 -2 -74 -15 -5 -3
1532261255225855 -3 5 48 -41 -15 5 -4 -3
1532261255247796 -2 -27 -36 -36 -13 0 0 1
1532261255277717 7 20 -31 10 11 -4 -2 1
1532261255300655 1 -1 7 -12 -14 -9 -3 -1
1532261255330575 -1 -2 -13 -8 1 0 1 -2
1532261255353514 -6 -12 1 -10 -16 -5 -1 -2
1532261255375455 6 33 13 38 10 5 2 1
1532261255398394 -9 -19 61 13 -4 -2 -1 -1
1532261255518074 -12 2 52 -4 2 3 0 1
1532261255600852 1 4 -10 -24 -10 -1 -2 -4
1532261255669669 -4 -43 -29 -4 -3 -1 -2 -3
1532261255774389 4 10 23 14 5 1 2 4
1532261255833231 -7 -30 -1 -47 -11 -4 -1 -3
1532261255863151 -2 -9 -66 -10 -7 -3 -3 -3
1532261255886090 2 6 16 18 1 -2 2 0
1532261255922991 9 8 5 15 4 -2 0 6
1532261256012751 -12 -14 -55 -17 -6 -2 -2 -2
1532261256074586 -2 4 -1 8 3 -1 -1 0
1532261256118468 11 2 -53 8 -4 -4 1 16
1532261256185290 -3 -2 11 4 1 -5 -6 -6
1532261256238148 -7 -5 -4 -5 1 14 4 -7
1532261256276047 -8 2 -17 8 1 1 -2 -4
1532261256312949 -4 -5 -33 -14 -1 3 -3 -1
1532261256335887 12 4 20 12 2 -14 0 4
1532261256365807 -4 -8 -28 -13 -6 -5 -6 -2
1532261256387750 -1 -15 -13 -6 -2 8 -1 -1
1532261256433625 -7 -8 -53 13 4 4 2 -2
1532261256478506 17 -8 -3 -2 -2 -2 1 1
1532261256508425 -1 2 -2 1 0 9 5 0
1532261256568265 -7 -1 -3 5 2 2 0 -9
1532261256607161 2 -7 -11 -1 -1 5 0 3
1532261256630100 -5 3 13 -3 -4 -3 -2 1
1532261256672986 -5 -2 3 0 1 0 1 -3
1532261256702905 -7 2 1 0 1 -1 -1 -4
1532261256732825 1 -2 -2 -1 -1 -6 -3 15
1532261256747786 -6 -3 -8 -2 1 0 0 -11
1532261256845524 -5 0 0 -2 -2 0 -2 -7
1532261256922319 -3 1 5 18 10 5 0 0
1532261256996121 -1 2 -1 -3 -2 -3 0 -2
1532261257033023 -1 3 -7 3 0 0 -1 0
1532261257145730 -2 -34 -4 -4 -6 0 -2 0
1532261257205562 0 18 54 -4 -3 0 0 -1
1532261257235481 -1 -23 -4 25 5 2 0 1
1532261257280361 -1 -1 8 0 -3 -4 -1 -3
1532261257310281 -1 -2 -25 9 2 2 1 -1
1532261257341199 -1 -16 -44 -5 0 -1 -1 0
1532261257401039 -1 -4 -3 2 3 0 -1 -3
1532261257437940 -8 -10 -29 -5 -2 1 -2 -4
1532261257462873 2 7 -9 -8 -4 -2 -2 -2
1532261257520718 -1 33 22 -1 -2 -2 -4 0
1532261257550638 2 -7 -77 12 -1 1 0 1
1532261257595519 -2 4 17 -3 -1 -2 -5 -11
1532261257663337 -8 49 67 16 1 -23 -6 -12

1532261257731156 -9 12 106 -10 -9 -14 -5 2
1532261257761076 -16 -19 -101 -19 -9 -6 -7 -19
1532261257812945 -7 -22 -6 14 3 -6 -5 -5
1532261257887737 -5 -15 -2 1 2 0 0 -6
1532261257918657 -3 -1 12 0 -2 0 -2 -1
1532261257940596 -1 1 8 -3 -1 0 1 2
1532261257963534 0 -1 7 6 0 1 0 0
1532261257993454 -2 0 8 2 1 -3 0 -2
1532261258023375 0 10 55 -2 -4 -3 -2 -1
1532261258053295 -1 -7 -19 -1 -1 -3 -2 -1
1532261258083214 0 2 11 -1 -3 -9 -3 -2
1532261258106153 1 3 20 3 0 -1 -1 1
1532261258165993 1 -2 -10 1 -2 0 1 -2
1532261258202894 -2 -8 -6 2 0 1 1 -1
1532261258271710 -1 -5 -13 -2 1 -1 1 0
1532261258300633 -2 -6 0 -4 -2 -3 -1 -1
1532261258315593 -1 1 -16 1 1 3 -1 -1
1532261258330553 -1 -2 -17 -3 0 -1 -1 -2
1532261258353492 -1 -11 -15 -5 -3 -4 0 1
1532261258405366 0 2 1 0 -3 0 -1 7
1532261258451230 0 -3 -12 3 1 0 -2 -1
1532261258473172 0 2 -2 -2 1 6 2 1
1532261258555951 -2 2 -11 -1 -1 -2 -2 -1
1532261258586868 0 1 -1 -2 -1 1 0 0
1532261258637731 0 -2 5 -2 -3 -3 1 1
1532261258699566 1 7 26 -1 -2 -1 -1 -1
1532261258750430 0 -2 -10 -1 0 -5 -2 -1
1532261258773369 -2 -3 -5 -1 2 -2 0 0
1532261258833209 -4 6 23 1 0 -1 0 0
1532261258908009 3 6 19 -2 -3 0 0 2
1532261259013739 0 0 -13 1 -1 -3 -1 0
1532261259127422 -2 -7 -36 -3 -3 -1 -1 -2
1532261259170307 3 0 10 -2 -2 -1 -2 0
1532261259253120 0 2 -1 -1 0 0 -2 -1
1532261259327921 -4 -13 -23 -5 -3 -1 -4 1
1532261259380779 2 6 13 3 -1 0 -2 4
1532261259417680 -2 5 7 0 -1 -2 -3 -1
1532261259575259 -1 8 -24 -3 -1 -2 2 0
1532261259636096 1 11 3 1 -2 2 -6 -5
1532261259747798 -4 10 22 -3 1 1 2 -1
1532261259770737 -1 -2 -22 -12 -3 0 1 0
1532261259853514 0 2 -10 -6 -5 9 5 -7
1532261259875456 -6 -7 26 14 1 -5 -4 -1
1532261259905377 1 -3 -33 1 0 -4 -2 3
1532261259958235 1 -11 39 3 3 -9 -6 4
1532261260026054 1 6 6 1 -3 -2 0 3
1532261260100854 0 -6 2 -6 -4 -1 -5 1
1532261260213552 -3 5 -6 0 0 0 -3 0
1532261260280374 0 -10 11 -4 0 2 1 -16
1532261260355173 2 7 40 -15 -2 -3 0 0
1532261260550681 -4 -10 -13 0 0 3 -2 2
1532261260662969 -5 -5 -40 -14 -4 -21 1 5
1532261260767689 -2 0 -5 1 -4 -9 0 3
1532261260813567 1 6 -20 -2 -1 2 -2 0
1532261260843486 0 6 5 0 -2 3 -1 -3
1532261260880388 -2 -3 16 3 3 9 2 0
1532261260903327 -3 3 11 -1 -2 -4 0 -9
1532261260940228 6 3 7 1 1 -5 -3 5
1532261261046943 -8 28 15 -2 -2 0 0 4
1532261261060905 -3 19 -8 0 1 1 -1 -2
1532261261090825 3 -8 -3 -3 -2 -2 2 2
1532261261112767 2 -15 -40 -1 2 2 2 2
1532261261150666 -1 4 22 5 -4 -1 0 -2
1532261261218484 0 -13 15 5 1 3 -2 -8
1532261261255399 13 35 10 -1 -2 21 -3 -16
1532261261293284 -9 0 56 -7 -14 -16 -8 -26
1532261261324201 0 12 4 -18 -4 -13 -6 -2
1532261261347140 0 -4 44 7 5 -1 -1 -4
1532261261368084 3 8 14 12 -3 -6 8 3
1532261261391023 -3 -15 1 -2 -2 -8 -2 5
1532261261517683 -16 -1 13 -4 10 7 -4 -25
1532261261570542 -2 -38 -12 -3 12 0 -3 -6
1532261261585502 -1 -12 1 3 2 0 -4 0
1532261261608442 -2 -2 6 8 -1 -4 1 -1
1532261261660302 3 6 -10 1 2 1 1 0
1532261261683241 1 -3 -10 -4 -2 -3 -2 1
1532261261802921 -4 -4 -6 -2 2 2 0 0
1532261261847801 0 16 6 8 -3 -1 0 0
1532261261885700 2 -5 -23 -2 1 0 -2 0
1532261261916617 -3 -11 -6 -2 -3 -3 -1 -1
1532261261990420 1 20 7 4 1 -1 -2 -1
1532261262020340 0 -9 -3 1 4 4 1 2
1532261262141017 0 1 -11 2 -3 5 -2 -2
1532261262215817 -1 10 -2 6 3 -1 -2 -2
1532261262230778 -1 -6 0 7 0 2 -1 -1
1532261262290617 -4 -16 -2 -5 -6 -3 0 -1
1532261262373396 0 -7 1 3 6 2 0 0
1532261262395337 -1 -5 -7 -1 -2 -1 1 -1
1532261262456194 3 3 7 1 1 0 1 17
1532261262493076 -7 0 -5 -1 -2 -4 -2 -10
1532261262688553 -17 -9 -5 -1 -1 -2 -2 0
1532261262725455 -13 -31 -3 0 -1 0 -2 -2
1532261262823193 6 16 4 0 -4 -1 -3 2
1532261262935892 -6 -4 -5 -1 -1 -1 0 -3
1532261262980771 6 21 0 0 -1 -1 1 9
1532261263012686 2 -2 -5 -1 0 -1 -3 -2
1532261263055571 1 -8 -8 -2 -1 -2 -1 -1
1532261263198190 0 2 -2 -1 -10 -1 -3 -4
1532261263251049 -1 -21 -25 7 11 3 0 2
1532261263304905 -2 34 6 10 1 -3 6 -3
1532261263377710 10 60 5 3 -19 -13 4 5
1532261263408628 -2 18 6 27 -2 17 90 0
1532261263581182 -4 -34 -22 -2 6 1 -7 11
1532261263596126 -4 -67 -31 -1 -1 -2 -18 -26
1532261263626046 -7 28 12 -13 6 4 -8 -3
1532261263679902 -5 -30 6 -6 2 -4 -41 -5
1532261263715806 10 -29 17 31 14 8 37 12
1532261263888344 -15 -32 -22 -14 -9 -10 -4 -10
1532261264001043 10 6 -5 0 7 2 -13 17
1532261264060883 13 -1 3 2 0 -4 -57 74
1532261264316200 -1 101 -20 -1 -1 1 -3 4
1532261264346121 1 -33 -77 -5 -5 -1 -1 1
1532261264361081 2 -36 17 5 2 1 1 -2
1532261264427902 -2 -9 11 0 -4 -1 -2 -3
1532261264503699 0 13 68 30 1 0 -1 1
1532261264533619 12 9 -11 -17 -3 -2 -2 -1
1532261264587476 -13 -12 -51 -8 1 6 21 -7
1532261264632355 40 -9 -3 2 -4 -2 -3 7
1532261264660280 -99 -17 -8 -25 -5 2 6 23
1532261264698179 40 2 8 17 1 1 4 -6
1532261264743059 -8 -3 10 8 3 2 3 -2
1532261264772979 12 28 -21 -10 -4 -9 -31 -7
1532261264802899 -6 -14 -8 -3 -3 -3 -3 4
1532261264855771 -6 -18 -2 -3 -3 -3 -12 -19
1532261264938537 9 -49 -5 0 -2 -1 0 -10
1532261264969460 -9 25 7 3 3 -3 -8 51
1532261265088137 6 20 4 0 -1 -2 0 -24
1532261265103097 -14 26 5 4 0 -6 -12 -7
1532261265207817 2 9 112 -19 -5 0 -2 -4
1532261265230755 -10 -21 49 21 1 0 1 -1
1532261265275634 3 5 14 -13 -8 -2 0 1
1532261265388341 -24 -62 2 8 3 4 2 52
1532261265410275 18 1 13 5 1 1 13 94
1532261265448174 21 4 -5 1 4 -12 -103 -30
1532261265478094 -55 18 5 2 2 1 0 24
1532261265501033 29 12 1 -1 2 2 15 -15
1532261265545912 -6 -24 -12 -13 -9 1 1 -7
1532261265567853 25 1 61 -22 -4 7 7 4
1532261265597773 -11 -27 -106 10 6 -2 4 -4
1532261265643650 -5 0 58 23 -1 -3 -6 -12
1532261265718450 0 -6 -19 10 4 0 -1 -14
1532261265742387 1 -8 -15 5 3 2 0 -13
1532261265778291 3 76 -24 -1 -1 1 -1 44
1532261265800232 16 8 -12 6 1 3 6 27
1532261265868051 -7 20 2 -4 -1 -1 -2 -36
1532261265897970 27 46 26 5 0 -6 -17 20
1532261265987730 18 36 -15 -2 -7 -14 43 41
1532261266018659 13 7 -2 -1 -1 27 9 60
1532261266064525 -3 73 9 1 0 -31 -8 -18
1532261266078488 -4 14 4 -2 -1 9 2 56
1532261266108408 2 -46 -2 3 4 -12 -5 -15
1532261266145309 -1 1 -9 12 18 2 2 5
1532261266168248 0 6 -16 -3 -6 -4 -3 -5
1532261266213128 2 23 25 -11 -6 -5 0 -1
1532261266236066 0 1 22 5 -6 -6 -3 -3
1532261266302888 -1 6 34 -31 -4 1 0 -1
1532261266342781 -3 -17 25 -8 3 -1 0 -1
1532261266362728 -6 -15 22 -5 -13 -3 -3 -2
1532261266490386 -3 19 -30 2 2 2 0 -2
1532261266543246 -11 -11 -8 24 7 2 -1 0
1532261266597101 -5 5 -26 9 2 -1 -1 -3
1532261266828483 -5 -22 -13 -6 -7 -2 -1 0
1532261267174557 3 -5 -14 2 0 0 -1 1
1532261267203480 0 5 -7 15 -1 -2 -2 0
1532261267346098 -30 5 24 0 2 0 2 -5
1532261267397959 -4 -9 -7 -6 0 2 1 0
1532261267435858 8 -3 13 -2 -1 6 -1 3
1532261267451816 -5 -2 -28 -2 0 -1 -1 0
1532261267480739 -17 10 18 5 1 1 1 -2
1532261267517664 -7 10 26 4 1 1 -1 -8
1532261267600458 1 1 12 0 0 -4 -3 4
1532261267623381 11 -5 7 -1 -5 -4 -1 -3
1532261267645322 3 -10 -12 -7 -1 -5 -2 -1
1532261267675242 -8 6 7 3 0 -1 -1 0
1532261267736079 -4 2 -3 1 0 1 -1 0
1532261267751039 -13 -10 -25 -4 0 4 3 -1
1532261267780960 0 -2 -7 -3 -3 -8 -3 -23
1532261267877700 17 -21 -59 -5 0 -2 -1 3
1532261267938552 16 2 -4 -3 -4 -2 -3 -2
1532261268022326 2 -4 -3 0 -2 0 0 5
1532261268074179 -2 1 12 1 1 0 0 -1
1532261268177898 5 -1 0 1 0 -1 3 12
1532261268284613 -7 -7 -15 -8 -1 0 -2 -2
1532261268305557 1 13 11 0 -1 1 0 0
1532261268335476 2 1 -35 -2 0 0 0 -1
1532261268433215 -1 8 41 2 2 4 -1 0
1532261268478095 -3 -32 -31 -14 -6 -1 -1 -2
1532261268537934 -3 -20 -21 -14 -7 -2 -3 -1
1532261268567855 3 -4 21 -10 -1 -1 -1 0
1532261268597778 -2 5 17 -3 -2 0 -1 -2
1532261268627695 0 -6 0 3 0 0 -1 -3
1532261268642654 -2 3 7 5 1 0 1 1
1532261268665593 -2 -7 7 -5 -3 -2 0 0
1532261268710474 1 5 6 -7 0 1 -1 0
1532261268772308 2 0 1 -3 0 -2 -2 0
1532261268816191 1 -3 -5 -5 3 0 -1 -2
1532261268839129 -4 -3 -26 -4 -2 -1 -3 -3
1532261268897988 -3 1 -49 -9 -3 -4 -1 0
1532261269003689 -16 -45 -40 -14 -12 35 -50 -41
1532261269018649 -8 21 -31 -6 0 31 1 -14

1532261269078489 -5 -12 26 -1 1 1 0 -2
1532261269123370 -3 -1 22 -3 -3 15 0 -8
1532261269145311 5 16 10 -3 -1 -10 -2 5
1532261269198169 -12 -12 -6 -2 0 -1 -1 3
1532261269317850 -1 -3 1 -10 -5 -3 2 0
1532261269394645 -1 0 9 1 -1 0 1 2
1532261269423567 2 3 16 -1 -2 -1 -2 7
1532261269438535 0 4 11 -2 -1 -1 1 1
1532261269483407 -1 2 15 0 0 -1 0 0
1532261269513327 -1 0 -19 -2 -1 1 -1 -1
1532261269552226 0 8 -17 0 -2 1 -3 -14
1532261269596105 -2 -3 -42 -1 -2 -1 0 3
1532261269618047 -1 0 23 -1 0 0 0 0
1532261269664922 -3 -2 5 -5 0 -1 -2 0
1532261269686868 0 0 2 0 0 -2 -1 -1
1532261269715785 -1 -6 -1 1 1 0 0 0
1532261269745726 1 0 -22 -4 0 -1 -1 0
1532261269820525 2 1 8 0 0 -1 1 4
1532261269918264 0 16 83 -2 -2 -2 0 0
1532261270015254 1 -7 -23 -6 -1 2 1 0
1532261270053153 0 0 -22 5 -1 -2 -1 -2
1532261270083073 0 7 19 5 -2 -3 -1 -2
1532261270142912 1 -23 46 3 4 4 -3 -18
1532261270159867 3 -5 6 -1 1 25 14 5
1532261270217712 1 5 -51 -7 -5 -8 -3 -6
1532261270234667 -1 -5 -3 -4 -2 -2 3 -6
1532261270255619 0 -3 -6 2 -2 19 3 1
1532261270285531 -2 -7 -11 6 -1 1 -5 -4
1532261270300491 -2 -7 -7 -6 1 5 -2 -1
1532261270330411 -5 -26 2 -3 -1 3 0 -2
1532261270375291 -1 -8 -27 -1 1 7 1 2
1532261270428150 0 7 11 -4 -1 3 0 0
1532261270482006 2 10 9 1 0 8 3 -1
1532261270517910 0 -4 -13 -1 -2 -3 0 0
1532261270562790 -2 5 5 1 0 -7 -2 0
1532261270592710 -3 -2 -1 -3 -2 0 2 -2
1532261270608667 0 -3 5 -1 0 -5 -3 -1
1532261270645585 -2 -2 6 -2 -3 -5 -3 -1
1532261270660528 -2 -4 -3 -1 0 -2 -2 -2
1532261270675488 0 1 7 1 -2 -1 -1 0
1532261270713388 0 -2 -6 0 -1 1 0 0
1532261270736342 -2 0 4 -1 -1 1 -1 -1
1532261270758267 -2 -3 -6 -4 -1 2 1 0
1532261270795169 0 0 2 0 2 -1 0 -1
1532261270826086 -1 2 -5 -1 -2 1 0 -2
1532261270862987 -3 3 7 0 -1 -1 -1 -1
1532261270930806 0 1 -2 2 -5 -2 1 1
1532261270990646 -2 -17 11 0 -2 0 -2 -1
1532261271020566 -4 11 -8 -4 -8 -6 -2 -2
1532261271050486 -3 -1 1 0 1 -1 -1 0
1532261271080406 1 -12 -8 2 -2 -2 -1 -1
1532261271118304 2 -14 -1 -6 -2 -3 1 1
1532261271133264 1 1 6 -6 -7 -1 2 1
1532261271208064 -9 -110 -49 11 11 4 3 1
1532261271231003 4 19 5 -15 -11 -6 -2 1
1532261271252944 -2 25 -19 -3 2 1 -2 0
1532261271267904 2 0 3 18 -1 2 0 0
1532261271327744 0 1 3 12 9 3 3 -3
1532261271358662 0 2 -9 -4 2 -4 -1 1
1532261271433462 0 1 -1 -5 4 -1 -1 0
1532261271493302 0 5 9 -2 3 0 -1 -1
1532261271515242 0 -13 -7 -2 -8 -3 0 -2
1532261271553142 1 5 3 3 0 -1 1 1
1532261271612981 3 2 -32 3 1 -1 0 -3
1532261271642902 -21 3 11 3 1 1 1 -1
1532261271740640 -18 0 9 0 -1 -1 4 8
1532261271793499 2 12 11 0 1 1 -2 -8
1532261271845360 -10 -23 -3 -1 -1 1 2 2
1532261271936117 -7 2 -12 -10 -16 -4 -2 -3
1532261271958059 -1 6 -7 -1 -2 -2 5 3
1532261272010918 -15 0 1 -8 1 0 5 9
1532261272070757 8 10 -4 -4 -1 1 -4 1
1532261272093696 -10 -16 -3 3 -1 -3 -3 0
1532261272168496 3 25 3 -1 1 0 -1 -3
1532261272430795 2 13 2 0 0 2 -1 3
1532261272452736 -1 9 -6 -27 -26 -3 1 -1
1532261272505603 3 -4 4 4 14 1 -57 -5
1532261272535514 -6 1 14 28 -3 -14 -29 -7
1532261272565435 -7 -39 -7 -44 -31 -6 0 -5
1532261272633253 10 75 16 -28 -53 -9 13 -3
1532261272671152 -2 -50 -11 16 12 5 68 -2
1532261272716032 -16 12 46 6 -9 1 4 -3
1532261272737973 -7 -3 35 -13 6 -7 -50 -8
1532261272782852 -21 10 -3 5 1 -21 -67 -35
1532261272805801 16 30 -30 16 14 28 79 14
1532261272843691 13 89 32 5 -11 -4 -8 -2
1532261272903531 -2 -2 -13 -14 -22 14 86 3
1532261272964368 -21 39 16 0 0 -1 37 -1
1532261273015232 8 45 -28 -3 -1 7 38 -3
1532261273068090 9 0 10 7 4 1 -79 -19
1532261273157850 1 -21 -30 -10 -6 -11 -17 -1
1532261273285509 5 12 3 -2 -1 2 14 78
1532261273300469 -4 -74 -12 -14 -5 13 82 -11
1532261273383248 -2 20 -10 0 0 3 6 -8
1532261273413168 16 86 12 1 -4 -9 -34 2
1532261273487968 10 -16 -13 2 1 -5 -2 -9
1532261273585706 3 -29 73 5 -1 -4 1 7
1532261273615626 4 -29 46 -2 0 1 6 1
1532261273788202 -3 -43 -87 -3 -3 4 -4 -9
1532261273856981 -5 6 9 30 3 -2 -2 1
1532261273983642 12 -29 41 -9 -4 -3 -12 13
1532261274089360 -20 -5 -4 20 6 2 2 6
1532261274230981 15 34 -14 -1 -6 -5 -1 8
1532261274374600 -2 -31 -21 -11 -2 -4 -10 3
1532261274508239 33 5 25 -45 2 0 1 -10
1532261274576058 -10 11 -19 66 33 10 4 3
1532261274627919 -5 15 26 15 4 1 1 0
1532261274681775 7 -3 12 0 -4 -3 -5 -8
1532261274748597 58 -42 -2 -4 -3 -8 -24 -21
1532261274815418 -72 17 4 2 0 -1 -15 -23
1532261274862293 13 -6 8 -18 -10 -3 2 30
1532261274922133 -9 -11 0 -11 4 4 0 3
1532261274951056 16 14 43 -19 -2 -1 -2 4
1532261274980975 -3 -14 56 27 -3 -1 2 -4
1532261275002930 2 7 15 8 -3 -2 -1 4
1532261275025855 -3 -7 9 -11 -2 0 0 -1
1532261275062756 21 -25 -13 -1 2 1 -1 5
1532261275093677 6 -34 13 1 0 -2 -3 4
1532261275117609 -23 -26 -9 -1 -1 4 0 -27
1532261275138554 -7 13 8 5 -1 0 1 9
1532261275205376 -45 -21 -6 -2 -4 -15 -9 -25
1532261275237290 -5 26 12 2 4 16 -1 42
1532261275250255 -15 -13 2 -3 0 0 15 38
1532261275288154 -27 -7 2 1 6 8 2 -21
1532261275347994 13 -32 1 0 -4 0 1 -37
1532261275392874 -3 -1 -1 -3 -1 1 -5 -19
1532261275437754 3 -8 -4 -5 2 2 2 -8
1532261275484628 -2 -27 -17 -49 -14 -1 -1 -2
1532261275520533 1 7 -9 -13 6 3 -1 -3
1532261275565412 -3 -27 -21 18 -5 -4 0 -2
1532261275588351 1 2 -21 17 0 0 -2 -1
1532261275655172 -1 -11 -21 15 9 4 1 0
1532261275716010 1 -4 -8 -6 12 2 -1 -3
1532261275760889 3 0 -9 7 1 0 0 0
1532261275782831 -3 5 3 17 6 2 0 -1
1532261275812751 -3 -10 24 -17 -2 -2 -3 -3
1532261275895530 -1 6 -3 -13 -3 -1 -1 -1
1532261275933428 4 -8 14 -1 3 -1 0 1
1532261275985290 -2 -16 0 1 -1 3 8 -2
1532261276038148 -11 6 -1 3 3 1 -2 1
1532261276061087 3 2 -9 18 7 5 3 -1
1532261276076047 -1 -24 -28 -2 -1 -1 -1 -1
1532261276097988 1 7 0 -5 -2 -2 -1 -4
1532261276127908 2 23 3 0 -1 -3 -1 1
1532261276157828 -6 2 73 10 4 2 0 -2
1532261276180767 -2 23 25 32 10 -1 -2 -2
1532261276225647 -13 1 -26 -5 0 -2 -1 -1
1532261276323385 -3 1 13 11 0 0 -2 -5
1532261276345327 6 -18 -22 11 -3 2 0 1
1532261276375247 7 8 35 18 3 -4 1 1
1532261276421124 -6 -7 0 4 1 2 -1 -3
1532261276555765 1 -3 -26 -3 0 3 5 0
1532261276624580 -5 -12 -27 -14 -4 -7 0 1
1532261276668463 11 3 -18 -3 -5 -5 -3 1
1532261276713343 -16 1 5 -16 1 8 2 -4
1532261276811081 6 2 10 5 6 -12 -2 2
1532261276833023 -10 9 18 1 -3 -1 -1 0
1532261276855963 -8 -1 0 1 -6 -1 -4 -2
1532261276886884 2 -3 -27 -3 -3 -7 -2 0
1532261276907822 -4 8 19 6 2 -2 -4 0
1532261276952702 8 -15 -9 -1 1 4 0 -1
1532261277013540 -10 -2 -14 4 5 6 2 -3
1532261277110281 1 2 0 0 -1 -4 -4 -2
1532261277133220 -9 5 -4 -1 0 0 0 -5
1532261277179098 1 -1 -9 -1 -2 1 1 -1
1532261277208020 3 -2 8 0 -3 -1 -9 -4
1532261277335679 0 0 2 2 1 4 1 -11
1532261277425439 6 4 -2 -3 -2 -3 -3 1
1532261277597977 0 4 2 2 -1 -2 0 -1
1532261277657817 -2 -4 5 0 -3 -4 -3 5
1532261277719652 -3 -32 5 0 -1 -3 1 -3
1532261277755557 -4 -35 15 -7 -4 0 0 -4
1532261277808414 -2 1 -16 -15 -3 -2 -3 -1
1532261277853294 2 11 -11 -15 -5 7 1 0
1532261277875236 2 8 -1 6 -3 -2 -1 1
1532261277951033 2 6 51 -3 -2 1 2 0
1532261277987934 0 1 -23 -1 0 0 0 -2
1532261278010873 -3 -11 -33 -4 1 1 0 -3
1532261278085673 2 -3 -45 0 -1 -2 0 6
1532261278123574 9 -1 -2 -1 -1 -38 4 11
1532261278168451 -21 15 -11 9 3 4 -42 -36

1532261278220313 2 -1 -59 18 5 23 -6 31
1532261278258212 -2 -23 3 -7 -1 10 2 14
1532261278281151 -3 7 0 -15 -7 -1 -4 -4
1532261278318052 -3 -18 -76 -7 -4 4 -2 5
1532261278370910 8 -11 14 12 5 21 9 4
1532261278422772 -5 -1 -6 -4 0 3 0 0
1532261278475630 -3 1 5 4 1 0 -1 -3
1532261278498569 1 6 4 1 2 0 1 1
1532261278513529 0 7 17 3 0 0 1 -4
1532261278543449 -4 8 22 -5 1 1 0 0
1532261278618249 -1 -2 -1 -2 -1 0 0 -1
1532261278641187 -3 -6 -6 -3 1 -1 0 -3
1532261278767849 -4 2 8 0 2 8 3 7
1532261278790787 3 16 64 3 1 -3 2 -2
1532261278835667 -6 -5 -6 -5 -1 -10 -12 6
1532261278873566 -8 -7 -23 -4 -1 -47 18 36
1532261278895507 2 -33 -4 -11 -12 -17 -20 72
1532261278963344 -4 -24 -49 -2 7 10 22 -23
1532261279046105 -5 -5 -25 22 0 -12 1 -11
1532261279090985 -8 -2 7 8 1 5 -2 -1
1532261279106942 7 -2 -5 5 -2 9 -6 -2
1532261279135865 -9 12 2 -3 -3 4 0 -5
1532261279195705 4 -7 -3 0 1 2 -2 0
1532261279255547 2 16 13 1 -2 0 1 -2
1532261279293443 -2 -7 -7 -4 2 -2 -3 -2
1532261279353283 -1 6 1 -7 1 -1 0 -3
1532261279390185 -1 -7 1 -2 -6 -1 0 -1
1532261279428083 1 22 1 -1 -5 -1 2 -1
1532261279570702 1 -1 2 8 7 0 0 0
1532261279615582 -1 5 0 15 -4 -1 1 -1
1532261279653481 -1 -8 4 -4 -6 2 2 -2
1532261279677430 -1 2 -1 -9 -12 -10 -4 -2
1532261279750222 -1 4 -9 -15 -3 -2 -5 -1
1532261279855946 1 11 6 -6 -5 2 -1 1
1532261279922770 1 7 3 -2 -4 -11 -3 0
1532261280005551 -1 0 1 0 -1 -3 -1 -1
1532261280095299 11 -3 -1 3 -1 -1 0 0
1532261280171096 -1 0 2 4 15 6 1 0
1532261280282798 -18 2 16 -2 -1 -3 -4 -11
1532261280305737 20 -6 -19 -1 -5 -3 3 5
1532261280433412 2 18 0 5 25 8 2 0
1532261280472292 -7 24 2 -1 -4 -3 0 -4
1532261280546093 -12 0 -4 -2 0 1 0 0
1532261280740573 -2 17 3 2 0 -1 0 1
1532261280815374 1 -47 -2 0 -4 3 1 0
1532261280883192 -3 -12 -3 4 -8 -2 2 -1
1532261280928072 4 12 3 17 27 7 -2 2
1532261280972953 -2 -74 4 3 -6 -12 -20 8
1532261281025811 8 -90 -18 2 5 3 4 8
1532261281055743 -10 -37 32 14 7 -2 0 17
1532261281070691 3 30 38 11 5 -1 -81 10
1532261281093629 7 35 34 2 1 3 5 -5
1532261281130531 7 -35 -7 2 4 1 29 55
1532261281160451 -6 23 19 -2 1 2 33 -8
1532261281222287 -2 67 -31 -18 -9 -11 -41 -5
1532261281243229 15 -65 11 14 12 8 4 11
1532261281296088 -17 -36 -15 -6 0 16 -50 -36
1532261281341965 4 -69 -34 -10 -9 1 70 22
1532261281355929 -5 -2 12 8 0 -2 31 -11
1532261281377869 2 47 -34 -10 -4 -6 -14 23
1532261281422760 -3 -35 -4 -6 0 -3 -43 6
1532261281453667 -15 -12 -50 -18 -10 -9 1 -36
1532261281505528 -7 57 26 3 3 0 -3 -9
1532261281528477 -6 -85 -12 3 3 3 -3 -13
1532261281573347 6 -7 0 5 -2 -7 -47 -26
1532261281610248 -21 4 -23 -9 -3 4 55 0
1532261281656126 5 12 17 4 1 1 -11 1
1532261281693027 17 0 25 14 3 1 -4 -12
1532261281730925 8 -17 11 5 1 1 1 14
1532261281752867 10 43 -2 2 0 -8 -87 -3
1532261281805726 16 78 8 4 5 -2 -39 -50
1532261281843624 6 -3 -10 0 2 8 18 21
1532261281882520 -1 86 0 -2 -1 10 23 8
1532261281903464 1 -98 -4 -3 -2 1 15 14
1532261281933384 -14 -120 1 -3 -1 -1 7 -25
1532261281970285 -1 39 10 -2 -2 0 5 -4
1532261281985245 1 11 11 0 1 1 11 1
1532261282008184 2 106 -39 1 1 -1 2 -2
1532261282038104 0 -94 -65 -6 -1 1 -1 -4
1532261282061042 -1 -88 57 5 4 1 0 -1
1532261282105938 1 24 29 6 -1 -3 1 1
1532261282135842 -6 13 29 1 0 0 -2 -3
1532261282165762 -14 -2 1 27 -6 -2 -1 -1
1532261282315362 9 -26 -64 -11 -1 0 -2 -1
1532261282353261 3 -2 33 0 1 0 -4 -8
1532261282383181 -34 -1 -4 0 -4 -2 1 -4
1532261282406121 -19 -8 -6 1 -2 -1 -8 -12
1532261282428061 20 -12 1 1 -4 0 -3 -1
1532261282457981 -11 -1 -37 4 1 -1 -2 0
1532261282480920 4 -8 -3 26 10 0 -2 -1
1532261282517821 -42 -8 2 -13 -9 2 -2 -6
1532261282585640 -4 9 -3 -8 5 0 1 -41
1532261282630520 -20 -33 -8 -1 1 -1 0 -10
1532261282668418 37 65 3 0 1 -9 -3 16
1532261282683378 21 11 7 4 -1 -8 11 10
1532261282720279 -20 -55 -2 2 4 4 6 -5
1532261282758178 -20 -46 -13 -6 -5 -9 4 -50
1532261282819016 -117 -14 4 1 1 -8 -4 45
1532261282915757 -7 11 17 -13 -1 0 1 2
1532261282937698 -1 20 66 -55 -15 -3 -2 -7
1532261282968615 6 -18 -34 -10 -3 1 2 3
1532261283005518 -5 6 -26 7 3 -1 -1 2
1532261283020477 0 -15 -30 -6 -3 0 -1 8
1532261283050397 -30 -5 -24 -7 -3 -1 -6 -52
1532261283110237 34 -3 19 2 -1 -3 -4 -29
1532261283133175 5 14 -18 0 1 34 13 -128
1532261283186034 32 -11 -11 -2 -2 -11 16 44
1532261283207991 96 15 8 2 4 8 13 20
1532261283252855 -32 2 -19 -54 -12 -9 -12 -8
1532261283269810 32 25 102 35 6 -1 0 13
1532261283284770 -3 -2 -28 22 13 2 -4 -15
1532261283328653 -11 -25 -27 -11 2 3 2 -3
1532261283358573 -11 13 39 17 12 3 0 -5
1532261283418413 0 15 41 0 -1 1 -1 -6
1532261283470274 9 50 10 -3 -2 -1 -6 -13
1532261283485234 -7 -62 13 -3 -2 -2 2 -10
1532261283508173 11 46 -11 -8 -4 -2 6 -28
1532261283525128 62 36 14 5 3 4 37 11
1532261283547069 74 91 34 16 25 63 71 86
1532261283575991 -107 -97 -6 3 -2 -32 -46 -37
1532261283597932 -47 -43 -16 -12 -16 -74 -72 33
1532261283636829 52 26 1 3 1 -12 -51 64
1532261283682706 83 10 0 -1 -6 -2 -15 23
1532261283748530 -25 -16 16 -21 0 4 -8 -21
1532261283785431 -3 -4 -39 -20 2 1 -5 -5
1532261283802386 1 2 15 32 4 2 -4 -11
1532261283824328 -6 -7 -13 32 11 5 -2 -6
1532261283845271 -5 -7 -23 33 9 4 -1 -2
1532261283891149 -4 -3 -9 -5 1 1 1 1
1532261283928050 -2 -12 -41 -65 -27 -7 -2 -4
1532261283950989 -4 -1 -2 -16 2 2 -2 -3
1532261283980908 -3 -2 -20 38 4 -2 2 -1
1532261284017810 0 4 -14 17 9 3 1 1
1532261284057720 -5 -1 5 34 7 3 0 1
1532261284085629 19 16 20 2 -7 -4 -1 4
1532261284108567 1 16 -9 5 -5 -5 3 -1
1532261284145469 -4 -14 34 -31 -16 -3 -1 -1
1532261284205309 -4 -9 6 -15 -6 -2 -1 -1
1532261284273127 0 -3 -14 -16 -4 3 -2 -4
1532261284318007 -3 -4 9 -7 -8 -12 -5 -2
1532261284362887 -2 6 10 -5 -7 -3 2 -2
1532261284513485 2 -7 -12 2 5 4 4 2
1532261284589287 -2 -4 5 1 3 3 0 -3
1532261284626199 0 -6 -10 9 3 4 7 2
1532261284671063 -2 4 50 47 15 -2 -15 -2
1532261284873522 -3 -10 25 -31 2 1 2 0
1532261285068002 -11 18 50 12 4 12 24 3
1532261285150780 11 -6 -8 -16 -7 -6 9 5
1532261285203639 6 -9 -17 8 2 -3 -6 2
1532261285240540 -2 5 23 -3 -2 -5 0 1
1532261285270460 -1 -11 -18 -2 -1 -3 1 -1
1532261285330300 10 0 0 -1 0 2 9 4
1532261285415073 12 -1 -2 -1 -2 -4 -9 1
1532261285472918 -3 -2 1 1 -1 -4 -19 -7
1532261285532759 2 -5 -13 0 -2 1 6 -1
1532261285570657 8 -10 -13 -1 -3 -2 1 -8
1532261285630498 5 -1 -3 -3 -1 0 3 0
1532261285728236 -5 -3 -28 -7 -1 0 1 2
1532261285870855 -2 -8 -14 8 -1 0 -2 -1
1532261286020454 0 0 -2 -4 -2 0 0 0
1532261286067329 -3 -21 -1 3 -2 -2 0 0
1532261286088273 2 29 15 -1 3 -1 -1 0
1532261286148122 -8 -8 -6 -11 -7 -1 0 0
1532261286200972 -8 6 -9 3 -2 0 -1 -3
1532261286222915 -5 -12 33 -6 -3 -3 -3 -3
1532261286267793 0 5 1 3 0 1 1 -1
1532261286305693 0 -12 -24 7 3 0 -2 -2
1532261286380492 -3 -22 26 -3 0 1 1 -1
1532261286418390 -10 23 8 0 -2 -4 -1 -1
1532261286494188 -3 0 -9 -1 0 -2 0 0
1532261286725569 -1 6 -102 17 0 -3 2 1
1532261286748508 3 -12 23 -2 3 -21 -5 0
1532261286793388 17 8 20 4 3 -1 -17 12

1532261286877163 -10 -1 -105 -21 -18 -10 -3 -9
1532261286972916 -5 1 9 12 3 -10 -5 -6
1532261287160406 -1 2 0 -2 -2 -1 0 -1
1532261287190327 -2 -12 0 -1 0 2 0 0
1532261287243185 -1 8 13 2 1 -1 2 -1
1532261287326024 6 6 7 -1 0 1 -2 -1
1532261287432739 -18 5 5 0 -2 1 -2 -20
1532261287475623 0 17 -2 5 2 1 -2 -1
1532261287520504 1 0 23 2 1 3 3 2
1532261287603282 -3 11 42 6 4 0 -1 -1
1532261287665118 2 -2 -8 6 -1 -2 -1 3
1532261287687060 -3 0 30 8 2 -4 -3 -3
1532261287709997 2 -5 11 5 8 24 44 15
1532261287730941 10 -11 -3 1 3 -21 8 16
1532261287745901 6 35 7 1 9 -3 -7 -37
1532261287797763 -7 -18 -5 -6 -1 26 -1 18
1532261287827683 -7 23 -33 6 12 -1 1 -20
1532261287925421 -1 0 17 -2 -3 0 0 13
1532261287948360 2 15 -1 4 -2 4 -1 0
1532261287970301 0 4 12 -3 0 -3 -1 -2
1532261288015181 4 11 -5 2 3 1 2 3
1532261288038120 0 1 -23 2 -8 1 0 0
1532261288053081 0 6 4 8 5 1 2 1
1532261288068040 -1 -1 -3 -5 0 -1 -1 -2
1532261288135859 1 8 10 -3 0 -3 -3 -3
1532261288150818 -3 -6 15 7 12 -3 -1 -3
1532261288195699 1 -4 -7 13 5 -1 1 0
1532261288225619 -3 4 -9 -5 3 1 -1 -1
1532261288241576 -3 -17 7 -29 -26 -7 -4 -3
1532261288271496 -2 7 -10 -7 -4 1 1 -3
1532261288308409 -2 -9 -11 -1 -4 0 -3 2
1532261288368237 0 2 -4 -12 -2 1 0 -1
1532261288451016 0 -1 -11 -18 3 0 0 -3
1532261288465976 -1 2 -6 -3 -2 -1 -2 -1
1532261288487917 2 7 -44 2 -5 -3 -3 0
1532261288518835 -2 -2 3 19 1 1 0 0
1532261288547757 0 8 25 5 17 8 1 0
1532261288585655 -1 15 22 -30 2 5 -1 1
1532261288608595 -3 -5 -9 -4 -14 -6 -2 -2
1532261288638514 -2 -21 -20 13 36 2 2 -1
1532261288705336 1 5 -18 19 2 1 0 0
1532261288751212 1 -2 -25 -26 -37 -9 -2 -2
1532261288788114 -3 -6 -58 -9 15 8 -2 -3
1532261288811054 7 2 11 -7 -22 -7 1 2
1532261288840973 -15 -1 8 3 -8 -4 -2 0
1532261288855950 -1 6 -10 -5 2 3 10 0
1532261288885853 30 1 10 0 11 0 15 8
1532261288900813 16 -3 -18 3 -8 -3 -14 5
1532261288968632 -21 -3 10 -9 0 -5 -9 -4
1532261289050413 -12 -3 1 -2 -4 7 4 0
1532261289140173 15 -13 -1 2 -1 1 -2 -17
1532261289193031 8 -26 -8 -20 -11 -5 -8 -9
1532261289245890 -34 33 3 -1 -5 -2 -5 -19
1532261289290770 3 13 -2 -7 -2 -1 -4 -13
1532261289365570 7 -3 -3 -3 -3 -2 -1 -2
1532261289403470 12 -3 -3 -2 -4 0 2 5
1532261289440370 2 -7 -1 -1 1 -2 -1 -1
1532261289478269 -2 -5 -3 -2 6 -2 -1 0
1532261289561047 -4 -4 -6 -19 6 -5 6 1
1532261289612909 -8 -33 -20 7 -16 0 -10 -1
1532261289635848 -6 -4 -2 0 4 4 12 4
1532261289651805 3 26 6 -8 -1 3 5 0
1532261289672749 1 7 -4 -2 4 5 37 2
1532261289695687 1 -61 0 6 -2 -6 -19 -9
1532261289718626 -7 -71 1 -8 -2 1 6 16
1532261289755528 -1 86 22 3 3 15 59 -3
1532261289800407 -1 63 26 1 8 3 4 8
1532261289823347 1 39 -3 3 -1 12 58 16
1532261289945020 1 -7 5 6 0 -4 9 7
1532261289972947 -13 -30 -27 -6 -4 4 31 -7
1532261290002865 -6 -11 -18 -13 -6 -4 21 -7
1532261290153463 9 25 -9 1 0 4 27 10
1532261290205325 2 15 8 -2 0 -8 -6 -2
1532261290288103 1 10 3 0 1 -1 -45 15
1532261290385842 0 -59 -7 2 -1 -1 -1 -5
1532261290505522 24 90 20 4 0 0 14 50
1532261290693021 -4 30 5 0 -1 1 1 -3
1532261290791757 -44 29 -9 5 1 -3 18 10
1532261290985238 20 -21 2 -1 -6 -9 -71 32
1532261291129852 -7 -25 -16 1 3 2 1 -3
1532261291225597 29 -38 -4 0 0 0 5 29
1532261291308375 -27 21 8 -1 2 1 0 -79
1532261291338317 -22 -6 -4 17 4 3 2 19
1532261291383174 21 14 -10 -22 -5 0 -1 0
1532261291450993 -5 17 9 7 -3 -3 3 -4
1532261291510834 -8 -88 -30 0 -2 1 1 -1
1532261291532775 -14 70 37 -9 -1 -2 0 -6
1532261291555723 12 -10 17 5 3 -2 -1 6
1532261291593620 33 -31 6 0 0 -24 3 4
1532261291630514 76 56 16 4 -3 24 -7 -64
1532261291668413 -26 28 11 5 4 1 -19 -16
1532261291690353 -120 -9 -1 0 0 -54 -41 10
1532261291713292 50 3 3 3 3 94 -43 -14
1532261291735233 -39 -22 5 1 -5 -27 7 -40
1532261291788091 -69 -33 -1 1 5 47 4 20
1532261291818012 7 4 8 0 -7 -6 13 2
1532261291840958 15 -18 -5 -12 14 5 7 9
1532261291862892 -23 16 79 -7 -6 -7 -3 -2
1532261291892812 1 1 99 12 2 -5 1 1
1532261291907773 0 19 44 -26 -18 -3 0 0
1532261291937692 -10 -22 -26 4 3 -5 -3 -4
1532261291960631 19 -10 3 4 -2 1 1 4
1532261291998529 -27 -42 4 -6 -3 4 3 2
1532261292020470 8 -10 -10 7 5 0 7 8
1532261292050391 -10 -100 -21 -2 -3 9 -24 -7
1532261292088289 -64 0 5 -5 -4 33 -4 -30
1532261292103250 20 86 19 -1 6 -36 -25 12
1532261292118209 2 -38 -1 1 4 -10 12 38
1532261292164087 -66 88 2 11 -32 56 117 23
1532261292193009 33 0 -3 -13 -26 -87 -118 47
1532261292230923 21 -54 -6 4 4 -16 6 -19
1532261292252864 -9 -27 -2 -1 12 4 5 -35
1532261292305730 0 5 3 -15 -3 33 2 0
1532261292328662 -4 -12 -3 7 0 26 9 1
1532261292358582 -5 -18 -35 -18 -17 -4 2 1
1532261292410443 1 -4 0 -4 1 -1 2 1
1532261292441361 0 -5 -34 3 -4 4 3 0
1532261292470283 -3 -6 -6 -10 4 -3 -2 -2
1532261292500204 6 1 41 32 14 9 2 4
1532261292523141 0 -4 -22 -3 -9 -8 -3 -2
1532261292605922 -1 -5 2 -38 5 1 2 1
1532261292642821 -1 -23 -43 -44 -10 -2 -3 -2
1532261292672741 -6 -2 7 -1 -1 1 -1 -5
1532261292695681 -4 -7 31 15 9 2 0 0
1532261292740560 0 6 11 -2 -12 -5 -2 -2
1532261292793418 4 37 -17 23 20 10 2 3
1532261292860240 -5 3 32 -3 -15 -6 -3 -1
1532261293047738 -2 5 38 0 8 -5 -4 -1
1532261293153456 -3 -3 -27 7 14 6 3 2
1532261293228257 -4 -15 -27 1 29 8 3 -1
1532261293288096 -3 -20 -18 5 -1 -3 -1 0
1532261293318016 -2 6 -3 -1 -7 -1 -2 -1
1532261293535434 -1 -8 0 -11 6 1 0 0
1532261293588293 -5 6 34 -3 -1 12 2 1
1532261293707974 7 0 -15 -1 -2 -4 -2 -2
1532261293730912 -3 3 72 -3 -5 -15 -4 -3
1532261293775792 8 -2 -31 3 0 1 -2 0
1532261293835632 1 3 31 8 0 2 1 2
1532261293903450 -11 4 7 0 1 0 1 4
1532261294023152 6 0 -1 -3 -1 -1 -2 -2
1532261294070027 7 -6 -23 -5 0 3 -1 -2
1532261294091968 -10 -2 -15 -1 0 0 2 7
1532261294127872 -11 -20 -22 2 1 1 -4 -4
1532261294308389 1 0 20 1 -2 0 -1 1
1532261294330329 9 -24 -14 -5 -1 -1 1 18
1532261294398148 0 9 1 1 -2 -2 -2 -3
1532261294428068 -5 6 5 7 1 1 -1 -3
1532261294457989 -7 -10 -4 0 -1 -1 0 -2
1532261294480927 2 19 8 -1 -1 -1 -2 1
1532261294502869 -5 -2 0 8 3 1 1 -2
1532261294632522 4 7 -13 8 3 -3 1 6
1532261294653466 0 -14 1 -5 -4 0 0 -6
1532261294713306 1 -4 3 -14 -6 -2 -1 0
1532261294796084 -2 12 4 -14 -8 -3 -1 -3
1532261294922747 4 6 0 0 1 0 -3 -14
1532261294953663 -9 15 32 0 -1 0 1 -5
1532261294968623 1 1 -22 -4 -2 1 1 7
1532261295005539 1 -4 9 7 3 -1 3 4
1532261295035444 -3 4 -11 2 -1 -1 -1 5
1532261295080325 -4 -14 28 -5 -5 -7 -3 -3
1532261295171082 2 1 -24 -4 -4 -2 -2 -1
1532261295202007 -2 8 1 -2 0 -1 -1 -1
1532261295237903 -2 -1 -12 -9 -2 -3 -1 2
1532261295267823 2 10 8 -5 -4 -1 -1 0
1532261295305721 3 2 12 -2 1 -1 -1 3
1532261295365562 -2 2 -7 2 -2 -2 -2 -1
1532261295434378 0 5 22 7 -1 0 -2 -9
1532261295479257 -10 17 -28 -5 1 -20 -17 -5
1532261295538102 -11 -13 23 36 15 -2 -2 -20

1532261295568020 3 -10 12 61 9 9 -7 -13
1532261295605919 -9 -9 -26 -15 -8 0 -5 -4
1532261295635839 -1 0 -8 7 3 4 -2 -6
1532261295657792 7 23 -7 3 4 3 -3 -2
1532261295680730 1 -1 11 -2 -3 -2 1 1
1532261295734586 -2 -3 18 -4 -2 0 -2 -3
1532261295800409 -2 4 14 -5 -4 2 0 0
1532261295868228 2 10 23 5 -1 -3 -2 -2
1532261295898148 0 -9 -7 -1 1 -1 2 2
1532261295936047 -6 0 -12 -1 -2 -2 -2 -10
1532261295972973 2 -4 -36 -6 -1 -1 -1 1
1532261296002868 -2 -5 -10 -1 0 0 -3 -1
1532261296049743 0 -7 -3 0 -1 0 1 3
1532261296093626 -2 -8 12 0 -1 -1 0 0
1532261296115573 1 -1 -5 -1 0 1 0 0
1532261296146485 0 -2 -8 -1 -2 -3 1 0
1532261296228266 -2 -18 -28 -9 -3 -3 -1 0
1532261296289104 1 6 8 24 9 3 3 2
1532261296312042 -7 -2 -18 -8 -3 0 -3 -4
1532261296332986 -3 -2 -11 6 0 3 0 -2
1532261296370885 -2 -9 -84 -13 -8 -1 -1 -7
1532261296400804 2 -12 1 12 6 2 1 -2
1532261296460644 -1 3 33 -3 -1 0 -2 -5
1532261296483583 15 2 -14 -4 0 12 6 15
1532261296513502 3 -20 23 -1 -5 -9 -23 -77
1532261296550405 -7 0 8 -1 4 4 -8 -11
1532261296580324 -6 1 -2 8 -2 1 -4 -6
1532261296611241 -2 10 -3 -4 -3 -5 0 3
1532261296656122 -3 -5 -8 2 -1 6 -2 -4
1532261296686055 0 9 26 2 4 -5 -1 -3
1532261296715962 0 -13 -1 4 -2 0 -3 0
1532261296737903 1 0 20 -6 -1 3 1 0
1532261296767823 1 -1 -12 1 -4 0 0 1
1532261296805739 1 40 2 -2 -2 -2 2 1
1532261296828661 1 -16 0 5 4 -1 2 3
1532261296858580 0 18 3 -5 -1 1 -1 -1
1532261296903460 1 -7 5 4 1 -1 1 0
1532261297016159 -5 10 12 4 3 6 1 1
1532261297038100 0 -14 -4 -8 -3 -3 -3 -2
1532261297135838 5 18 4 1 0 -11 -1 2
1532261297165759 -1 13 20 -13 -6 -2 -1 -1
1532261297210639 0 -22 -2 -1 1 3 0 1
1532261297241556 1 -1 -23 -3 -1 -1 1 1
1532261297293417 0 -4 -17 -6 -4 0 0 2
1532261297437034 0 1 2 14 5 -1 -1 -2
1532261297465956 0 -4 30 1 5 2 1 5
1532261297502857 0 8 -1 -9 -22 -7 -1 -2
1532261297556714 2 5 -18 -9 3 -3 -1 0
1532261297676394 0 -3 3 5 -4 -8 -2 0
1532261297690357 0 0 5 10 11 4 0 0
1532261297705316 -3 -1 3 -6 25 -3 0 -1
1532261297735236 1 -8 1 6 -9 -7 0 6
1532261297788095 3 2 -2 4 5 3 1 -2
1532261297811033 -28 -2 -11 1 -18 -3 -1 0
1532261297877855 -5 -1 -5 1 1 -1 -3 -13
1532261297915753 -6 5 -25 -2 -1 4 7 28
1532261297976590 6 -1 12 1 1 2 0 -4
1532261297998532 2 17 10 1 2 -1 1 -8
1532261298028452 10 -6 3 -1 1 1 0 6
1532261298110233 0 -4 4 2 0 -1 -3 -4
1532261298156121 -41 -15 9 1 1 1 0 -2
1532261298178052 -3 -16 -1 1 2 1 3 -4
1532261298470271 -1 -7 -3 -3 0 1 0 -6
1532261298532105 -3 -98 -11 4 -5 1 0 -1
1532261298590948 -6 26 -8 -14 -14 -6 -3 -6
1532261298657769 -8 -19 -5 -17 -5 -4 -5 -1
1532261298710627 -2 -6 -14 2 10 7 0 -1
1532261298733566 -7 43 -2 5 -3 3 25 -9
1532261298845268 -20 -4 -14 -4 -3 4 -30 -13
1532261298868206 -26 -70 -14 -1 -2 3 51 -59
1532261298913086 -12 -17 11 4 1 -7 -9 6
1532261298982899 -9 -91 -1 -7 -7 -1 70 4
1532261299108564 -3 -97 10 2 1 0 15 -30
1532261299168404 9 69 10 -2 -2 -2 -16 -10
1532261299205307 -5 -7 -8 -2 -1 2 5 -13
1532261299303044 -57 -36 -24 -19 -14 -12 -24 -25
1532261299325982 20 31 2 -7 -4 -4 -25 13
1532261299363881 -8 -53 -14 -9 -4 4 95 -1
1532261299401786 -3 -6 -17 -8 -7 2 78 11
1532261299430702 37 112 45 13 8 6 6 8
1532261299468601 13 37 8 -3 -2 -8 -34 -20
1532261299543401 -12 -12 -7 -4 -2 0 -1 -22
1532261299580302 -4 105 -11 -2 -1 0 -4 -6
1532261299663081 2 -78 23 0 -2 -10 1 2
1532261299686019 -6 -128 -18 -2 -1 -5 0 1
1532261299707961 1 -62 47 5 2 2 2 0
1532261299775779 -5 -3 -77 -6 -5 1 -1 0
1532261299843597 -12 10 -82 -13 0 -8 10 12
1532261299858558 -5 8 22 -2 -3 22 14 4
1532261299910419 -26 11 -36 -16 -10 -8 3 7
1532261299955299 30 49 79 -3 -5 -5 -3 -3
1532261300127838 -12 9 12 4 1 -2 -3 0
1532261300188675 -18 -44 -22 -12 -1 0 2 -5
1532261300278436 8 -8 -3 -3 -2 0 -2 -20
1532261300428036 0 -23 4 -9 0 -2 -1 -5
1532261300532756 -6 41 14 3 -3 -2 -7 -18
1532261300608553 17 -54 -3 6 5 -2 -5 -36
1532261300638473 -23 59 0 -2 -3 -11 -10 -47
1532261300705320 1 -39 -17 8 1 6 4 4
1532261300767129 -3 -2 4 14 7 3 0 1
1532261300796051 8 6 50 -36 -15 -2 0 -1
1532261300817992 3 -12 -8 -42 -17 -3 -2 0
1532261300885811 -8 82 60 25 5 -1 3 5
1532261300968589 -15 32 -29 -10 -9 -6 -15 -67
1532261301073310 -2 6 -4 0 3 2 0 4
1532261301095250 7 14 -2 3 -1 0 1 6
1532261301141129 -5 2 -1 -2 0 3 0 -4
1532261301163070 -8 -3 -6 -2 -3 0 -2 -24
1532261301207950 0 19 18 14 -2 -1 1 0
1532261301275768 -1 -1 11 -13 9 2 0 2
1532261301328627 -1 7 22 -16 -2 0 -2 -1
1532261301358547 -5 -8 7 26 17 5 4 -1
1532261301380488 5 -1 1 9 -4 -3 -1 1
1532261301395449 -8 -3 8 -38 -14 -1 -2 -2
1532261301435342 4 -8 -26 -13 -7 -4 0 0
1532261301478227 -3 5 -4 -17 -2 -2 -2 0
1532261301508147 -4 3 6 0 -8 -3 -2 -1
1532261301546046 3 3 -3 -8 -2 0 -3 0
1532261301567987 3 3 -12 -19 -10 -4 -2 0
1532261301584941 -1 -2 2 2 -3 -2 1 -2
1532261301597906 -6 4 7 24 7 1 2 -1
1532261301620846 2 -4 17 18 3 -2 -1 4
1532261301635806 1 -10 -2 2 -2 -1 -2 -2
1532261301650765 -8 5 24 2 -5 -2 0 0
1532261301703624 -3 2 8 -37 -16 -2 0 -2
1532261301748504 -1 -5 -27 -4 -4 -2 -4 -1
1532261301778424 -1 -14 -36 -21 -6 -4 -1 0
1532261301800366 -3 1 2 12 1 1 0 1
1532261301823304 -1 -1 5 2 4 2 1 0
1532261301883144 2 -6 -16 -1 -6 -4 -1 -2
1532261301921043 1 -8 -20 15 1 0 0 -2
1532261301957944 0 3 -1 2 2 2 2 0
1532261302085603 -3 9 14 1 1 0 -1 -3
1532261302168381 2 2 3 -6 -3 0 0 -1
1532261302205301 -1 2 14 -6 0 -1 -2 0
1532261302251159 4 -1 0 1 0 -1 1 1
1532261302273102 -13 6 11 -2 0 1 0 -5
1532261302340920 -4 5 13 5 -4 -3 -1 -3
1532261302407741 4 2 3 -4 -5 -11 -1 2
1532261302438664 0 -9 -19 -9 -6 -2 -1 -1
1532261302505481 -4 2 -3 8 3 0 0 3
1532261302528418 5 -1 -8 -27 -4 8 -5 -3
1532261302573299 3 -5 -3 5 -3 -1 -1 1
1532261302595240 0 -7 -11 -7 -1 -1 0 0
1532261302618179 -10 2 -14 0 0 2 3 -1
1532261302663059 -2 -1 3 -1 3 -5 0 2
1532261302685997 -15 3 12 5 2 3 0 -6
1532261302700957 -3 5 4 1 -1 -3 -2 -5
1532261302715917 -2 7 9 -1 -1 -2 -1 2
1532261302730878 6 -11 -11 1 -1 7 7 16
1532261302760797 0 -1 -9 -7 -4 -2 0 0
1532261302782739 -3 6 3 1 -3 -1 1 1
1532261302828630 -5 6 2 5 -2 2 1 0
1532261302865517 -6 -15 -43 5 3 10 -1 -1
1532261302910397 -4 2 7 4 2 0 1 -3
1532261302940317 6 -5 6 2 2 -1 1 1
1532261302987193 2 1 3 2 1 0 2 18
1532261303008136 -9 0 14 1 -1 1 0 -10
1532261303075954 -7 -1 -14 0 1 0 -3 -4
1532261303127816 -1 -1 -4 -2 1 0 0 -3
1532261303188655 -1 4 6 -1 -1 -1 -1 0
1532261303383133 -1 0 0 -3 -3 0 -2 -2
1532261303442973 -2 3 -11 -1 -3 1 1 -1
1532261303472893 -1 0 1 8 1 -3 -3 0
1532261303532733 -4 -12 -2 1 1 1 -2 -1
1532261303638456 -2 -6 -18 -2 -1 -3 -1 -2
1532261303675352 -3 -32 -34 -2 3 5 11 1
1532261303751149 2 4 24 4 1 1 -1 0
1532261303847890 -3 -5 49 -2 -5 -1 -1 0
1532261303892770 1 -6 -17 -2 1 1 3 4
1532261303983527 -3 -2 2 5 -2 -2 0 -4
1532261304095229 -1 -17 -37 -2 -3 0 -1 -2
1532261304141106 2 15 17 0 1 2 -1 -2
1532261304207927 -14 -26 -21 -10 -1 -2 19 -20
1532261304230866 -4 -40 -50 -11 -2 -12 -28 -5
1532261304260797 5 23 13 5 -2 1 -2 -5

1532261304282727 2 -13 -43 40 13 15 3 4
1532261304314642 -2 0 -1 -22 -6 -8 -10 -2
1532261304350546 3 14 -2 -20 -7 -12 1 2
1532261304373485 -2 -6 -23 -13 -6 -6 9 5
1532261304403405 -2 -5 -15 -13 -2 1 1 4
1532261304471234 -2 4 19 -9 -5 -7 1 -3
1532261304508125 1 3 9 0 -3 1 0 0
1532261304538044 -3 -6 -21 -3 0 4 1 -1
1532261304553017 1 1 15 -1 0 3 0 1
1532261304597885 1 -3 -20 -2 -1 -1 1 0
1532261304627859 0 -5 -15 -2 -3 -3 -4 1
1532261304673746 -8 -2 7 -1 1 -11 0 -4
1532261304710638 1 -7 -10 -6 -2 -4 0 5
1532261304725598 2 -3 -3 -4 -2 -1 0 0
1532261304793416 1 -6 2 -3 3 0 -1 2
1532261304883176 -2 -3 -13 -4 -2 0 -3 -5
1532261304914094 1 -13 -55 -3 1 -1 1 2
1532261304957977 1 -6 2 -1 -2 2 -2 -2
1532261304995876 1 -8 -4 -4 -3 -3 -1 2
1532261305017817 -1 3 19 1 -2 -2 -3 -4
1532261305062719 -2 4 36 2 0 1 -3 -2
1532261305207375 -3 -1 2 1 1 -3 0 -3
1532261305228319 1 -1 -7 -1 2 -1 -2 0
1532261305280212 1 -2 -10 -1 0 -3 1 3
1532261305303151 1 -3 -11 -3 -1 0 -2 0
1532261305326089 -1 1 1 1 -1 0 1 -2
1532261305416029 1 -1 -6 -3 -3 0 0 -1
1532261305482850 0 -4 -35 0 -2 1 -1 -2
1532261305512770 -3 1 34 1 3 1 -1 -7
1532261305550669 -2 2 23 -6 -1 -1 -1 -5
1532261305693288 -2 -4 -6 -6 -1 -1 1 3
1532261305768088 1 14 10 2 -1 0 -2 0
1532261305791026 -2 -9 -9 1 0 3 1 -1
1532261305842887 1 -1 6 -3 -1 -2 0 -1
1532261305880786 1 -8 6 -1 0 -1 -2 -1
1532261305895747 -1 -7 -18 0 0 -3 -2 -2
1532261305925666 0 1 -20 3 1 -2 -1 0
1532261305978525 0 1 7 -2 -1 1 2 -1
1532261306002469 -1 3 10 0 -1 -1 0 -2
1532261306045346 0 6 34 2 0 0 -1 -1
1532261306106102 -2 -3 -21 0 1 1 -2 -1
1532261306136013 -1 4 12 -4 -3 0 0 -1
1532261306202835 0 0 -1 0 1 -2 -2 2
1532261306263680 -1 -2 -22 -2 -1 0 0 1
1532261306293592 1 2 -13 5 0 0 -4 -6
1532261306315533 -5 3 38 8 -1 -4 -4 -4
1532261306360414 1 -1 -34 -3 1 1 2 0
1532261306375373 0 -18 -63 -14 -1 1 0 0
1532261306428232 4 -4 10 0 -1 -3 -3 1
1532261306473112 1 9 22 1 -2 6 1 -8
1532261306488072 -10 16 15 1 -2 -9 -45 -27
1532261306517992 7 3 13 -3 -3 1 22 -4
1532261306533949 2 -2 -4 2 2 3 6 -3
1532261306555890 -2 4 61 20 1 -2 -4 15
1532261306585811 4 17 38 1 -6 -3 5 11
1532261306638686 0 -13 -34 4 2 6 4 -2
1532261306803229 -1 1 0 -4 -7 -3 0 0
1532261306818189 2 -2 3 -3 2 -3 0 0
1532261307028627 1 -2 -6 -15 -4 2 -1 0
1532261307095448 3 -1 2 -11 -12 -5 -2 -1
1532261307155288 -5 -3 -6 1 9 2 0 -3
1532261307193186 4 1 -14 -12 -5 -2 -1 -1
1532261307238066 -2 -4 -11 -12 -17 -4 -2 2
1532261307253026 0 1 9 -4 -1 -3 -2 0
1532261307275965 -2 -1 -1 -1 3 3 1 -1
1532261307350781 -5 -7 -14 -4 15 -2 -3 -2
1532261307366722 25 6 -24 -1 5 0 1 13
1532261307389662 -1 5 15 -2 2 -3 0 -1
1532261307463464 1 5 8 -3 -6 -2 -1 -2
1532261307591122 47 -3 -6 0 0 0 2 11
1532261307650962 -108 -63 -22 -3 -1 0 1 -36
1532261307710802 -1 40 5 1 3 1 -3 -3
1532261307800562 50 13 2 1 1 1 3 12
1532261307868381 -5 19 1 2 1 2 -1 -3
1532261307913261 14 -1 -1 -1 2 -2 0 4
1532261307928220 -2 2 -7 -8 4 -1 0 -1
1532261307988061 -2 10 10 -7 -16 -7 -2 0
1532261308025960 1 2 4 -14 0 1 0 0
1532261308115720 -5 21 1 -4 4 -2 -3 -3
1532261308205480 -5 31 17 3 -1 -6 -6 -6
1532261308235400 3 72 -11 2 11 2 12 -21
1532261308265319 -1 2 15 1 2 1 -51 -25
1532261308280280 -1 -15 3 8 3 -2 -11 7
1532261308318178 -7 13 7 -7 -8 -10 -59 2
1532261308363058 6 -26 1 1 4 -10 11 -3
1532261308498695 -4 48 10 -6 -4 -4 -26 1
1532261308521634 -4 -28 12 7 2 0 6 -11
1532261308565517 -10 17 -24 -3 -4 -13 -62 3
1532261308595437 -4 64 15 -1 -2 -3 15 -11
1532261308633335 3 -56 4 2 2 12 24 1
1532261308746034 5 -29 -3 -5 -1 -2 14 18
1532261308782935 20 67 31 13 10 6 15 6
1532261308910594 -7 24 -1 -5 -2 0 -2 -4
1532261309023293 -20 -95 1 -7 -9 -7 -38 -38
1532261309038253 7 44 8 4 0 5 34 -12
1532261309061191 -5 -57 -19 0 2 -5 21 19
1532261309165911 6 35 -126 1 -8 0 1 5
1532261309226749 0 -60 20 -1 -5 2 1 -1
1532261309375351 -31 -4 35 17 13 -8 -31 -6
1532261309435191 20 8 -52 -9 -3 -1 15 2
1532261309488049 -26 -7 5 -15 -9 -9 -12 -3
1532261309510989 -22 -2 -38 0 6 -4 -3 -6
1532261309600748 -22 -5 -2 0 -1 -5 -9 10
1532261309630668 -43 48 -4 -3 -3 -6 -11 -3
1532261309653607 66 0 13 8 3 4 20 48
1532261309705469 24 -25 3 4 3 -4 6 -48
1532261309735397 7 5 -4 1 4 22 27 -32
1532261309826146 28 28 11 -9 -2 -1 -7 25
1532261309872024 -4 -30 -40 17 2 0 2 -1
1532261309892967 11 56 27 18 1 -3 -3 7
1532261309932860 15 29 0 15 4 -2 -3 -6
1532261309952807 15 42 4 -6 2 -1 -3 2
1532261309983723 6 5 9 8 2 0 -3 -24
1532261310013644 -21 -35 3 9 5 3 10 98
1532261310050546 0 -47 12 3 -1 -3 4 61
1532261310148284 23 -6 0 -1 -2 1 28 -35
1532261310164242 -2 17 -1 0 -3 -10 -22 19
1532261310186189 -17 -63 3 0 -1 -7 -16 -12
1532261310208125 9 10 20 -48 -11 -1 9 11
1532261310231063 0 24 -12 28 -2 -2 -4 -4
1532261310260983 -1 -4 -63 -30 -9 -3 -5 -1
1532261310297884 21 -1 76 8 -1 4 2 1
1532261310320823 14 19 -34 47 6 3 1 4
1532261310342764 -3 -14 31 -37 -2 -1 1 0
1532261310433521 -21 78 19 -3 1 3 0 -12
1532261310448481 -28 36 3 -3 -6 -2 -1 -14
1532261310470423 -21 -55 -25 -11 -15 -17 2 -18
1532261310485383 -98 52 -11 -10 -7 12 -5 -32
1532261310523282 27 -6 7 16 21 14 1 -16
1532261310561191 -30 -33 -12 -1 3 -6 -4 -50
1532261310576140 24 55 4 -3 -3 10 -14 -79
1532261310591117 24 16 -1 1 -4 -46 2 -18
1532261310665900 -10 -7 -3 -2 1 12 4 0
1532261310695820 -15 0 1 5 -4 1 -5 -1
1532261310740700 0 10 18 10 -4 0 1 0
1532261310763639 -7 -31 20 26 17 4 3 -1
1532261310785580 4 4 10 3 -4 -2 -3 3
1532261310808533 -1 19 -9 -12 -2 -3 -2 -2
1532261310860380 -3 -9 -8 61 6 -2 1 -1
1532261310883318 -5 -5 -10 36 0 -1 -1 -1
1532261310937175 7 16 -34 -34 -2 0 1 2
1532261310958119 -2 -3 23 16 9 0 0 0
1532261310988038 3 -3 -13 -3 5 0 0 1
1532261311010978 1 7 -2 -8 6 3 -1 0
1532261311025937 5 13 55 34 -10 -7 -3 -1
1532261311047878 -4 -10 -27 -25 -5 -2 -2 0
1532261311070818 -1 4 -11 42 9 1 -1 -3
1532261311100737 -3 -1 -20 -16 -7 -2 -1 -3
1532261311138635 -5 -16 -12 8 1 0 1 -1
1532261311213436 12 22 -17 -26 -5 -13 -1 6
1532261311252332 -3 -18 -20 3 -1 -3 -2 -4
1532261311275271 0 -3 0 13 9 4 0 -2
1532261311318155 -5 -1 -19 -50 -15 -2 0 -2
1532261311341095 -6 -12 -18 -9 -6 -1 -3 -3
1532261311371014 4 13 3 3 -3 -2 1 -1
1532261311460775 -4 -3 3 19 -1 0 -2 -4
1532261311490694 -1 10 7 2 -1 0 -3 -1
1532261311633313 -3 7 -1 4 -4 -1 1 -1
1532261311655263 3 4 25 -5 -2 -3 0 0
1532261311782913 -1 5 12 4 -1 -2 -2 1
1532261311806849 -1 -5 -15 14 3 1 1 0
1532261311857713 1 4 40 -2 -2 -1 -3 -2
1532261311903591 1 4 10 -1 -3 -4 -1 1
1532261311918550 -4 3 -14 3 -1 0 0 2
1532261311970412 2 -5 -5 3 -1 0 0 -1
1532261312023271 -2 2 11 -4 -2 -1 0 1
1532261312121009 11 -31 -8 -2 -2 3 -3 3
1532261312150928 -6 -20 1 -3 -2 2 1 2
1532261312172870 -9 -7 8 3 2 -2 0 -7
1532261312195809 -6 2 -2 0 -2 -8 -7 -15
1532261312225729 -6 2 3 -3 -2 4 10 5
1532261312323468 -4 5 -3 -2 0 -2 -5 -27
1532261312428187 -4 0 -10 -3 0 -1 0 -1
1532261312547868 2 -8 -6 -2 -2 1 0 3
1532261312645606 -1 -4 5 -1 -1 1 2 3
1532261312720406 3 2 9 2 -2 -1 0 0
1532261312773265 0 -3 -6 -2 -18 -9 -2 -2
1532261312833116 1 7 -25 1 0 -1 1 -1
1532261312892945 1 8 5 -1 -3 -4 -2 -1
1532261312916881 -1 21 -29 -2 0 -2 -3 -2
1532261312945803 -2 -14 -4 -19 -3 0 -1 1
1532261312976721 0 -11 -28 2 0 1 -1 -1
1532261313005643 1 -2 24 3 -8 -4 0 0
1532261313065483 -1 -8 8 -13 -1 2 2 1
1532261313095403 3 -14 -12 -10 0 -1 -1 -1
1532261313110363 -2 0 11 1 -1 1 0 0
1532261313148262 0 -4 -28 -2 -2 -2 -1 0
1532261313194139 -1 20 19 0 1 0 0 0
1532261313208102 1 -8 13 -2 -2 -1 -1 -1
1532261313246001 -1 -6 -1 1 -1 -1 0 0
1532261313320801 -4 -24 -45 -10 -4 -1 0 -1
1532261313342742 -3 6 10 1 0 -3 -2 4
1532261313440481 -3 -5 -2 -1 -1 -1 -4 -1
1532261313472395 1 3 -2 2 -1 -2 -1 0
1532261313493339 1 -34 -1 11 7 2 0 2
1532261313538240 4 13 5 -2 -2 0 1 -3
1532261313576118 -2 -2 3 -2 -2 -1 -1 0
1532261313650918 -2 -15 -46 0 0 15 -28 -70
1532261313672859 -24 -16 -43 -11 -9 -14 -3 -48
1532261313688817 19 49 22 2 -1 10 19 2

1532261313763617 0 -28 75 -11 -1 0 -6 10
1532261313793537 -1 -14 21 -17 -3 2 1 13
1532261313823457 -6 8 -8 -3 0 2 1 10
1532261313860357 6 3 30 0 1 2 0 -1
1532261313905237 6 5 0 -5 -1 -4 1 2
1532261313966075 -1 4 6 0 -1 -4 -2 -3
1532261313988016 -2 0 6 2 0 0 -1 -1
1532261314025914 0 11 53 1 -1 1 -2 -2
1532261314070795 2 7 -7 2 1 -2 0 2
1532261314092736 6 -2 5 -2 1 -2 -1 0
1532261314153585 -5 2 4 -1 -2 0 0 -5
1532261314228374 2 15 -5 -3 0 -1 0 3
1532261314288214 -2 3 10 0 1 1 0 -1
1532261314311165 -2 -1 -16 -1 -1 -1 -1 1
1532261314333093 0 -6 -8 2 0 0 0 -4
1532261314363013 0 3 18 0 -2 2 0 1
1532261314392934 -1 4 -16 -2 0 0 -2 -1
1532261314475712 0 7 36 -1 -2 -2 -2 0
1532261314505633 0 2 8 -2 0 0 4 11
1532261314528577 -2 9 -3 -1 -2 -2 -2 -6
1532261314573450 1 2 18 0 1 -2 -2 -3
1532261314610353 0 11 6 0 0 -2 -1 3
1532261314671190 -2 -5 -7 -1 2 -2 -2 0
1532261314708092 -1 -9 7 -1 -1 1 -2 1
1532261314738011 -4 4 5 -1 -1 0 -1 -1
1532261314767931 1 -5 -15 -1 1 0 1 1
1532261314797851 -3 -1 -14 0 -1 0 -1 -1
1532261314827771 2 -5 -5 1 1 -1 1 2
1532261314858688 2 -8 -2 2 2 -3 -2 -2
1532261314882624 -1 -2 6 -2 -2 1 0 0
1532261314903568 -2 -10 -7 -4 -2 -1 0 -3
1532261314918529 3 -2 -2 -3 -1 -2 -1 -1
1532261314948448 -1 6 6 -2 -2 -1 -2 -2
1532261314963408 0 4 19 0 0 0 -1 0
1532261314985834 -1 12 -2 -2 -1 1 -3 0
1532261315015756 3 -6 -4 -1 -2 -1 0 1
1532261315030716 0 -2 -3 0 2 1 0 2
1532261315060635 -4 -17 -2 10 -2 -1 -2 -4
1532261315090556 31 50 -4 2 -18 -6 3 -2
1532261315128454 51 -53 -56 -7 -8 -2 -2 125
1532261315143414 0 -5 20 -2 2 2 0 -24
1532261315165355 -18 10 12 5 -6 3 -4 -43
1532261315188294 -9 9 11 -7 -7 -12 -6 11
1532261315218214 -10 -11 4 6 5 -3 1 -14
1532261315233174 -8 10 23 3 -2 -3 -1 -8
1532261315315953 -6 3 11 -1 2 26 12 -2
1532261315397734 -5 7 3 10 9 1 0 1
1532261315458572 -1 -5 4 3 2 5 2 -1
1532261315480513 0 -6 12 4 -1 -1 2 -2
1532261315518411 0 5 20 7 3 1 1 6
1532261315548331 6 4 -8 -9 -3 -2 0 0
1532261315586229 6 17 -15 -7 -8 -4 -4 -1
1532261315661030 0 -5 -64 -17 -4 -2 0 0
1532261315682972 -1 2 13 -1 -2 0 1 0
1532261315705909 -19 -5 40 23 7 1 1 0
1532261315742811 -8 2 22 -18 -4 -1 -2 0
1532261315803660 1 10 25 -11 -4 -10 -1 0
1532261315870470 5 6 32 -8 1 6 3 -3
1532261315915350 -4 -3 39 9 0 -13 2 1
1532261315953249 -9 -1 -12 0 2 27 2 -1
1532261315983204 0 7 -92 7 1 -12 0 0
1532261316006150 10 11 39 -3 -1 12 2 2
1532261316028084 13 -12 -38 -14 -3 1 0 6
1532261316072966 0 -13 -27 -2 -2 2 -2 0
1532261316102885 3 14 55 14 -1 -2 -1 -2
1532261316170703 2 -12 -29 0 -1 -1 -1 2
1532261316246500 2 1 -41 -13 -2 1 3 6
1532261316260463 4 21 42 1 2 -7 -3 -5
1532261316275423 -21 -4 -127 -23 -9 -13 -3 0
1532261316320303 3 29 37 8 1 5 -2 -6
1532261316336260 -4 11 39 4 -1 4 -2 2
1532261316358201 9 1 -18 -5 -2 1 -3 1
1532261316448959 1 2 -77 -6 -3 5 0 1
1532261316553678 9 -13 -10 -3 -5 -2 3 9
1532261316590587 -2 -5 41 6 -2 7 -1 -4
1532261316613525 4 6 0 0 -1 -3 2 -1
1532261316635467 -3 -4 -24 -1 0 2 -2 -1
1532261316658405 -3 -17 21 -5 -5 -3 -3 -3
1532261316680347 1 5 8 -7 0 -3 0 0
1532261316703285 -3 -2 -37 -6 -2 -1 -3 1
1532261316748165 0 7 35 -1 -1 -7 -2 -5
1532261316786064 1 -2 -12 -1 -2 3 0 -1
1532261316808005 14 99 -65 5 1 -8 -2 5
1532261316822966 -1 -12 86 -2 0 -8 2 2
1532261316837925 -5 1 -43 -7 -4 3 -3 -17
1532261316869840 -6 -28 -12 19 3 3 -4 -3
1532261316890784 -2 9 7 0 4 8 5 -1
1532261316905744 0 9 52 -6 3 -2 2 8
1532261316950623 -6 -31 -58 -11 -6 -5 -4 -4
1532261316995504 -1 -23 -22 -7 -5 -6 4 2
1532261317018442 -1 -5 6 -1 3 -2 2 2
1532261317048363 -1 7 7 1 -11 -12 -5 0
1532261317093242 -5 -18 3 -4 1 1 2 -3
1532261317124160 1 9 5 1 -1 -1 -3 2
1532261317138122 -5 -37 -10 -2 -5 -1 -1 1
1532261317183002 3 3 5 -10 -4 0 0 0
1532261317197962 -3 3 33 -5 -3 -1 0 -3
1532261317257802 -3 -17 6 -4 -2 1 -1 -4
1532261317295701 -2 -4 15 -16 -7 -1 -3 0
1532261317340581 0 48 7 -6 -4 -3 0 -1
1532261317385460 -5 -43 -23 -3 0 0 1 -2
1532261317438320 -1 25 4 -11 -5 -2 0 0
1532261317468239 0 -19 15 -3 -1 -1 -4 -7
1532261317491178 0 -63 -23 -7 -4 1 2 5
1532261317536058 -1 -1 -4 3 1 -2 -1 0
1532261317739515 -3 -3 4 6 5 -1 -2 -2
1532261317813335 -1 -21 -1 -2 -1 0 0 0
1532261317985865 0 -2 -22 -2 -2 2 -2 1
1532261318113524 -6 2 26 -2 -1 1 1 -1
1532261318233203 -11 -3 -41 -7 -2 -17 -11 12
1532261318256143 0 2 -15 4 -2 3 11 7
1532261318360862 1 -4 0 -9 -4 -5 3 7
1532261318435663 -6 4 11 2 1 -3 -10 1
1532261318525423 1 28 3 -4 -9 -3 -3 -1
1532261318548361 4 2 -18 -3 -8 -7 -3 3
1532261318638121 -5 -14 -5 0 -2 -2 -1 -1
1532261318826617 0 34 0 -1 6 3 0 0
1532261319021096 -3 -6 2 0 -8 -2 -2 0
1532261319087919 6 0 23 1 2 -1 2 2
1532261319132799 -1 3 -1 0 2 -2 -3 -2
1532261319200617 -3 -2 12 2 2 1 0 1
1532261319381134 6 39 -1 -4 -2 -3 1 -1
1532261319403075 -8 1 -5 6 6 0 -4 3
1532261319462916 -17 -26 0 2 0 -2 -4 -5
1532261319485854 -15 -24 -4 -2 -2 0 1 1
1532261319637449 17 7 -1 -1 -4 -4 -1 7
1532261319658393 3 -10 -4 -1 -1 -2 0 -2
1532261319703272 4 -3 -3 -3 -7 -2 1 1
1532261319854868 2 3 7 -1 -2 3 3 4
1532261319882814 -2 27 -1 -3 8 -3 -4 -1
1532261319936671 6 40 9 31 -1 -4 -3 -1
1532261320010473 7 98 5 -3 -7 -1 8 2
1532261320063333 3 -2 -3 -9 -2 1 -32 1
1532261320153092 -12 -23 -21 -5 -3 -1 20 -8
1532261320190991 -23 36 -3 2 5 17 41 -8
1532261320235871 11 69 27 7 3 2 24 2
1532261320288730 19 -82 -4 6 3 8 51 45
1532261320370511 18 18 14 8 6 13 69 29
1532261320408410 -11 -23 -16 -9 -10 -11 -69 -66
1532261320491192 -18 -2 -1 5 2 1 -29 -9
1532261320625828 -1 120 -23 1 5 13 53 2
1532261320851240 -12 -2 12 -3 -5 1 -84 52
1532261320947967 2 -65 6 3 3 5 4 -25
1532261320985866 -9 2 -46 -5 -3 -4 -12 -6
1532261321024761 5 57 52 2 1 1 9 -2
1532261321075625 -3 -97 4 -4 -2 -2 -1 -3
1532261321143444 1 -31 6 4 -4 -3 0 -1
1532261321210266 8 12 67 8 1 -1 0 -2
1532261321225225 -7 0 1 -8 -5 -2 0 0
1532261321264134 -8 13 68 5 1 3 0 -7
1532261321322964 34 11 -14 10 4 12 28 5
1532261321420703 -27 -16 17 -1 -2 -4 -6 -5
1532261321488521 3 -8 16 14 -4 0 6 15
1532261321579279 12 3 20 -4 -3 -5 -16 -12
1532261321631140 0 -95 -11 5 3 -2 -3 -3
1532261321833599 21 -34 -14 29 12 3 2 -6
1532261321930340 -8 -10 2 -9 -4 -1 -1 1
1532261321991177 -1 45 -27 -10 -4 -4 -3 2
1532261322142772 15 17 5 4 -13 -1 -3 -10
1532261322163716 -1 -5 43 -100 -15 -1 2 11
1532261322200617 1 -11 -12 -31 -9 -3 -3 14
1532261322358196 -45 -18 8 3 1 1 15 10
1532261322374153 40 127 -5 -5 -3 0 -3 85
1532261322397091 -55 78 -28 -18 -21 -31 -26 -8
1532261322418043 13 43 2 6 5 0 -4 4
1532261322455942 35 46 13 7 7 -8 -14 -5
1532261322485854 23 -27 -2 4 4 4 4 89
1532261322553674 6 -28 -5 1 4 -1 16 94
1532261322650415 0 14 -18 48 22 5 -3 -5
1532261322689310 5 -19 27 -9 13 4 0 4
1532261322712249 -3 -5 1 16 9 5 0 -7
1532261322786051 -1 -35 -22 -42 -14 -6 0 0
1532261322920692 1 10 22 8 6 2 -2 0
1532261322973550 -7 4 -9 -28 -14 -6 -1 -2
1532261323100211 -1 9 40 14 5 -5 4 2
1532261323267763 -4 -8 -13 24 4 12 1 -1
1532261323340568 -1 -4 4 -14 -4 0 2 3
1532261323408388 1 2 -15 -12 -3 -4 -4 -7
1532261323423353 -6 -8 -21 -2 -3 3 4 3
1532261323486179 0 6 11 0 -6 -1 3 1
1532261323528067 1 5 19 -5 -2 -3 -2 -2
1532261323595890 -2 2 24 13 9 3 2 -3
1532261323663704 5 -2 -14 -4 1 4 2 0
1532261323730543 2 3 16 -21 -5 -2 -4 1
1532261323760446 12 2 9 5 -1 -2 0 2
1532261323805334 11 -10 -18 -12 -6 -10 -2 -1
1532261323850206 -3 -3 -15 -7 -5 -1 2 0
1532261323918024 -1 3 11 -18 -2 -1 1 -2
1532261323955926 7 -6 -6 -17 2 3 -2 -2
1532261324022745 4 -7 -2 -1 0 22 0 0
1532261324084580 2 -3 -5 3 -1 -22 -9 -3
1532261324128462 3 0 11 -4 -3 -8 -6 -1
1532261324159380 -1 -7 3 9 2 -1 0 -2
1532261324218222 11 -6 4 -4 -1 -7 -2 -2
1532261324263101 -14 1 6 4 3 5 1 -2
1532261324315961 -1 8 -8 0 -3 -8 -3 -8
1532261324345881 -4 7 1 -2 0 -1 3 -5
1532261324367821 2 2 -9 0 -3 -1 1 8
1532261324399736 -1 3 -4 -1 2 -2 0 0
1532261324540360 2 -5 -11 -1 -2 -2 -1 2
1532261324601197 -4 2 6 0 -1 -2 -3 0
1532261324773737 0 20 8 -3 0 5 1 -1
1532261324810637 4 12 11 -8 -2 -1 -1 1
1532261324893416 -5 12 40 3 -3 -2 -1 0
1532261324932313 -2 2 -16 -14 -3 1 0 1
1532261324953256 0 22 -13 -4 -2 -2 -1 -2
1532261324992152 2 12 50 14 2 -1 0 0
1532261325050994 -3 -5 5 -9 -2 -4 3 -1
1532261325102856 3 12 18 -3 2 9 8 2
1532261325149731 2 0 -46 0 0 2 3 1
1532261325172688 -4 -4 -3 0 -1 -2 -3 -3
1532261325238509 7 20 24 -2 -3 -3 0 0
1532261325269413 -6 30 0 -3 -7 -48 -18 21
1532261325328253 -23 -19 -23 -15 -18 65 33 -18

1532261325366152 -1 4 15 10 9 7 13 -6
1532261325418014 -8 -6 -17 -11 -3 -4 -7 1
1532261325440952 12 -11 -5 -12 -4 32 2 12
1532261325470871 0 8 28 7 4 4 10 -7
1532261325560632 1 -3 -13 -15 -7 -8 -1 2
1532261325598531 2 0 10 4 -1 -2 -1 -4
1532261325650414 0 -1 23 -1 -1 -5 -3 0
1532261325688313 2 2 -10 0 -2 0 0 1
1532261325703273 1 7 1 -2 -1 2 -2 -3
1532261325742169 -4 16 6 0 0 -2 -2 -1
1532261325763113 3 -5 7 0 1 17 0 -5
1532261325815972 3 -11 -35 -1 0 1 2 2
1532261325912713 -9 -13 -23 0 -1 -15 -3 -2
1532261326048350 1 -20 -24 -6 3 3 -11 2
1532261326072287 12 -3 38 1 2 3 10 11
1532261326161048 3 -7 -6 0 0 -14 -4 17
1532261326197950 -8 5 -12 -1 -1 -30 -23 -15
1532261326213907 3 12 -9 -18 -8 -7 0 -3
1532261326272751 -16 0 66 1 6 17 1 -18
1532261326295689 -1 9 11 10 2 3 -5 -21
1532261326521086 0 17 15 5 -2 1 -3 -2
1532261326565966 -1 10 -32 -12 -16 -9 -1 0
1532261326580926 0 -5 -22 3 23 8 11 2
1532261326625806 0 -5 3 -2 -25 -8 -7 -2
1532261326708585 1 9 -1 15 11 -5 -2 1
1532261326828265 -1 16 9 -9 -25 -5 -5 -2
1532261326985843 -1 1 0 12 20 6 0 0
1532261327031721 0 1 20 -16 -6 -3 -2 -2
1532261327113502 3 4 33 -19 20 7 -3 0
1532261327173342 10 9 18 -4 -16 -10 22 6
1532261327203262 47 4 71 4 5 -2 -15 -13
1532261327375801 36 50 45 9 4 1 -2 4
1532261327428672 54 76 -14 -1 9 0 1 11
1532261327503459 -8 -22 -25 -3 -1 -2 -1 -3
1532261327616157 9 0 -6 -3 1 2 -2 -3
1532261327684986 2 7 4 -1 0 0 -1 -2
1532261327750797 0 -3 6 16 2 1 2 2
1532261327840570 -1 0 -12 -2 14 0 -1 -2
1532261327915358 0 37 -11 1 11 -7 -1 -5
1532261327983176 0 96 -4 -20 -13 -1 2 0
1532261328170684 -1 -22 -16 -12 -11 -8 -25 10
1532261328268413 2 -45 -36 -12 -14 -4 69 -6
1532261328396072 4 -50 -23 -4 -4 -15 -22 34
1532261328516750 0 51 -23 2 0 0 13 -23
1532261328635432 13 -1 -5 7 7 12 22 -14
1532261328800989 -22 -4 -49 -11 -5 -15 -4 -24
1532261328867811 9 14 12 -1 -1 -1 35 52
1532261329072277 1 59 34 10 -3 7 -4 -4
1532261329094205 0 -24 22 4 3 0 -6 -3
1532261329259763 7 -8 17 0 3 -1 1 1
1532261329295667 2 2 -16 7 1 -2 -1 0
1532261329348525 5 27 36 -34 -28 -3 3 4
1532261329378445 -112 87 29 -41 -33 -8 -4 -10
1532261329491144 -22 31 -6 -9 0 3 -9 4
1532261329626781 5 -2 -15 -5 -3 -5 -5 17
1532261329679640 35 66 2 0 1 6 23 -38
1532261329723523 7 9 -4 -1 -2 -6 -15 -2
1532261329798322 -5 17 -15 9 12 1 -2 2
1532261329890076 -7 54 -7 -8 1 0 -3 -20
1532261329911021 -21 -42 -2 3 3 2 4 -2
1532261329947922 -40 -86 -11 -3 -3 -5 4 96
1532261330122456 18 16 27 -62 -17 1 4 6
1532261330165341 -7 -55 -66 -10 3 0 1 2
1532261330182296 3 -5 -42 0 -1 -7 0 3
1532261330226178 3 9 69 18 6 -5 1 21
1532261330256115 27 10 84 5 1 4 0 5
1532261330278039 8 1 63 13 5 -5 -3 -4
1532261330405699 -26 -111 -5 9 11 6 -15 -58
1532261330473517 -8 2 -3 1 0 -3 21 32
1532261330578237 59 5 2 4 0 0 -4 14
1532261330682956 -3 1 20 -22 -14 -3 0 -1
1532261330736824 -1 -14 -42 -14 -3 4 1 0
1532261330750776 -5 -16 31 -19 -13 -10 -6 -4
1532261330780695 1 -10 -81 -40 -19 -4 -3 -3
1532261330803634 -2 -23 20 -23 -23 -8 -4 0
1532261331015069 -5 -10 -12 13 6 1 -1 -3
1532261331036013 -1 27 -8 2 13 6 1 1
1532261331336210 -7 8 15 0 -1 -1 0 -3
1532261331500770 -1 3 3 18 5 3 0 0
1532261331553629 -2 4 31 7 1 0 -2 2
1532261331733149 -19 -4 -24 2 2 2 1 0
1532261331868796 -2 -5 -12 -4 0 -1 -4 -4
1532261331980487 1 -2 -2 -7 -3 -1 0 0
1532261332010407 3 -1 9 -2 -2 -2 -1 -1
1532261332086205 -3 -7 -18 -3 2 1 1 -4
1532261332108146 0 0 7 -4 -4 -1 0 2
1532261332124103 17 -10 -20 -4 -5 -2 -2 25
1532261332146044 -9 2 10 -1 -2 3 2 -8
1532261332197906 0 5 2 -1 -4 -1 0 4
1532261332340524 -7 0 -2 -2 -2 -4 -2 10
1532261332468183 -2 0 12 -1 0 -1 -1 3
1532261332498103 0 -4 -1 0 -1 -1 1 -2
1532261332679618 -1 -12 -32 -5 -1 -2 -1 -5
1532261332805281 1 16 2 0 -1 2 1 3
1532261332888060 0 20 1 1 -3 -4 -2 1
1532261332910999 -1 -3 -11 -5 -2 1 -1 -8
1532261332970839 -2 -23 -17 12 -2 -3 -3 -1
1532261333000759 1 -18 4 -2 0 1 0 0
1532261333045638 1 -5 -22 -1 -4 -3 -3 -1
1532261333120439 1 0 -11 -6 2 1 3 3
1532261333234135 -1 -3 -4 -1 1 -1 1 -1
1532261333271036 0 20 58 -4 -4 -2 1 1
1532261333368776 -6 -12 34 -10 -4 -3 -4 -5
1532261333465516 1 8 26 -2 -4 -48 2 39
