1532262393400662 -2 -5 -2 -2 -2 -34 -1 -1
1532262393447530 -2 0 -1 -1 0 1 -2 -8
1532262393490416 -3 -8 -7 -2 -1 0 -12 1
1532262393504378 -2 -6 0 -4 -2 -3 -3 -1
1532262393551253 0 -2 1 17 10 2 -1 1
1532262393557245 4 9 9 15 14 36 5 1
1532262393585162 -1 0 1 7 -7 -10 -2 -3
1532262393623062 1 -1 -5 -10 -12 -2 2 4
1532262393652981 1 0 2 6 26 18 2 1
1532262393663952 -3 -6 -7 0 -13 -11 -2 -3
1532262393690880 1 -1 -1 6 8 1 -1 2
1532262393715813 -4 -4 -3 3 -3 10 -7 -9
1532262393736757 -1 -1 -1 7 -1 -7 -11 -6
1532262393743738 3 0 1 -5 1 -2 -3 4
1532262393765680 -6 -2 -3 -6 -4 -1 16 -20
1532262393804576 -2 -1 0 -1 -4 -10 9 10
1532262393840480 -2 -1 1 -4 -14 1 2 -12
1532262393863418 -1 -3 -5 -1 -3 -27 13 35
1532262393885360 1 10 -4 -5 -10 -7 -31 12
1532262393910294 2 -2 -1 2 4 13 44 3
1532262393946197 -9 -7 1 7 5 -4 -17 -30
1532262393976122 1 -1 -7 -9 9 6 3 29
1532262394006043 -1 -2 2 10 4 21 -9 -13
1532262394044939 6 2 1 7 -20 15 15 37
1532262394082838 -7 -6 -2 -15 -4 -1 -11 -3
1532262394089829 4 -4 -3 0 -12 -14 10 16
1532262394125723 1 -1 1 2 5 -10 -6 -22
1532262394140683 -11 -4 -1 7 -11 -29 -40 -55
1532262394187558 -2 0 1 3 -16 3 -3 -9
1532262394209499 5 23 7 -1 -3 0 -91 -42
1532262394246428 -9 -10 -2 6 15 15 64 105
1532262394291297 -25 19 6 -9 -11 -21 -48 -57
1532262394346150 -2 -7 0 16 13 -2 -47 -21
1532262394367094 -1 -5 1 8 12 -16 -3 11
1532262394418955 -12 -16 -7 -20 -19 -10 37 -37
1532262394464834 -6 11 6 12 8 1 -8 -18
1532262394485777 -10 34 -1 -13 -17 -11 -63 -80
1532262394577532 8 -17 -2 4 -16 -7 -1 -10
1532262394622412 2 19 0 -12 -3 2 -23 -7
1532262394665297 5 14 5 0 -2 -3 12 -27
1532262394713169 -16 -1 -4 11 -11 -7 17 -29
1532262394734113 2 -52 -11 -30 -1 -20 -48 -14
1532262394757052 13 -7 -22 6 33 8 0 23
1532262394815895 -20 85 8 6 17 -4 -6 -27
1532262394915628 -6 -58 -4 -2 -5 12 9 3
1532262394937570 -9 9 11 12 -12 -4 2 -49
1532262394967489 -4 -8 -4 -3 -3 3 -9 -6
1532262395035307 -5 -6 -7 -8 -17 -15 -1 -2
1532262395058256 2 2 8 23 -48 -10 0 1
1532262395086172 -5 -5 -7 -11 -29 -34 -5 -3
1532262395133047 0 -1 -5 -6 -32 -38 -7 1
1532262395139030 -5 -27 -6 0 3 -31 -1 2
1532262395183911 11 22 4 5 79 -11 -6 -6
1532262395236769 -7 -25 -4 23 89 52 5 0
1532262395273681 3 17 0 -3 -15 8 0 1
1532262395311569 -15 -14 -4 8 74 19 0 -6
1532262395364428 -1 -3 -6 -23 -29 -32 -3 0
1532262395394348 4 11 7 3 -25 -14 -1 3
1532262395409312 -11 -32 -3 1 -9 3 -4 -2
1532262395454188 -2 -20 -4 -5 -5 11 1 -2
1532262395514028 2 -8 2 3 -9 2 0 1
1532262395551930 -2 6 1 0 -6 14 0 0
1532262395596807 -2 -5 -1 -1 -38 -43 3 -2
1532262395647670 3 -3 -5 -7 -29 -21 -6 -4
1532262395680582 -4 13 -3 4 0 -4 -4 -1
1532262395776326 1 -17 0 4 14 1 1 1
1532262395801260 -7 21 1 0 -31 1 0 0
1532262395828188 -2 -5 -2 -4 26 6 4 0
1532262395918946 13 -5 3 4 -36 27 3 3
1532262395988758 -1 36 6 -3 14 19 -3 -2
1532262396010700 1 -26 -6 -22 5 1 5 2
1532262396031644 -5 -8 4 19 11 11 -2 -1
1532262396077521 -3 1 -5 -15 39 -6 7 1
1532262396129383 3 -4 8 17 22 12 -1 0
1532262396174263 -1 28 -4 -6 29 -9 0 -2
1532262396264022 -5 -4 -2 5 10 11 2 1
1532262396383702 -2 5 -5 -4 23 0 0 -3
1532262396519340 -3 -6 -3 -12 11 -7 -5 1
1532262396548262 -8 -6 11 37 23 -2 1 0
1532262396641013 -2 -2 0 1 -14 -9 0 -1
1532262396706846 -2 -1 -4 -8 5 -4 -1 0
1532262396775654 0 3 1 -9 5 -5 -2 -2
1532262396857436 -2 -1 1 3 -3 1 -2 -2
1532262396893346 -1 -2 -1 0 -7 -2 -3 -2
1532262396977122 0 3 -2 -3 -1 4 3 0
1532262397098797 1 5 -4 -2 -1 33 6 3
1532262397110765 -1 -1 1 1 4 18 -7 0
1532262397186562 -1 -4 -8 -11 0 -28 -6 -6
1532262397254388 0 -5 -3 -13 8 13 2 -1
1532262397396024 -2 -1 -1 -4 -5 -14 1 -2
1532262397486781 0 0 -2 -2 -1 40 3 -3
1532262397508723 -2 -1 -1 -3 -4 -7 -2 -2
1532262397561582 -3 1 1 3 1 -7 -2 -5
1532262397644360 -2 0 -1 -1 5 7 -2 -2
1532262397719160 3 -1 -1 -1 -3 -11 -6 -2
1532262397732125 -2 -1 0 -1 -2 0 1 -3
1532262397778002 -7 -1 0 -1 -1 1 3 4
1532262397815901 -2 -2 0 0 -5 -2 0 -2
1532262397852802 -2 -1 0 0 0 1 -1 -2
1532262397898680 -11 1 1 1 4 -31 1 -3
1532262397927602 0 -1 -1 1 0 -5 -1 -1
1532262397958519 0 -2 -1 -2 0 12 4 4
1532262397996418 -2 1 -2 -2 -2 5 -1 0
1532262398040301 0 -1 0 -1 -2 2 -2 -5
1532262398153000 0 -1 -2 0 -2 -3 -3 -5
1532262398178930 -4 1 -2 0 0 2 -2 -2
1532262398235778 -3 -1 0 -3 0 -6 -2 0
1532262398294621 10 1 -1 -3 -2 -1 3 1
1532262398341495 -3 -2 -1 -1 -2 3 -3 0
1532262398356473 -4 -1 -2 -1 -2 -4 -6 -4
1532262398456190 3 2 -1 -2 1 -6 2 1
1532262398558923 -2 -2 0 -2 -2 -4 0 -1
1532262398572884 -9 -1 -1 -1 -3 -13 -8 0
1532262398618761 1 -3 0 -1 1 -1 3 1
1532262398671621 -1 0 -1 0 0 1 -1 -1
1532262398686581 -1 -2 -1 -1 -3 2 -3 -2
1532262398738464 1 -2 -1 0 -2 -6 2 1
1532262398761403 1 -1 -2 -1 -1 -3 -1 -2
1532262398783345 16 0 -1 -3 -2 -4 -2 2
1532262398799302 -8 -1 -1 0 -2 7 -2 -5
1532262398821243 -4 -2 -2 -1 -2 -9 -1 1
1532262398835205 -3 -1 -1 1 0 -5 -11 -3
1532262398881083 -5 -2 -1 -1 1 -3 0 0
1532262398912000 -4 0 -3 -4 -1 0 3 3
1532262398940923 -9 1 0 -3 -1 3 -5 -4
1532262398985802 -7 0 1 0 -1 -3 0 -2
1532262399039691 10 0 0 -2 1 21 8 0
1532262399083541 -7 0 0 -1 -1 -1 -1 -4
1532262399105483 2 -2 -2 -2 -4 0 0 7
1532262399218182 3 1 0 -3 -1 -2 0 1
1532262399264059 0 -1 4 3 -3 3 0 -1
1532262399323899 -4 -6 -8 -13 0 -1 -8 -4
1532262399361797 -3 -4 -6 -7 -7 7 1 -3
1532262399383739 -1 -1 0 4 1 -5 -1 0
1532262399406678 -2 -3 -3 -8 2 2 1 1
1532262399422635 -4 -5 -13 -26 -8 -10 0 -3
1532262399474513 1 2 1 -1 11 12 1 2
1532262399600160 -2 3 1 4 74 30 -4 -5
1532262399656017 0 34 7 0 -10 -8 -7 0
1532262399750758 -3 -27 -12 -4 -13 -50 -8 -3
1532262399758736 -1 -9 0 -4 -19 -23 -7 -1
1532262399826555 -2 -2 10 -4 -9 -22 2 1
1532262399907339 15 50 -36 6 19 10 4 5
1532262399990121 5 -12 4 -1 0 8 -3 -4
1532262400053947 8 -10 1 13 16 11 8 5
1532262400132736 -4 38 0 -8 4 7 -8 -2
1532262400223501 -2 19 3 32 54 11 10 0
1532262400359131 -1 27 13 2 1 -20 -16 26
1532262400417973 5 -33 -18 -2 3 7 21 6
1532262400485792 11 13 -4 -10 4 -4 -1 0
1532262400568571 -2 -6 3 2 9 28 -6 -2
1532262400651348 0 5 6 5 -2 -9 -4 -1
1532262400765045 -8 90 0 3 -7 1 -2 -4
1532262400807931 -3 -1 -17 24 26 32 9 1
1532262400885748 3 1 12 2 -6 -14 -13 0
1532262400936612 -16 -11 2 -1 -3 14 -9 -57
1532262401028375 0 4 1 -3 -6 -7 -19 -2
1532262401041332 8 3 -2 -6 -3 -8 26 10
1532262401071251 -7 -2 4 -6 -20 -1 7 12
1532262401146051 -18 46 2 1 20 20 15 1
1532262401227833 -2 16 -3 -10 25 -5 6 7
1532262401348509 3 6 -2 -7 -12 -17 -1 0
1532262401371448 -4 -15 -6 -9 -9 -29 1 2
1532262401394403 -2 14 -5 4 -13 -27 9 -1
1532262401430292 2 -6 -15 -21 -22 8 -8 -1
1532262401468190 -2 -4 -33 -10 -67 -1 -1 -1
1532262401507086 -3 -5 9 -5 15 5 10 -1
1532262401552963 0 1 4 19 -19 -9 -16 -7
1532262401610808 -2 -4 -3 9 39 18 3 -2
1532262401815262 0 2 1 7 -17 9 17 2
1532262401838201 0 -18 -1 -8 -36 -8 1 1
1532262401873108 1 1 -5 -5 -14 -10 5 0
1532262401896046 1 18 1 1 -9 -3 -6 0
1532262401940926 1 -12 -12 4 23 -7 7 -2
1532262401956896 0 -1 -1 -17 -62 -24 -4 -1
1532262402137401 -2 -2 -1 -3 0 -21 -6 -4
1532262402150366 0 2 0 3 33 2 -5 -3
1532262402190272 -2 -6 -1 -5 -8 -18 3 -2
1532262402211203 -3 4 4 3 -9 -5 0 -1
1532262402234142 -4 19 -2 -8 5 1 -5 -1
1532262402255085 -5 -8 -3 3 16 17 6 0
1532262402304953 0 -25 3 1 5 9 -1 1
1532262402345859 0 -4 3 1 -10 2 3 1
1532262402406692 -3 -2 -3 -9 -9 -6 -3 -4
1532262402437598 0 4 -1 5 -7 1 -1 6
1532262402451560 2 0 2 7 8 -2 -1 -4
1532262402465523 1 6 0 4 38 2 3 -2
1532262402511400 -1 -5 0 -9 -6 -9 1 1
1532262402563264 -2 2 -7 0 -1 4 -2 0
1532262402582210 1 3 2 -4 -16 -5 -1 0
1532262402626094 -1 -7 -10 -8 2 -1 2 -4
1532262402685934 -3 -4 -1 -4 -3 -3 0 0
1532262402705906 -2 36 10 -6 -4 -1 0 3
1532262402727821 -25 -50 -5 -2 -8 -4 -5 -6
1532262402751758 -6 3 -30 -20 -3 -2 0 -13
1532262402781677 -24 -68 -2 0 -7 -8 -16 -11
1532262402810600 -47 -109 -18 -10 -2 -4 7 2
1532262402828566 6 10 33 21 8 2 14 0
1532262402856478 -15 -14 20 10 -8 -60 -1 -12
1532262402903352 13 41 4 4 2 2 -4 29
1532262402946253 19 -16 -1 -4 -3 15 -5 -10
1532262402991118 9 8 1 -1 -3 -11 -8 4
1532262403021037 2 25 5 3 -3 -6 1 -8
1532262403028019 -13 19 0 -2 -2 -15 4 -26
1532262403080878 1 -12 0 -1 0 -2 -3 -6
1532262403110798 -6 1 0 -1 -2 2 2 -4
1532262403135737 3 3 5 14 10 12 -3 2
1532262403147699 -14 -4 -3 -5 -17 -32 -17 -6
1532262403178616 -2 -6 -4 -10 -7 23 6 4
1532262403193576 -4 -2 -2 0 37 48 -1 6
1532262403207539 5 2 1 0 -13 -61 -11 -9
1532262403231475 10 -1 -4 -6 6 -26 1 -8
1532262403254413 5 0 2 0 4 75 23 -1
1532262403276355 -4 -1 -1 -1 0 -43 -6 10
1532262403292312 -3 -8 -3 6 -4 -15 -15 -1
1532262403320237 -2 6 1 1 -7 -26 -7 0
1532262403375091 -4 -5 -6 -5 -3 25 6 26

1532262403382076 -3 2 3 3 2 5 -9 -10
1532262403410995 0 0 -1 -3 2 60 9 -13
1532262403433934 5 -2 0 -3 -21 -20 2 -10
1532262403501751 3 -2 -1 -1 -3 2 5 1
1532262403507735 4 -1 -2 -2 -5 -30 -11 0
1532262403537655 13 0 1 1 -2 -6 -1 -10
1532262403567576 4 0 -2 -1 -1 -12 7 8
1532262403597496 -3 -2 0 -1 -4 -46 -8 -3
1532262403615448 4 -4 -4 -3 -1 -2 9 16
1532262403638387 -3 0 0 0 1 13 -1 -14
1532262403666313 -3 -2 -2 -3 -4 8 1 8
1532262403713187 1 -3 -2 -2 0 18 22 22
1532262403719171 -5 -2 0 0 -1 -15 9 7
1532262403756086 5 0 0 -2 -4 -1 4 -8
1532262403779011 -3 -3 1 -3 1 2 -1 -10
1532262403816910 10 -3 -1 -1 0 5 -7 0
1532262403838850 2 -2 1 -1 -1 7 16 12
1532262403876749 -3 1 1 0 0 8 -9 -7
1532262403898691 -5 1 -1 0 0 -5 -2 -2
1532262403913651 -3 0 -1 -1 -1 5 6 -7
1532262403943586 2 -1 1 -1 -2 10 -2 0
1532262403973507 -6 -2 -3 -1 0 5 0 0
1532262404034344 -4 -1 -1 -2 -1 -1 -6 -6
1532262404116126 1 0 0 -1 0 0 -1 0
1532262404175966 -3 0 1 -1 -1 -16 3 -2
1532262404206899 -12 -1 1 0 -2 0 -1 -6
1532262404282711 -1 -2 -1 -1 -1 7 -1 -2
1532262404303654 -2 -1 1 1 0 2 -4 -6
1532262404333576 2 0 -1 -1 -2 -5 -3 9
1532262404379466 -1 -1 0 -1 -3 -2 3 -6
1532262404438310 2 -2 2 -1 -1 -2 -7 -2
1532262404529068 -4 0 -2 -3 -3 2 0 2
1532262404543030 14 -2 -3 -2 -4 -5 -4 7
1532262404566967 -7 0 1 0 -2 -1 -2 -5
1532262404618827 5 -4 -2 -2 -2 1 2 2
1532262404656737 0 1 -2 -3 1 1 -2 -5
1532262404677681 -9 -2 -1 1 -2 -2 -2 -5
1532262404723558 19 -1 -1 -4 -3 1 -1 0
1532262404760459 -6 0 -2 -1 -1 -1 1 0
1532262404836256 -1 -3 -1 0 -1 -2 1 -3
1532262404986854 10 -1 -3 -3 -2 -1 1 -1
1532262405075617 3 -3 -2 0 -2 -3 7 3
1532262405093578 3 -2 -4 -4 -2 6 -5 -7
1532262405165377 -7 0 -2 0 -2 1 -2 -6
1532262405280081 -1 0 1 3 -1 -12 -14 -1
1532262405315974 -1 1 1 0 -2 -4 1 2
1532262405360855 -5 -1 -2 -2 0 5 -1 0
1532262405415708 5 -3 -1 -3 -4 -2 -6 6
1532262405564310 -2 -1 0 -1 -1 1 -2 -1
1532262405586252 -7 -1 0 -1 1 11 0 -4
1532262405676014 16 -2 -3 -2 -2 3 4 -2
1532262405705932 -5 -2 -2 -2 -2 -2 -1 1
1532262405736849 12 0 -2 -3 -3 -2 1 17
1532262405840572 -5 0 2 -1 1 1 -9 -3
1532262405909388 4 -1 -3 -1 -1 -3 0 -2
1532262405930332 -2 -1 0 -1 -1 -2 -1 -3
1532262405978203 2 -1 -1 0 -3 -5 10 2
1532262405998150 3 -1 -1 0 -1 -4 -1 6
1532262406036049 0 -2 -1 -1 0 -1 2 -3
1532262406058987 1 -2 0 1 0 1 -4 -2
1532262406094892 -1 -1 -2 -2 0 -1 -6 0
1532262406141766 -8 -1 0 0 0 -1 0 -10
1532262406163707 -1 0 0 0 1 -1 -1 5
1532262406193663 -9 -2 -1 -1 -2 -1 -4 -23
1532262406230552 -6 -2 -3 -2 1 -5 6 5
1532262406262443 1 -1 -1 0 -2 -1 -5 -8
1532262406276423 0 -1 0 -2 -1 1 8 3
1532262406299345 8 -2 -1 -1 0 -2 -1 1
1532262406321286 0 1 -2 -1 -2 1 -4 -3
1532262406335248 1 -3 -1 -1 0 1 -2 -9
1532262406395090 -6 0 -2 -1 -2 0 -1 -3
1532262406410050 0 0 -1 -1 -2 1 2 0
1532262406510780 -1 0 -2 -1 -2 0 -2 1
1532262406544689 -1 -1 0 -1 4 11 -1 -2
1532262406612511 -2 -2 -2 -1 8 11 2 -1
1532262406680327 -1 4 0 -1 -1 4 5 4
1532262406696293 1 -1 0 0 -2 -3 4 -2
1532262406717228 0 2 -2 0 -1 -9 -5 -2
1532262406765100 1 3 5 -1 -17 0 -2 0
1532262406780059 -2 -2 -2 1 2 12 -2 1
1532262406837904 -3 -6 -8 0 -9 -10 -4 -2
1532262406846881 -1 2 -1 0 6 1 0 -2
1532262406868822 1 1 5 25 7 0 -1 -1
1532262406897750 -1 0 -3 -7 -5 2 2 -8
1532262406921680 -1 -2 -3 -5 7 -1 -11 3
1532262406973542 -2 -3 -3 -7 6 3 23 -1
1532262407011441 3 0 1 4 -2 1 -1 0
1532262407034379 -38 -7 -4 -7 -4 -2 -8 -35
1532262407125136 7 -1 -1 -2 3 5 15 4
1532262407161040 -8 -2 2 8 3 2 11 -14
1532262407186971 -2 -1 -1 4 -2 5 -6 -6
1532262407402395 0 -2 -3 0 -2 2 -3 -5
1532262407446278 -24 -4 -4 -22 14 0 -8 -73
1532262407581915 -12 -2 0 5 -25 -4 -37 39
1532262407620811 3 6 -2 -21 -5 -6 58 -7
1532262407664694 -7 -15 -7 -9 -1 -1 31 -20
1532262407685638 2 2 2 5 10 -10 12 3
1532262407710572 -7 -19 -4 1 5 1 -18 16
1532262407745478 1 -10 -1 11 3 5 29 -23
1532262407761451 -1 18 1 -6 -12 -5 -7 -8
1532262407809309 -1 12 9 9 3 -20 -9 -32
1532262407823284 18 3 -5 -8 6 5 -3 5
1532262407843216 -2 -19 2 -4 -9 11 -20 -17
1532262407866171 -4 -33 -15 2 0 8 21 4
1532262407889093 25 75 10 9 -12 -2 13 29
1532262407919013 -15 -13 3 13 5 3 17 23
1532262407956912 6 2 2 0 4 -5 -16 -5
1532262407971872 7 3 3 2 10 12 7 -5
1532262408008774 -7 -10 -4 -8 4 0 -2 -1
1532262408038694 -4 18 -1 -1 -6 -5 2 1
1532262408077589 -2 -26 -5 -2 2 0 -4 -9
1532262408128454 -2 -4 -5 -5 -4 -3 -1 -1
1532262408166352 0 2 1 -5 0 -5 -1 -1
1532262408196272 -3 1 -1 -2 -15 -15 -4 -3
1532262408226191 -5 -3 -3 -3 -18 25 1 -3
1532262408263094 -2 -1 -2 -7 4 20 0 -5
1532262408307974 -2 -4 -4 4 45 2 -3 -2
1532262408334901 -1 24 2 -10 -30 -11 4 3
1532262408383771 -4 -18 -7 1 47 0 1 2
1532262408422666 3 9 9 42 -42 -40 0 -1
1532262408467547 1 -24 -3 -16 -16 -20 -5 -1
1532262408511429 4 -1 6 19 -19 21 -2 2
1532262408525392 1 -4 4 9 47 16 0 -2
1532262408549328 -2 -5 11 24 -30 -18 -10 -3
1532262408563291 0 -5 -6 -4 6 -26 -2 -3
1532262408586229 -15 6 -3 -3 -4 12 2 -3
1532262408619141 -2 6 0 -5 -15 5 1 -1
1532262408630112 4 -2 -4 -18 0 -7 3 -1
1532262408707904 2 2 7 2 -10 10 1 2
1532262408727851 -3 -11 -4 -2 -31 2 1 -2
1532262408768742 -2 3 3 6 5 -5 -4 -3
1532262408803647 0 -4 2 24 17 -9 -8 -5
1532262408848528 1 -9 1 -17 -39 -12 12 17
1532262408894405 3 30 -1 -13 22 1 5 2
1532262409030043 -2 5 1 9 52 26 1 -2
1532262409102848 -3 -17 -7 -8 5 -1 4 -1
1532262409125786 1 -4 -2 -8 18 7 -3 -1
1532262409170667 1 -2 1 -3 -28 -12 -1 -1
1532262409262421 -1 -2 -2 -8 9 0 1 -3
1532262409405057 1 -4 -2 -2 4 -4 -2 0
1532262409560624 3 11 5 1 -27 -4 -10 0
1532262409651381 -2 0 -1 2 -40 -49 -5 -4
1532262409665344 0 0 3 9 24 -1 0 2
1532262409719199 2 2 0 -1 -12 15 -11 -3
1532262409749119 0 -1 -1 -2 -13 2 2 -2
1532262409771061 -1 -2 1 -1 -9 -11 1 2
1532262409788016 -2 0 1 1 1 3 -1 -2
1532262409816938 5 1 -2 1 -2 1 6 1
1532262409854836 -1 -1 -2 -1 3 -15 -5 0
1532262409890741 -1 0 -2 0 1 -3 -11 0
1532262409929637 -1 -2 0 -1 -2 -5 2 -4
1532262409951578 1 -1 -2 -2 -1 1 -3 -3
1532262410080234 1 -1 0 2 -1 -1 -3 -1
1532262410088213 0 -1 -1 -2 -1 -3 0 -2
1532262410110154 0 0 -2 0 -2 0 -5 1
1532262410146058 0 -2 -1 0 -1 -4 1 -1
1532262410155034 -1 -4 -2 -2 -1 -1 -1 -3
1532262410175978 -2 0 -1 -2 2 1 -3 -1
1532262410191945 -2 -1 -2 0 -3 0 -2 1
1532262410204901 -1 -2 -1 -2 -2 1 0 0
1532262410228837 -2 0 0 -1 -1 1 0 0
1532262410258757 2 0 -1 0 -1 0 2 -2
1532262410273734 0 -2 -1 -1 -1 -4 1 -1
1532262410310624 2 -3 1 -1 0 12 3 -2
1532262410326575 1 -1 -2 0 -1 -2 -3 -3
1532262410366468 -1 -1 -1 -2 -2 -3 -2 -4
1532262410386416 -3 -1 -1 0 -3 -3 -3 -2
1532262410411352 1 0 -2 0 0 3 1 1
1532262410456240 -1 0 1 0 -1 0 3 0
1532262410499114 -1 -1 -1 -1 0 -1 -3 0
1532262410596853 -3 -1 -1 -1 -1 -1 -4 -3
1532262410648714 0 -2 -2 -2 0 0 1 -2
1532262410737476 -1 -1 -3 -2 -2 -2 -5 -2
1532262410776373 0 -1 -1 -2 0 -3 -1 -1
1532262410814271 -2 -1 0 0 0 -1 -3 3
1532262410859151 -1 1 -1 -1 -2 -3 -2 -3
1532262410881093 -1 -3 1 0 -3 0 -5 -2
1532262411053631 -2 0 0 -1 1 -3 1 -1
1532262411084554 -2 -2 -1 -3 -1 -5 -3 1
1532262411114469 -1 1 -1 0 0 -3 2 -3
1532262411136410 -2 -2 -1 -1 0 1 -1 -2
1532262411181290 -2 -3 -3 -1 -3 1 4 0
1532262411205226 -1 0 0 0 -2 -3 -1 -1
1532262411272047 -2 -2 -1 -2 -1 -2 -10 -2
1532262411316936 -1 -1 1 0 -1 -1 0 0
1532262411353828 2 -1 -1 -1 -1 -5 1 0
1532262411421646 -1 -1 -2 -2 -1 1 5 1
1532262411445583 -3 -1 -2 0 -1 -3 2 2
1532262411459546 8 -2 -2 -2 -2 -2 3 2
1532262411512419 -2 -3 -2 -2 -3 -1 -2 -2
1532262411549306 -4 1 1 -1 0 -2 -4 -2
1532262411692922 -2 -2 -2 -2 0 4 4 -1
1532262411782682 -6 -4 -1 1 -2 -5 -1 -2
1532262411827562 -1 -1 -1 -1 -1 3 3 0
1532262411870448 1 1 -1 -1 1 -4 0 -1
1532262411879424 0 1 -3 -1 1 -5 -6 -2
1532262412105821 -2 0 -1 0 -5 6 0 0
1532262412215525 0 -1 3 -6 16 10 3 0
1532262412315257 0 11 -2 -12 -10 -1 3 -3
1532262412360137 3 12 2 8 18 15 15 6
1532262412418980 -1 -4 -7 -10 -18 -8 -2 0
1532262412607486 -1 -6 -5 -4 -18 -9 -6 -3
1532262412883738 -1 12 -3 1 -5 -5 -1 0
1532262412927620 0 -2 16 -1 19 23 -3 -2
1532262412959535 0 6 -9 4 -9 -6 -3 0
1532262412972500 5 -53 -27 5 12 4 -2 1
1532262413026356 -1 8 16 5 16 -1 -6 -2
1532262413058270 -1 -63 -23 -10 8 4 -2 -1
1532262413205876 -4 1 4 9 102 40 8 -1
1532262413304613 -8 48 -7 -4 8 -1 -2 -7
1532262413341513 -6 -58 4 3 19 35 0 -2
1532262413401353 1 20 3 9 -1 8 4 0
1532262413415316 1 -25 -9 0 -4 -10 -1 -1
1532262413439271 -3 -2 4 3 2 -2 -2 -1
1532262413485129 3 18 -5 3 1 -4 4 0
1532262413506073 -4 9 -2 0 5 45 -1 -2
1532262413521033 2 -7 -4 -2 -7 -6 -1 0
1532262413566911 -2 -7 -3 2 -1 5 0 2
1532262413635727 0 2 3 2 16 13 8 0
1532262413657668 -1 3 1 -1 -5 -8 4 0
1532262413669636 -2 2 -2 -1 7 -3 -13 -11
1532262413695579 -1 8 2 -2 -9 -19 -7 0
1532262413738452 -3 -26 -1 0 -44 8 1 -2
1532262413761391 -5 7 3 19 20 -6 -7 -5
1532262413821231 -6 -10 -4 -10 -3 3 -11 -4
1532262413851150 -4 -15 -9 -10 -32 -29 -8 -1
1532262413882068 -2 5 -2 7 -8 -13 -4 -2
1532262413980812 2 0 10 13 -96 -15 -2 0
1532262414003742 1 -3 -6 -1 53 44 26 2
1532262414023689 -5 -3 -6 -30 -19 -28 -18 -6
1532262414061588 0 0 1 -4 -26 -11 6 -1
1532262414097492 2 1 0 -13 -3 3 -14 -1
1532262414172298 -1 -2 -1 -4 -10 -16 -11 -2
1532262414219173 -1 2 -1 0 -15 -10 1 1
1532262414376752 -6 -6 -5 -3 7 28 -12 -10
1532262414465514 11 -20 -3 2 -16 -12 -2 -5
1532262414492442 -1 17 -1 -7 -28 -21 -1 0
1532262414555274 2 8 -4 3 10 9 8 3
1532262414581205 0 6 -1 -2 0 -3 4 1
1532262414600154 -8 -12 -3 2 5 -15 -2 -3
1532262414646032 -3 0 2 -1 -16 0 -6 -1
1532262414668970 -7 4 0 -2 29 -10 5 -2
1532262414714847 -3 1 -3 -5 2 -5 -2 -3
1532262414736789 -2 0 -3 -4 -11 -2 -3 -1
1532262414787653 -3 -1 -3 0 13 3 -2 0
1532262414798623 1 4 -1 -1 -4 9 -1 1
1532262414855471 -6 -16 0 -1 2 -2 -1 -1
1532262414870431 3 4 -4 -2 -3 -2 0 -2
1532262414900351 7 -19 0 -1 -2 5 5 -16
1532262414923290 -15 -4 -2 1 3 8 -2 13
1532262414946229 -24 -6 -4 0 2 -6 -2 5
1532262414962186 -21 -2 -1 2 -1 -10 -7 -62
1532262415022026 -61 -20 -6 -2 -1 8 -9 -7
1532262415067904 26 -2 -1 -1 7 15 7 18
1532262415087850 3 2 1 1 7 39 6 -11
1532262415130736 -3 -2 -4 -4 26 42 5 -57
1532262415156666 -10 -9 -7 -10 22 -25 -12 -2
1532262415245428 -10 0 -1 0 -11 2 0 -38
1532262415283331 -5 3 3 2 14 45 9 33
1532262415314245 4 -4 -3 -2 -14 9 -7 0
1532262415320228 1 1 -1 1 -9 -18 -3 -3
1532262415412981 6 -3 0 1 -2 -30 -7 30
1532262415432927 3 -1 -1 -2 3 -2 3 13
1532262415478805 3 0 1 2 1 0 2 3
1532262415531673 -4 -1 -1 -2 1 16 0 -6
1532262415561588 1 0 0 0 2 -7 -11 5

1532262415718165 -5 -1 -1 -1 -8 -30 4 -12
1532262415730133 -1 -2 0 1 2 11 6 -5
1532262415762857 -8 -1 0 1 -7 -4 0 -8
1532262415785795 13 0 -1 -3 -14 13 -1 7
1532262415877589 -5 -3 -2 -4 -7 22 -7 5
1532262415920475 -6 -1 -3 -2 -5 -11 -2 -11
1532262415976325 -1 -1 0 1 3 17 6 -2
1532262415991285 1 -3 -1 -4 -4 -8 -9 -18
1532262416026192 -1 -2 -4 -1 -4 -12 14 -4
1532262416063093 5 -1 -2 -2 0 -10 -5 0
1532262416108971 2 0 -1 0 -2 2 0 -1
1532262416122964 10 -2 -2 -2 0 3 5 9
1532262416145872 -1 -1 -2 0 2 1 4 1
1532262416176789 -3 0 0 1 1 -13 -1 -7
1532262416213690 -9 0 -1 0 1 6 -6 7
1532262416258570 -6 -2 -1 -1 -3 0 -7 0
1532262416265551 -4 -2 -4 0 -4 7 -3 5
1532262416325391 -7 0 0 1 -4 -5 2 4
1532262416349327 1 -2 -2 -2 0 5 -5 -5
1532262416410175 -1 0 -3 -1 -2 -6 -2 -7
1532262416446099 1 -2 -1 -2 -2 0 7 7
1532262416513917 -12 -1 -1 1 1 -1 -3 -13
1532262416536856 11 -5 -1 0 0 6 -2 8
1532262416565779 3 3 0 0 -2 -2 3 3
1532262416602680 8 -2 -4 -3 0 7 -4 8
1532262416625642 12 0 1 0 -1 -4 12 5
1532262416671518 -3 3 2 2 0 1 15 10
1532262416748314 -4 3 -2 0 -5 -16 -4 1
1532262416754297 17 1 -1 -1 -1 13 5 8
1532262416806158 -6 0 0 -2 -1 4 6 -2
1532262416836079 -2 7 0 0 1 7 2 3
1532262416842064 -1 -6 -2 -2 -1 4 -6 -6
1532262416888938 1 -4 -2 -1 -2 7 -1 -5
1532262416902900 7 2 1 -2 1 35 4 4
1532262416925839 -2 -8 -2 0 2 4 -6 -2
1532262416956757 -3 4 0 -2 -2 -9 -5 -3
1532262416970719 0 2 -3 -2 -1 4 2 11
1532262417047514 2 2 -2 -1 -2 13 4 15
1532262417054494 4 1 -2 -1 -3 -7 0 -5
1532262417068458 -4 0 -1 -1 -1 10 0 1
1532262417099374 -2 -1 -1 0 -3 -4 -2 2
1532262417151237 -6 1 -1 0 0 -6 -2 8
1532262417189134 -12 1 -2 -2 -3 -21 0 -102
1532262417240996 -2 1 0 0 -1 10 4 -14
1532262417301833 -12 -5 -4 -7 -6 -9 -6 -39
1532262417368655 -12 -6 -1 -1 -4 -31 -10 -92
1532262417428509 1 -12 1 -1 -1 3 0 40
1532262417519266 -40 -73 -10 -3 -4 -13 -2 -3
1532262417534226 1 13 5 0 -2 10 -5 -15
1532262417579107 8 -9 6 3 -7 8 3 30
1532262417586088 -11 35 9 1 4 -12 5 -17
1532262417630968 2 -6 2 -1 -2 -1 1 -11
1532262417667869 -14 7 -1 0 -3 2 2 -19
1532262417728706 0 -10 -2 -1 1 1 3 6
1532262417765607 3 -51 -9 -5 -4 -11 -9 -31
1532262417788546 -13 17 1 0 -1 -1 -2 10
1532262417834436 3 17 -2 -2 -2 5 7 12
1532262417848386 8 13 0 2 1 -2 0 82
1532262417931165 -9 -2 2 2 0 -6 -14 -21
1532262417968066 7 -4 2 -1 -2 -3 -6 -11
1532262418051842 -5 -17 -11 -2 1 6 10 -7
1532262418073784 -9 -2 -5 0 2 1 -3 -9
1532262418118663 -2 -5 -5 -4 -4 -8 -8 -10
1532262418141602 -4 -18 -7 2 -10 -20 -2 -11
1532262418193463 -12 -21 -2 -1 12 -4 2 -42
1532262418207426 14 5 -2 -1 -11 0 3 31
1532262418267266 1 -2 0 -1 14 5 6 -25
1532262418328110 -9 3 1 1 39 7 -14 -2
1532262418711087 -11 1 -1 -3 -36 -4 5 -2
1532262418778905 5 3 -2 -4 -10 -10 9 1
1532262418853705 6 -1 2 1 19 -15 -7 1
1532262418913546 2 -1 0 -2 0 -3 5 5
1532262418936483 -5 -2 -1 6 6 2 -3 -2
1532262419011283 10 2 1 -1 -6 2 3 13
1532262419129967 -5 -15 -5 -4 -13 -16 -25 -2
1532262419214740 1 -13 -4 1 -4 -4 -6 -18
1532262419266608 3 -7 2 0 -13 -9 3 30
1532262419394299 2 -2 -1 0 5 1 -8 3
1532262419439178 2 2 1 -1 3 9 -1 3
1532262419519963 16 0 -1 0 -3 5 4 -11
1532262419566837 -3 -3 -1 -1 -40 -19 -2 -3
1532262419633659 17 -2 -1 -3 -16 -6 -10 -9
1532262419656604 -4 0 0 -1 -1 -1 -1 1
1532262419716438 -65 0 -1 -2 9 -3 -9 18
1532262419730400 50 6 6 4 34 23 1 9
1532262419753339 5 1 -1 -2 -4 -6 -5 -13
1532262419799216 -9 -4 -5 -4 -15 3 -9 -2
1532262419813179 12 1 0 -1 0 10 0 -21
1532262419859056 -4 -2 -2 -3 -18 -7 5 2
1532262419896955 -1 -1 0 0 5 -1 6 4
1532262419918896 -1 -1 0 0 13 1 -2 1
1532262419986715 -4 -2 -1 1 18 -3 4 -7
1532262420075477 -5 -1 2 1 -12 -15 3 3
1532262420099413 18 -1 0 1 -3 2 2 9
1532262420158480 7 -1 -4 -3 10 11 9 -9
1532262420196378 3 1 0 1 8 2 -1 4
1532262420263590 -4 -2 -3 -1 5 -2 0 -2
1532262420352353 -38 1 2 1 7 -2 -2 -15
1532262420376288 1 1 1 2 16 11 -4 2
1532262420399226 13 -2 -2 -1 -7 -1 4 8
1532262420421168 -10 -19 -16 -2 20 -2 -4 -11
1532262420472072 -11 -5 -2 -2 -5 -7 5 19
1532262420482045 3 6 4 1 24 -26 1 67
1532262420518974 16 2 2 0 1 -10 3 16
1532262420563854 7 0 -1 1 18 0 -3 18
1532262420616713 1 0 1 2 22 -2 0 -5
1532262420676559 19 4 2 -1 5 7 -3 11
1532262420698500 -2 -3 0 -2 5 17 1 1
1532262420742383 -6 -1 0 -2 -10 -3 0 -4
1532262420796239 -19 2 3 2 -24 -8 -2 22
1532262420819178 0 -3 -6 -1 1 -3 1 -21
1532262420841134 24 -2 0 -1 -12 -4 0 2
1532262420885001 -3 2 1 0 -4 -3 -14 21
1532262420929882 8 21 -5 -3 -5 1 5 20
1532262420961796 37 -3 -5 -3 -5 0 7 3
1532262421021636 -31 -22 10 1 -1 -2 -11 16
1532262421034602 44 27 -4 -3 0 -1 7 -2
1532262421058538 2 -19 -2 -2 -2 -3 3 25
1532262421095439 42 35 -4 0 2 13 4 -46
1532262421119375 -14 -33 2 -1 -4 -3 10 39
1532262421179215 12 -34 7 1 -2 -2 32 -11
1532262421232073 -45 -23 -8 -3 -2 3 -8 -75
1532262421274959 49 10 -6 -5 -5 56 32 -11
1532262421321834 -10 3 6 3 1 12 13 -7
1532262421334799 22 29 5 1 -1 -31 3 4
1532262421380676 0 -7 -1 0 -5 -10 -19 -89
1532262421428549 -3 1 -1 -2 -2 -7 3 1
1532262421442536 4 9 2 -1 -2 -21 -12 -11
1532262421554212 2 0 0 -1 0 2 5 16
1532262421584132 10 -4 -6 -5 -6 -16 -22 -13
1532262421621034 -3 -9 -2 -2 -2 2 -2 0
1532262421727748 1 -3 0 -1 -4 -5 2 24
1532262421750687 6 6 2 0 0 -3 12 42
1532262421771630 5 3 -2 0 -3 -8 3 6
1532262421816512 -3 -2 -2 -1 -1 5 -2 8
1532262421839467 0 0 -1 -3 -1 3 -2 -2
1532262421885353 19 -7 -8 -2 -4 -12 0 10
1532262421897321 -8 -2 -5 -7 -5 -11 4 -4
1532262421951178 -1 1 -1 1 -31 -14 1 -2
1532262421967135 -2 -3 -1 -6 7 -1 0 -2
1532262421983092 1 -4 -5 0 14 -3 -1 -2
1532262422050941 2 -2 -7 -10 -14 -7 0 -1
1532262422095821 2 2 0 1 -19 4 1 0
1532262422110792 -7 -15 -7 -7 0 -4 0 -2
1532262422168626 -5 -5 -2 -2 -7 -2 1 -1
1532262422213506 -11 -4 -2 0 -6 5 8 12
1532262422259384 -6 2 -1 -1 0 -6 -6 -24
1532262422274343 -1 -1 -2 -1 -2 -2 -1 9
1532262422305267 0 0 0 0 -2 -8 -5 9
1532262422328206 -1 0 -1 -2 0 -6 -2 -8
1532262422388046 -1 -2 0 1 0 2 2 1
1532262422408981 0 0 0 0 -2 -4 -2 4
1532262422422945 5 -2 -2 -3 -1 -1 -1 1
1532262422491758 2 -2 -2 -3 -1 3 2 4
1532262422536639 -2 -1 1 0 -3 1 -5 -7
1532262422582524 0 0 -1 -1 -2 0 -2 -6
1532262422606461 5 -2 -2 -2 -2 0 -9 -2
1532262422642356 -29 1 -3 -1 -2 5 -6 -11
1532262422663299 0 -1 0 3 -1 -1 -3 2
1532262422686238 12 -3 -2 -2 -2 2 -1 -4
1532262422723140 1 0 1 -2 0 1 -6 -6
1532262422813897 -7 -1 -2 -1 1 -4 -3 1
1532262422842820 -5 -2 -2 -1 -3 -2 -6 -16
1532262422873737 0 -2 -1 -2 -1 -2 1 4
1532262422903656 0 0 0 -1 0 4 8 3
1532262422925636 3 0 -3 -1 -1 -9 1 -4
1532262422963536 9 -1 -2 -1 1 14 5 5
1532262422986475 -23 0 -1 0 -1 4 -1 -9
1532262423000437 -3 -2 -2 1 -2 -2 -1 -3
1532262423047312 -3 -2 -1 -1 -2 -7 -2 -2
1532262423061287 -4 0 1 -1 -1 -3 -3 -1
1532262423091195 3 -1 -1 -1 -2 -7 -9 4
1532262423129094 -5 -2 -1 -1 0 9 9 -8
1532262423173973 -2 -1 -2 -1 -2 -3 -2 1
1532262423203893 -7 -3 -2 -1 0 -3 -8 -24
1532262423225835 11 0 0 -2 -1 -3 3 12
1532262423263734 0 -2 -1 0 -1 -2 -4 0
1532262423286672 1 0 -3 0 -1 1 0 9
1532262423315594 -5 -3 -2 -1 -2 -6 -4 -10
1532262423346512 -2 0 -1 0 -2 -6 -5 -5
1532262423368488 -2 -2 -3 -1 0 -1 1 2
1532262423422341 -6 -2 0 -1 -2 -1 -6 -3
1532262423453275 0 -2 -1 -2 0 -1 -6 -5
1532262423468217 -9 -1 -1 -2 -3 -3 -13 -7
1532262423540025 -1 -2 -3 0 -4 -1 -4 -3
1532262423601860 -7 -1 -1 -2 1 4 -2 3
1532262423670676 0 0 -1 0 0 -2 2 -1
1532262423683641 -2 -1 -1 -1 0 -4 -3 -2
1532262423739503 1 -2 -1 -1 -1 1 1 3
1532262423759438 -3 0 -2 1 -1 3 1 -6
1532262423783374 0 0 0 -1 -1 0 -4 0
1532262423804318 -2 -2 0 -1 0 -4 2 3
1532262423826259 -1 -1 0 -1 -1 -2 -2 -5
1532262423856190 0 1 0 0 0 -2 -3 -3
1532262423909038 -1 -1 0 0 0 -1 -2 -3
1532262423945940 2 0 -1 -1 -1 -2 -1 -1
1532262424038692 -1 -2 0 0 2 3 0 2
1532262424103518 0 -2 1 -1 0 -1 -5 -9
1532262424218212 -3 0 0 -1 -1 0 0 -20
1532262424351855 5 1 -2 0 -2 -4 5 -2
1532262424388756 -1 -1 -2 -1 -1 1 -7 -5
1532262424501453 0 1 -1 -2 -3 -1 -1 -5
1532262424539369 -2 -1 -2 -1 -1 -3 -2 -2
1532262424571268 -1 -2 -2 1 -2 -4 -6 -1
1532262424598195 -2 -1 -1 0 -3 -4 1 -4
1532262424614152 -2 -1 -3 0 -1 -1 2 5
1532262424651054 1 -2 -1 -1 -3 1 -1 -1
1532262424749844 -2 -1 0 -1 -2 -1 2 2
1532262424795721 -1 0 -2 0 -1 -1 -2 -2
1532262424852569 -1 -2 -1 -3 -1 -2 2 1
1532262424912416 0 -2 -1 -2 -2 -3 1 2
1532262424980244 -1 -1 0 -2 0 0 -1 -3
1532262425070985 -2 -1 -1 -3 -2 0 1 0
1532262425138804 -4 -1 -1 0 0 -2 0 -3
1532262425160744 -2 -2 0 -1 -1 -2 -1 0
1532262425205625 -1 -1 -1 -2 -2 0 0 -2
1532262425250505 -3 0 -1 -1 -1 -2 1 1
1532262425327299 -1 -1 0 -1 0 -1 -3 -1
1532262425357220 -2 -2 0 -1 -2 -1 0 -5
1532262425415065 2 -2 2 -3 0 -5 -2 -5
1532262425434014 -1 0 -4 -1 -2 0 -1 0
1532262425491859 -3 0 -2 -1 0 -1 -2 0
1532262425527764 -2 -1 -1 1 -1 -2 -1 -2
1532262425603561 -1 -3 -1 -1 -2 -1 -3 -3
1532262425633481 -3 0 1 -1 -1 -2 -1 0
1532262425673375 -1 -3 -2 -3 -2 -1 0 0
1532262425693321 0 -2 -2 -3 -1 -1 -1 0
1532262425754158 0 -1 -1 -1 -1 -1 -2 -1
1532262425853892 -1 0 0 -1 -1 0 -1 -2
1532262425919100 -2 0 0 0 0 -1 -4 -5
1532262425937052 -2 -1 1 -2 0 -1 0 1
1532262425980935 -1 0 -3 -2 0 0 1 2
1532262426031799 -1 -2 -2 0 0 -1 -2 -1
1532262426053740 -1 -2 -2 -2 -1 0 -1 0
1532262426122556 0 -2 -2 -2 0 -2 -2 0
1532262426166438 -2 -2 -1 1 -1 -1 0 -2
1532262426188380 0 0 0 0 -1 -1 -1 1
1532262426236251 1 -1 -2 -2 0 -1 -1 -1
1532262426248248 -2 -1 -2 -1 -3 -1 -1 -3
1532262426258226 -2 1 -1 -1 0 3 1 -2
1532262426294128 0 -1 1 -2 -1 -1 -2 1
1532262426317066 1 -2 -1 0 -1 -2 -1 -1
1532262426369924 -1 -1 -1 0 -1 0 -1 -2
1532262426422783 0 -1 0 0 -1 0 -2 -1
1532262426481626 -2 0 1 1 -2 -2 -2 -1
1532262426536480 0 1 -2 -1 0 21 -1 -2
1532262426549445 -2 -1 -4 -1 2 0 -1 -2
1532262426570399 -1 -1 -1 -2 4 -1 0 -3
1532262426654165 -3 -10 -7 -17 42 7 -3 -2
1532262426676106 5 9 5 -7 -71 -25 3 2
1532262426719989 3 -3 -7 -18 32 5 0 -1
1532262426745920 0 -5 -1 -13 -9 16 -3 -3
1532262426764869 4 14 -3 3 -1 -1 11 -2
1532262426804762 -1 6 -9 -14 4 5 -4 -12
1532262426812741 1 -4 -2 -5 3 8 10 15
1532262426849642 -1 0 0 2 6 4 -8 13
1532262426862607 -2 1 -2 -7 -1 1 -12 1
1532262426872581 -2 -5 -2 -3 19 0 -5 12
1532262426956357 1 2 1 5 -8 -5 -44 -2
1532262426976303 -12 -5 -4 -1 -19 -4 18 -17
1532262427069056 12 -1 0 1 -3 4 -10 -25
1532262427104959 5 -1 -1 -4 -8 -6 1 -12
1532262427156821 4 -6 -5 -5 -19 -1 -13 -9
1532262427192725 1 8 0 13 12 4 -52 18
1532262427215663 -1 -13 -2 2 -6 9 22 27
1532262427275503 11 -6 2 5 -1 -8 37 7
1532262427323376 -19 -20 0 -3 -14 8 14 -22
1532262427389199 2 1 -1 -6 -14 0 18 -26
1532262427442071 3 8 3 9 -2 -9 -16 9
1532262427493919 -3 -24 -6 -4 6 1 -20 -11
1532262427553759 -2 16 1 1 5 -2 -10 -3
1532262427617588 -6 -3 0 -2 0 -2 -27 -79
1532262427624570 -3 15 1 -5 -4 -6 10 8
1532262427681417 0 -1 19 52 12 10 20 17
1532262427696378 -4 -9 -10 -26 -4 -11 -43 -15
1532262427756218 -1 7 2 -6 -2 9 7 13
1532262427802095 1 -2 -1 -4 3 -3 19 -3
1532262427830020 -1 4 3 2 1 -1 -4 -3
1532262427889860 -2 -5 -5 -7 2 15 -3 -1
1532262427915791 -1 -6 -3 -4 6 -21 -6 -3
1532262427966654 1 -1 -1 -4 17 19 -2 -1
1532262427981615 -1 -4 -3 -5 -76 9 -4 -7
1532262428018516 -2 5 0 8 7 -15 -4 -3
1532262428041455 1 -3 -1 -9 -7 9 0 -1
1532262428178089 -5 -4 -5 -13 14 -24 -9 -3
1532262428213994 0 -59 -9 4 16 -2 2 0
1532262428237929 -1 34 -1 -4 -12 12 -2 -4
1532262428258874 2 -2 1 1 -2 -17 1 1
1532262428309738 -3 -25 4 2 -8 -31 -6 -4
1532262428341652 0 0 6 13 23 -3 4 1
1532262428378554 1 3 -2 -8 -1 5 -1 0
1532262428424431 -3 -6 0 -1 -51 -25 -2 0
1532262428446372 0 -1 0 -13 7 0 1 0
1532262428468314 1 6 5 4 -70 10 0 0
1532262428490255 1 5 1 -13 -11 -3 1 1
1532262428535135 -4 -14 -1 8 43 -1 0 -1
1532262428596969 0 2 1 3 20 -5 -2 -1
1532262428755546 3 2 0 -15 3 -14 3 2
1532262428814388 -8 1 -10 -13 -11 -56 -3 -4
1532262428829348 1 3 3 12 -14 12 1 -1
1532262428874228 -2 -5 0 14 -24 2 -2 -1
1532262428895172 0 2 5 12 -16 -4 2 1
1532262428951023 -2 -6 -4 -3 -17 -10 -6 0
1532262428965982 1 25 -1 -7 -15 -8 -3 1
1532262429008868 -1 -4 1 -6 -18 15 3 -1
1532262429047764 -2 -2 2 -10 35 -18 0 1
1532262429061727 -2 -14 -6 -19 -22 -9 -2 -2
1532262429113588 1 5 0 -5 -11 -5 2 0
1532262429143508 1 2 1 2 3 0 -2 0
1532262429166446 -3 -3 -4 -8 -7 2 0 -1
1532262429197364 1 0 -1 0 -5 -2 0 1
1532262429235263 -2 -1 0 -1 -10 -3 -2 -1
1532262429263188 0 -1 -1 0 -4 -2 1 -1
1532262429295103 0 -1 -1 5 7 3 -2 0
1532262429309065 -2 -1 -1 -1 0 0 0 -1
1532262429392841 0 0 0 -1 -1 -4 4 1
1532262429407805 0 -2 -4 -15 0 11 -2 0
1532262429443705 0 0 0 -7 -16 -6 6 0
1532262429534462 -1 0 -4 -5 3 -26 0 -1
1532262429698025 0 -1 -1 -1 -9 -5 5 0
1532262429720963 -1 -1 1 0 -4 3 9 -1
1532262429775817 0 -1 -2 -2 2 1 0 0
1532262429872558 -1 -1 -2 -1 2 5 -7 -4
1532262429900484 -1 -2 -2 -3 -3 -5 -6 -1
1532262429931401 0 -2 -1 -1 1 2 4 0
1532262429983263 1 -2 1 2 1 5 -2 -3
1532262430006201 -2 0 -1 0 -2 2 1 -1
1532262430029139 -2 -2 -3 -3 -1 4 3 -2
1532262430075017 -2 -2 0 -1 1 1 -2 0
1532262430103940 0 0 -1 0 -1 0 0 -1
1532262430141838 -1 -1 -1 1 -1 -1 -1 -4
1532262430185721 -2 0 0 -3 -2 -1 -1 1
1532262430200680 1 0 -1 0 0 -2 -2 -1
1532262430260521 -1 -2 0 -1 1 0 0 -2
1532262430307404 -1 -2 0 -2 2 -5 0 -1
1532262430368244 -7 -2 -4 -1 5 10 1 2
1532262430390189 0 0 -1 -1 -1 -3 -1 -1
1532262430411118 -6 0 1 0 -8 -5 -4 -7
1532262430462980 -1 0 0 -1 -1 -2 -3 -3
1532262430522822 2 -1 -2 0 -2 -1 1 -3
1532262430552740 1 0 -2 -2 0 -4 0 1
1532262430606604 2 -1 -1 -1 -2 1 -1 -2
1532262430698368 -2 -2 -1 -2 1 -4 -1 1
1532262430713310 -1 -1 -1 -3 -1 -2 0 2
1532262430863908 -1 2 1 -1 1 -2 -4 0
1532262430905796 1 0 0 -1 0 2 1 -2
1532262430975609 -3 0 -3 -1 -4 -2 -1 -1
1532262431012510 -5 -1 -1 0 1 0 -1 -3
1532262431056399 -5 -1 -3 -2 0 -1 4 1
1532262431183054 1 -2 0 0 -2 -2 3 8
1532262431209982 -1 0 0 1 -2 -3 0 -2
1532262431230926 -2 0 -2 -2 -2 -2 0 -1
1532262431252867 0 -2 0 -1 -1 -3 1 4
1532262431288771 -1 -1 -1 -1 -2 -1 -4 -2
1532262431386510 -7 1 -2 -3 -1 -2 -2 -3
1532262431409462 -1 -1 0 -2 -2 -3 -2 -1
1532262431508185 -1 1 0 0 -2 1 -1 -3
1532262431531123 -1 -2 -3 -3 -4 10 -4 -2
1532262431588969 -2 -6 -16 1 -14 -24 -15 -3
1532262431626868 0 4 15 -8 -6 -13 -1 2
1532262431648809 -5 -7 -1 11 5 1 -12 -10
1532262431741561 -1 -3 -7 5 15 5 4 2
1532262431784446 -1 -5 -7 -7 -8 -2 -7 -2
1532262431807385 0 -4 1 -1 19 12 -8 -3
1532262431876200 -7 -3 -2 -1 -28 -43 -29 -7
1532262431897144 -1 18 5 1 23 26 9 -1
1532262431985907 -1 -9 -2 0 0 -3 1 -1
1532262432159444 -10 -8 -6 -2 -14 -36 -2 -1
1532262432271144 -30 -75 7 10 4 6 -13 -2
1532262432338974 -3 29 -3 -1 3 4 -14 0
1532262432376862 7 28 -5 -7 16 -3 -2 -3
1532262432413763 2 0 -5 -9 -25 -30 -9 -2
1532262432570344 -18 -13 -13 -1 6 12 15 -1
1532262432699000 -6 2 5 4 -1 -14 1 -2
1532262432818680 -7 -12 -5 4 -19 -23 -4 -3
1532262432841619 1 1 2 -3 -11 7 14 -5
1532262432885502 -35 -58 -6 -2 3 4 -6 0
1532262432908441 14 44 4 -1 7 22 -3 4
1532262432931379 8 -13 8 7 0 28 3 0
1532262432982243 -12 74 -22 -11 -16 -16 -4 -5
1532262433014158 1 -27 0 -4 2 10 4 3
1532262433058040 -1 28 1 1 1 11 -1 1
1532262433118877 -1 -4 -2 -1 2 17 7 4
1532262433217614 -5 -20 -5 -5 -1 31 5 -6
1532262433254515 -5 6 -2 -3 3 9 1 0
1532262433336295 -9 -18 0 -3 -5 -5 -2 3
1532262433419075 1 15 8 -9 7 14 7 8
1532262433472947 -14 -38 4 -3 -2 16 8 3
1532262433516813 -1 -7 -5 -7 8 25 -5 -5
1532262433530776 15 87 -1 -4 -6 4 11 -11
1532262433576660 -1 8 -4 -11 -25 -16 3 -3
1532262433591613 -1 -5 -4 8 36 53 -11 2
1532262433613555 2 -11 4 19 -31 4 -10 3
1532262433696333 -2 -3 -7 -28 10 -29 -6 -2
1532262433765149 -1 -3 2 -2 -29 2 9 2
1532262433785096 -1 -2 -3 -3 4 -4 0 0
1532262433808035 -7 -6 -4 1 46 11 -36 -11
1532262433892808 -1 -5 -7 1 14 -11 13 2
1532262433937688 -3 -4 -2 -1 -21 0 7 0
1532262434077315 -1 -5 -2 0 20 8 1 0
1532262434170066 0 7 1 -6 -14 -19 -1 -4
1532262434193005 1 -55 -4 0 1 13 4 -2
1532262434235890 11 -8 -6 -3 -1 -8 -4 -1
1532262434282765 -9 22 10 0 14 19 0 -4
1532262434305704 -4 -69 -10 -3 -53 -6 -2 0
1532262434341608 -2 16 1 -2 5 -4 -3 2
1532262434363549 -3 2 -5 -2 -7 -9 -1 0
1532262434370530 1 24 5 -1 10 9 -2 1
1532262434447325 4 21 -1 2 2 -1 0 -2
1532262434516141 -2 3 -2 -2 -7 1 -2 -1
1532262434536088 0 9 -1 -5 -2 -11 0 -2
1532262434561021 -1 3 -1 -3 2 -2 0 -1
1532262434582962 -2 -10 -2 -3 14 7 1 0
1532262434598920 1 6 4 -2 2 10 1 1
1532262434602909 1 -3 0 -7 -10 7 -5 0
1532262434634823 6 -1 -1 3 8 -3 1 15
1532262434671725 -12 0 -8 -3 -2 11 -16 -3
1532262434693667 -3 -1 4 2 0 -17 -2 8
1532262434716605 -12 -4 -7 -6 -9 4 -3 -17
1532262434754504 3 -4 -4 -4 -3 -63 -3 19
1532262434792402 -3 0 0 -1 0 36 -6 -14
1532262434836286 -2 -3 -2 4 4 8 4 -10
1532262434850247 2 -2 -2 -5 -2 4 -5 -1
1532262434873186 -7 -3 2 -1 -8 -54 -7 -4
1532262434910088 16 0 3 4 11 18 10 3
1532262434933042 -7 -8 -3 -7 -27 3 -1 -2
1532262434947986 4 -5 -3 2 4 8 -2 0
1532262434978904 -1 -1 -1 -1 -23 -32 -1 8
1532262435007826 1 -2 -2 -3 -56 10 14 0
1532262435032760 -3 7 1 3 3 10 2 4
1532262435059687 -8 2 0 2 16 23 9 11
1532262435090605 -8 -5 -5 -3 -1 -11 -9 -9
1532262435137480 -5 2 -1 -2 7 8 9 18
1532262435144460 -6 -2 1 0 -2 -36 -3 4
1532262435172386 4 2 -1 0 -1 11 -1 5
1532262435196322 -10 0 -1 -1 6 -2 -3 -3
1532262435225245 11 -1 -1 2 2 -10 -4 2
1532262435241202 -7 -1 -3 -1 7 -41 2 0

1532262435258157 -6 0 1 0 -6 5 11 -2
1532262435325975 -2 -3 -2 -1 0 15 -1 -6
1532262435353901 0 -3 -2 -1 -1 14 1 3
1532262435376840 -2 -1 -1 -2 -3 -22 -5 -7
1532262435406759 16 -1 -3 -3 -5 -16 -4 0
1532262435413742 5 -2 -3 -3 -5 -2 -10 -3
1532262435436679 -5 1 0 -2 0 3 4 -4
1532262435458621 -13 1 -1 -1 -1 -7 -2 0
1532262435472584 -2 -1 -2 -2 0 1 3 -2
1532262435519457 -3 -2 -4 -2 0 -6 3 -3
1532262435557357 -3 -1 -2 0 0 4 4 -2
1532262435578301 0 0 -1 -2 -1 -2 2 -2
1532262435586279 0 1 -1 -1 1 1 3 -1
1532262435610215 -1 -1 0 0 -1 -1 -1 -1
1532262435661079 -12 -1 0 0 -1 18 9 -1
1532262435691997 -1 1 -2 -1 -1 -12 -7 0
1532262435736876 0 -2 0 -1 -2 1 0 0
1532262435758818 -1 -1 -3 0 -2 -7 -2 -6
1532262435834616 -4 -1 1 -1 -1 0 -12 -2
1532262435862540 -14 0 0 2 -1 -12 1 -2
1532262435917403 0 0 -1 -1 -2 -1 0 -2
1532262435962274 0 -1 -1 -1 0 10 5 6
1532262436036076 -12 -1 -2 -1 -3 0 -1 -4
1532262436103896 1 -3 -1 0 -1 -2 -4 -1
1532262436159746 3 -2 -1 -1 -2 -2 -3 8
1532262436178695 0 -1 -1 -1 -2 -2 -2 9
1532262436218589 2 -1 0 -3 1 -2 -1 0
1532262436261474 -1 -3 -3 -3 -3 -2 0 -2
1532262436336274 -1 -3 -1 -2 -1 -3 -4 -1
1532262436382151 -6 0 -1 -1 0 0 -2 -8
1532262436456951 -2 -2 -2 -2 -2 -1 -1 2
1532262436472909 1 -1 -3 0 -3 -1 -6 -4
1532262436494850 23 -2 -2 -3 -3 -3 -3 1
1532262436501831 3 0 -1 -1 0 -3 -4 1
1532262436523773 -2 -1 -1 -2 -2 3 1 -3
1532262436568653 1 -1 0 2 1 -1 0 1
1532262436591591 -1 -2 0 0 1 1 1 0
1532262436621511 -3 -3 -5 -7 -12 -19 -1 -4
1532262436673382 -1 0 11 6 -1 -1 -1 0
1532262436697308 -7 -3 -4 -13 -19 -12 -4 -2
1532262436735208 1 -5 -6 -8 -64 -10 -7 -2
1532262436751164 -1 -2 -1 5 27 8 3 0
1532262436797042 0 2 -2 -5 -10 -8 -4 -3
1532262436815992 8 4 3 7 5 -3 3 7
1532262436860872 -5 1 -1 7 8 -2 18 6
1532262436882812 -7 -1 -1 2 11 12 3 3
1532262436923712 -2 -4 -5 -3 -6 -18 15 51
1532262436943649 7 5 4 3 3 6 23 -14
1532262436968583 -8 -5 -1 -7 -5 4 -70 -32
1532262436990525 6 2 -1 -6 -3 8 19 27
1532262437012465 -9 1 2 -3 -2 -5 28 -34
1532262437125164 5 0 -3 -8 0 9 -3 3
1532262437184007 1 2 1 4 -5 7 -34 25
1532262437311666 -15 -13 -3 10 -36 10 28 -8
1532262437349564 3 2 -2 -12 -7 1 9 44
1532262437433340 6 -1 -3 -15 -17 0 61 15
1532262437477223 3 29 1 0 14 14 -88 -44
1532262437497169 -6 -8 1 -7 1 4 -12 9
1532262437663741 16 4 -13 -38 -3 14 36 29
1532262437723577 -4 -20 -7 -23 -16 -12 -30 0
1532262437753483 -17 -14 -2 -6 3 -7 -10 -33
1532262437771436 0 -6 5 -12 -1 -9 -23 -18
1532262437783404 -8 -18 3 0 -4 -2 29 -3
1532262437843244 -1 -12 -2 -2 -4 -41 -4 3
1532262437888123 -2 -1 -1 1 0 5 4 2
1532262437926022 2 8 -4 1 8 -14 2 1
1532262437987857 2 -11 -1 -3 46 -10 -4 1
1532262438045702 0 1 4 2 -30 -21 -6 0
1532262438077617 -2 -32 0 14 18 19 3 0
1532262438130476 -1 27 2 22 40 -5 -5 -3
1532262438243181 -2 -12 -2 -15 -36 -4 -4 -1
1532262438250155 0 -10 0 6 4 -15 0 2
1532262438265116 0 -3 3 19 -8 4 3 -3
1532262438288055 0 -16 -4 14 78 26 -1 0
1532262438308001 0 -17 -6 -14 -26 -14 -1 0
1532262438345900 -1 -17 -9 -18 -31 -23 -2 -1
1532262438415713 2 12 1 16 31 -1 0 1
1532262438467574 -3 -12 -11 -2 37 -4 1 -3
1532262438526417 -3 9 -6 -15 -11 -10 -3 -3
1532262438563336 -1 2 -2 6 -71 -1 5 2
1532262438661057 0 -12 -4 -5 15 3 4 0
1532262438727879 -2 6 -1 -9 -34 -16 -4 -1
1532262438798689 -3 -43 -6 0 22 27 3 -2
1532262438886454 -2 10 1 -7 -46 -10 -4 -3
1532262439005137 -3 -15 3 -3 -16 -28 -1 0
1532262439119830 -3 -9 -4 6 9 -2 -3 -1
1532262439246492 -3 -5 -6 -14 13 8 -4 -3
1532262439316305 -3 0 -2 1 -4 -2 0 0
1532262439330268 -4 -2 -3 -3 4 19 1 -1
1532262439351212 -2 0 1 -1 -3 -4 2 -1
1532262439440971 0 1 0 1 -3 -11 -2 1
1532262439466903 1 0 -4 -3 -3 2 -2 -1
1532262439547686 -1 0 -1 -5 -4 -7 -2 -1
1532262439571633 -1 -3 1 1 3 5 4 1
1532262439593565 -2 -1 0 -5 -2 18 2 -1
1532262439630465 -1 -3 -2 2 8 -1 2 0
1532262439651409 4 2 -1 -8 -15 -11 -5 1
1532262439696289 1 -5 -2 -2 43 -26 -13 -4
1532262439719227 -1 0 -3 -3 0 -44 -4 -4
1532262439815969 -3 -1 -2 1 1 0 2 -3
1532262439845889 -1 -1 -2 -2 -6 -10 1 -1
1532262439904732 -1 -2 -1 -1 -3 1 0 1
1532262439965568 1 -2 -2 -2 -2 -11 -7 -1
1532262439991500 0 0 -2 1 3 2 3 -6
1532262440041366 -1 1 0 -1 -2 4 4 -1
1532262440088252 0 -1 -2 -1 0 -3 -5 -2
1532262440111196 -1 -1 -1 -2 -2 -1 2 -2
1532262440131125 -3 0 -1 -1 0 3 -4 0
1532262440205925 -2 -2 0 -1 -2 -1 0 -3
1532262440251803 -3 -1 0 0 -1 0 -2 -3
1532262440273745 -2 0 -2 -2 0 -2 1 -1
1532262440296684 -2 -1 -1 -2 -3 0 -3 -4
1532262440328599 0 -3 -2 0 -3 0 3 2
1532262440356523 -3 -2 -2 -1 -1 0 4 -1
1532262440378465 -1 1 1 -2 -1 -3 -3 -3
1532262440409382 2 -1 1 0 0 1 -8 -1
1532262440507121 -1 0 -2 -1 0 -1 1 1
1532262440520086 -1 -2 0 1 -1 -1 -1 -3
1532262440551002 -1 -1 -1 -1 -2 0 2 0
1532262440573942 -1 1 -2 -1 -2 -3 -1 1
1532262440602865 -1 -1 -1 -2 -1 -1 -4 -1
1532262440641760 -3 0 -3 -2 -3 -2 -2 0
1532262440671680 0 1 -1 0 -1 1 -3 0
1532262440693622 -1 -1 0 0 -1 -2 -4 -4
1532262440732518 -1 -2 -3 -1 -1 -4 -5 0
1532262440754476 1 -1 -3 0 -1 -1 4 1
1532262440823276 -1 1 0 0 -2 -1 0 -2
1532262440854192 0 1 -2 -2 -2 -1 2 0
1532262440896080 -2 -2 0 0 0 -3 -4 -1
1532262440971884 -2 -2 -2 -1 -1 1 1 1
1532262441001797 -1 0 -1 -1 -1 -1 1 -1
1532262441053658 -1 -1 0 -1 -2 0 -4 -1
1532262441068619 -1 -2 -2 1 0 -3 -3 -1
1532262441098539 2 -2 -2 -1 -3 1 4 0
1532262441122475 -1 0 -2 -3 -2 0 -3 -4
1532262441218219 -2 0 0 -1 -3 0 1 -1
1532262441245149 -4 -3 -2 -2 -2 -1 1 0
1532262441259110 -1 -2 -3 -1 0 0 -3 -1
1532262441278059 -1 0 -3 -1 0 2 -3 -2
1532262441303000 0 -2 0 -2 -1 -3 -1 0
1532262441316955 -1 -1 0 -1 -3 1 -1 0
1532262441360838 -1 -4 -2 -1 -1 0 -3 -1
1532262441370811 -1 1 2 -1 1 -3 -3 -1
1532262441398736 -1 0 -1 -1 -1 -3 2 -5
1532262441518416 -2 0 -4 -1 -2 -5 8 1
1532262441571275 -1 -1 0 -1 -2 -1 0 -3
1532262441699931 -2 -2 -3 -4 -3 25 0 -3
1532262441745808 0 0 0 4 2 27 4 -3
1532262441799664 1 -1 9 36 21 24 1 3
1532262441813627 1 0 -16 13 18 6 -2 -2
1532262441856513 1 -18 6 22 -1 4 7 1
1532262441870474 -3 -1 -15 -23 -6 -2 1 0
1532262441916352 -1 8 3 0 1 -4 2 -3
1532262442089888 0 -8 -4 0 -7 -4 -7 -4
1532262442118815 1 -17 -2 -1 -1 6 4 2
1532262442193611 -1 -10 0 -1 -10 7 1 -2
1532262442261429 -4 -3 -7 -2 -9 -1 -3 -2
1532262442301323 -7 43 -8 -7 -8 -5 -2 -2
1532262442367147 7 -22 61 62 5 -7 -3 2
1532262442410032 -1 15 1 2 0 3 -4 -3
1532262442462890 -1 -11 -10 2 10 -14 -1 -4
1532262442538688 0 34 2 -2 -36 9 4 -1
1532262442645402 2 -26 7 -2 1 -6 0 1
1532262442696266 1 15 -2 -7 1 67 1 -3
1532262442749124 -5 27 7 -9 -3 -2 1 0
1532262442818939 -1 10 1 1 3 -1 0 0
1532262442958565 0 2 5 19 36 21 -2 -5
1532262443019415 1 15 2 4 30 36 4 0
1532262443049322 1 64 -10 -20 -5 7 3 -3
1532262443057301 -13 12 9 -15 -13 -7 -3 -8
1532262443117141 4 -6 3 0 1 3 0 0
1532262443153045 13 1 5 12 6 10 12 19
1532262443183963 20 -40 -11 2 -4 -40 -19 0
1532262443212885 -5 27 6 0 2 4 -2 13
1532262443236821 -6 1 1 1 -6 -27 -6 -3
1532262443266741 -4 -15 -5 -1 -2 -1 -2 -5
1532262443303643 -5 -19 0 -2 -5 -6 -9 -13
1532262443341541 -7 -4 -3 -9 -49 0 -15 -5
1532262443409360 -2 -7 -5 -1 0 4 -4 -2
1532262443452245 -9 -25 -5 0 2 -4 -8 1
1532262443461221 -2 2 -7 -9 -52 21 -15 -3
1532262443483164 -10 -13 -10 -3 30 14 1 -4
1532262443558960 -3 -9 1 -1 -33 15 -1 -1
1532262443594863 0 34 -6 0 -6 -12 -7 -4
1532262443664677 0 0 6 21 36 16 20 2
1532262443874125 2 2 -1 -11 -40 30 10 1
1532262443972853 3 -2 0 6 -17 9 6 1
1532262444018730 -5 0 -5 -5 -15 -19 -11 -6
1532262444039675 0 0 -2 -8 -19 -44 4 -1
1532262444076576 1 -1 0 -3 -6 -11 12 4
1532262444128437 -2 -2 -3 3 18 10 -15 -2
1532262444309951 -2 -1 -1 -6 -29 -20 -6 -4
1532262444315935 -1 -2 -2 -3 1 5 -2 0
1532262444376772 1 -3 1 -3 -13 -9 1 0
1532262444482490 -4 1 -3 0 -5 -1 4 -3
1532262444503434 2 0 -1 -2 1 7 5 1
1532262444528374 -1 -2 0 2 58 14 -5 -2
1532262444550309 -2 -3 -5 -8 -3 -12 0 -2
1532262444595189 2 -2 0 -1 -8 -2 -2 -3
1532262444618127 2 0 -2 0 0 10 -3 -3
1532262444648047 -4 0 -2 -1 5 -2 2 1
1532262444668991 -2 0 1 -1 -2 -3 0 0
1532262444714869 -3 -2 -2 -1 -3 0 0 -1
1532262444737807 -3 -3 -3 -3 -4 1 -2 0
1532262444782687 -4 -8 -5 -2 -5 -9 6 0
1532262444817594 -1 -2 2 -1 -3 -8 -1 -2
1532262444842540 2 0 0 -4 -1 -31 -3 -2
1532262444863471 1 0 1 -2 -4 -2 -1 -1
1532262444900372 1 7 1 1 -2 -13 -1 -2
1532262444923311 -4 -11 -5 -5 -1 -8 7 -1
1532262444969189 0 -2 -2 -2 8 34 -6 -1
1532262444990133 -4 -6 3 -3 5 -10 -6 0
1532262445008085 0 -1 -4 2 25 -19 1 1
1532262445081887 -4 -4 2 0 -6 -9 -5 -3
1532262445102831 -2 0 -2 -3 7 26 -4 -2
1532262445127765 5 2 2 0 5 -15 -16 -4
1532262445200569 -3 -1 -1 -2 -10 0 2 -7
1532262445223511 -4 0 1 2 2 -3 8 -1
1532262445246448 1 -2 -1 -2 3 19 9 -5
1532262445314266 0 0 -1 2 0 -12 -2 -2

1532262445614463 -5 2 -1 0 -4 -8 -3 11
1532262445681284 -19 0 2 1 3 30 -18 -9
1532262445875764 9 -3 -3 -2 -2 4 11 8
1532262446040324 1 -2 -2 -4 -3 -8 8 2
1532262446183940 -3 -12 -1 -8 -3 1 4 0
1532262446279684 -3 5 -1 2 -2 -3 5 -8
1532262446302622 1 -3 0 0 -1 8 3 2
1532262446326558 -4 -14 -5 -24 12 0 -17 -2
1532262446348500 -5 2 -1 -5 -9 6 6 -5
1532262446371439 -5 -4 -1 -4 -6 -8 -4 -2
1532262446394377 3 2 -1 5 6 2 -5 2
1532262446440255 -2 -19 -1 3 -3 1 5 -2
1532262446515055 -7 -2 0 2 5 11 -24 -9
1532262446551964 13 -1 3 1 4 0 8 10
1532262446566915 -2 2 5 20 -12 0 -2 1
1532262446588857 0 0 -6 -21 -5 0 11 -4
1532262446626756 13 0 2 -1 -3 -2 -8 -7
1532262446670639 -3 3 -7 -26 -10 -35 -6 4
1532262446679615 9 1 5 4 -9 -4 -5 -11
1532262446725492 7 7 1 9 21 23 21 -1
1532262446769374 -4 0 -2 -7 -1 -16 -35 -9
1532262446783337 -6 -3 -3 5 -10 8 5 0
1532262446806294 -11 -6 -3 -5 6 9 11 -2
1532262446829233 -4 -4 -3 8 0 -10 -10 -1
1532262446842198 -3 2 0 -1 12 -24 -15 -5
1532262446866134 0 -1 -1 -12 4 15 13 7
1532262446911045 -3 -2 0 -6 -19 -14 -36 -10
1532262446956936 -3 -1 1 -2 -4 -4 2 1
1532262447001802 0 0 0 -3 -6 -17 3 0
1532262447017760 2 2 -1 -2 2 7 0 -3
1532262447048677 -2 -1 -2 0 -1 -1 -3 -4
1532262447082586 -2 -1 -1 1 1 23 3 -1
1532262447142426 -1 0 0 -1 2 3 2 0
1532262447168356 0 -1 -1 -3 -2 3 2 -1
1532262447202266 1 0 -1 1 0 -2 2 1
1532262447271082 -1 0 1 0 -2 -6 2 -3
1532262447331919 -2 -1 1 10 -4 7 2 -1
1532262447391759 -1 -3 -3 -1 -7 -7 -3 -1
1532262447412703 1 1 2 2 7 -16 -2 1
1532262447459577 0 -1 -2 2 -8 -10 -2 -2
1532262447482520 -1 1 3 9 27 -15 -4 -3
1532262447529396 -2 -3 -2 1 -3 4 -5 -2
1532262447558313 0 0 -6 -10 -9 13 3 0
1532262447573274 1 -1 2 -2 7 7 5 1
1532262447609177 -1 0 -4 2 -2 0 -4 -2
1532262447645082 -1 0 -1 1 -14 -1 1 0
1532262447669018 -1 -2 1 11 8 -2 -3 -1
1532262447691956 2 3 1 -8 12 10 1 2
1532262447704922 -2 4 0 0 -5 -7 -2 -3
1532262447758778 -2 -11 1 1 -11 -5 -1 2
1532262447765759 -2 -2 -1 -6 -55 -13 0 -1
1532262447788698 -1 -8 3 15 -24 -21 -3 -1
1532262447811637 -1 2 0 -2 14 14 -1 -1
1532262447833579 -2 -1 -1 -3 -10 -19 -2 -2
1532262447879455 -1 -6 -1 -5 -3 7 0 0
1532262447917354 1 -3 -2 1 8 -15 -3 0
1532262447954255 2 -3 0 3 2 17 6 1
1532262448074932 -4 -12 -1 -3 -5 12 -2 1
1532262448111833 -4 4 -3 3 -5 -11 -16 -16
1532262448134772 -1 -6 -5 0 11 16 30 -1
1532262448158722 -35 -44 -2 -11 -24 -43 -41 -17
1532262448179652 -23 -8 -6 -6 31 -37 -43 -54
1532262448208574 -25 -30 -4 -7 -16 -17 -29 -5
1532262448254451 -2 14 -15 9 5 -6 35 44
1532262448291354 9 8 -3 -8 -8 -15 0 -47
1532262448321273 12 -23 -6 3 -6 -23 16 24
1532262448365156 -3 13 9 2 8 15 33 -29
1532262448493812 -5 -7 3 1 -10 13 36 46
1532262448523732 -4 -9 -4 11 -6 -6 -12 -30
1532262448576591 -7 -11 -5 -5 4 -17 -26 -31
1532262448644409 -2 -10 -1 -4 1 4 27 8
1532262448659370 -21 -12 2 20 -1 16 -37 -36
1532262448702255 12 50 -2 5 -5 -42 -26 -69
1532262448713226 -14 -5 -1 -4 4 5 -10 -19
1532262448740168 -3 -40 -7 4 -22 2 -2 -32
1532262448794009 8 30 0 -16 9 6 5 -12
1532262448831908 8 14 27 9 18 20 45 -1
1532262448876788 2 6 -5 -6 -1 4 5 4
1532262448913693 -1 26 0 2 -1 3 0 -1
1532262448936628 -1 8 -6 2 -4 -4 -8 2
1532262449004447 1 10 -2 -4 -5 31 -4 1
1532262449137092 -1 2 -9 -35 -5 4 -1 -1
1532262449190948 2 -4 18 62 -21 -23 0 0
1532262449204911 5 64 6 0 6 -3 -1 0
1532262449322596 -2 -20 2 13 -61 -8 3 0
1532262449343540 -4 -18 -9 -12 -3 11 -7 -3
1532262449363487 0 12 4 -8 -46 -23 -5 -4
1532262449379443 -2 -22 -1 3 38 9 -1 1
1532262449409379 -2 4 -6 -17 2 -17 -2 -2
1532262449430319 -3 -2 7 33 -69 3 1 0
1532262449476185 -2 4 -4 -1 11 11 0 -4
1532262449499124 2 -22 -4 -12 -7 -2 -2 -1
1532262449536024 0 5 -5 3 40 4 2 0
1532262449558964 0 -2 11 23 0 -7 -2 2
1532262449574920 -1 6 -3 4 0 8 -4 -2
1532262449609828 -1 -12 -4 -3 -16 -13 -1 -3
1532262449663684 -1 -13 -1 1 21 4 2 0
1532262449695611 -6 -7 1 0 -16 2 -3 0
1532262449755438 1 43 2 -10 -23 -12 -1 -6
1532262449845198 -2 -2 -4 0 -63 16 -1 -1
1532262449994798 -3 -2 -3 -1 -3 1 -1 -1
1532262450107496 3 9 -3 0 23 -8 -1 0
1532262450139429 -3 -6 -6 -12 -19 -23 -2 -2
1532262450168335 -4 1 0 1 4 6 0 -1
1532262450235155 -2 -12 -1 1 14 -9 -2 0
1532262450300979 -3 -2 -2 3 -5 -7 4 -1
1532262450332894 -3 -5 -2 -5 15 -4 -1 -1
1532262450400713 -1 -2 0 -4 1 -4 0 0
1532262450458558 -1 -1 2 8 12 0 -2 -1
1532262450519395 0 -2 -4 -2 1 2 -2 -3
1532262450532362 0 2 -1 1 -2 1 0 -1
1532262450600179 0 -2 -1 0 -2 -7 -3 -2
1532262450656031 -3 -1 -1 -2 -1 -6 -2 -3
1532262450693929 2 3 -1 -3 -2 2 -2 -2
1532262450797652 3 3 0 -16 -32 -28 -10 0
1532262450819593 0 -3 -8 -5 2 -21 11 1
1532262450917331 -3 0 1 -1 3 4 -2 -3
1532262451028035 -1 -1 1 -1 -3 -44 -7 -4
1532262451049977 1 0 -1 0 1 -7 -6 -1
1532262451133753 -3 1 0 -2 -1 0 0 -2
1532262451170654 -1 0 -1 -1 -1 -2 0 2
1532262451231491 -2 -1 -1 2 -2 -1 2 0
1532262451276372 0 -2 -1 -1 -3 -5 2 1
1532262451298313 -1 -1 -2 -2 0 -2 0 -2
1532262451389070 -1 0 -2 -1 -1 -1 1 -2
1532262451433950 -2 -3 -2 -3 0 -1 -4 -1
1532262451458883 -1 -2 -1 -2 -2 3 3 -1
1532262451487806 -1 -1 -1 -1 1 9 1 1
1532262451509747 -1 -1 -1 -1 0 -11 -4 -2
1532262451575571 -1 -2 0 -2 -3 -19 -2 -2
1532262451635411 0 -1 -1 0 0 3 3 -1
1532262451688270 -1 0 -1 0 0 5 0 -2
1532262451698254 0 0 -1 -1 -1 -2 -3 2
1532262451770051 0 0 0 0 -1 -1 -1 0
1532262451874772 -2 0 -1 -1 -2 4 3 2
1532262451997443 -1 -2 -1 -2 -2 4 -1 0
1532262452043321 1 -2 -1 -2 0 3 5 1
1532262452065262 0 0 1 -1 -2 1 0 -1
1532262452071246 -1 -2 -3 -1 -1 -1 6 -1
1532262452109144 1 -1 -1 0 -4 -26 -3 0
1532262452138067 -1 -3 0 -1 -1 0 9 0
1532262452304624 -2 -2 -2 1 0 5 1 -4
1532262452317587 0 -2 -2 -1 0 -4 -2 0
1532262452409342 -1 -1 -1 -2 -1 1 16 -2
1532262452461203 -1 -2 -2 -4 -3 -3 0 2
1532262452557945 -3 -1 -2 -2 -1 4 1 -1
1532262452626760 -4 0 0 2 1 8 -3 -3
1532262452700563 -3 0 -3 -5 7 -17 1 1
1532262452793315 2 4 2 8 4 -14 -2 1
1532262452881080 -2 0 0 1 24 10 4 1
1532262453083538 0 -4 1 3 1 -2 -5 -1
1532262453176290 -2 10 4 2 16 7 2 -3
1532262453190254 -3 -2 -4 -2 2 -7 -6 -2
1532262453226157 -2 -37 -7 0 1 0 -2 -1
1532262453286995 -2 -13 -23 -16 -26 -6 -16 -9
1532262453323896 0 56 -28 -10 -5 3 3 3
1532262453362792 2 -37 7 5 7 7 0 -1
1532262453368776 -5 3 -13 -4 -5 0 0 -4
1532262453398696 3 -37 6 -4 7 -16 7 4
1532262453430611 -1 -13 1 -4 -12 -1 -3 0
1532262453443576 -38 4 -1 1 -14 -20 -5 -9
1532262453480477 6 -2 3 2 -2 6 2 -2
1532262453526355 1 26 11 5 -1 -8 8 0
1532262453549293 4 8 1 3 -9 -13 2 1
1532262453617112 -1 11 -2 -1 16 32 -5 -4
1532262453641047 -1 -7 4 -1 -10 -22 -3 -1
1532262453745768 -5 -19 -1 8 0 -51 2 -1
1532262453841512 -3 -11 -1 4 0 -8 0 -2
1532262453916312 1 -5 -3 -9 -11 -14 -2 -2
1532262453933267 1 16 1 -2 -10 -8 -2 -1
1532262454006072 4 37 23 15 12 -32 3 0
1532262454051949 -5 -61 -23 -32 -20 -25 -1 0
1532262454075886 0 9 1 -2 -5 -7 -2 -2
1532262454102813 13 30 -9 36 39 51 12 12
1532262454149688 -3 4 4 0 -4 -9 -3 -4
1532262454187589 -1 -11 0 -1 0 2 -3 -2
1532262454216509 -3 4 5 -3 -6 -8 -5 -6
1532262454232466 -6 -15 0 -4 -11 -10 -7 -6
1532262454298290 1 -22 -9 5 39 25 6 3
1532262454338184 -1 10 -2 -8 -5 -10 -3 -3
1532262454357133 -1 0 -4 0 11 3 0 -2
1532262454403010 -2 62 8 -1 3 -10 9 2
1532262454471826 0 -12 -7 -4 -3 28 1 5
1532262454522691 -3 -10 0 -4 4 3 -11 -2
1532262454545629 -3 -4 -2 -2 7 20 -7 -1
1532262454568567 -1 -7 1 -3 -2 44 19 4
1532262454674285 -3 -2 -2 7 25 -26 -15 -6
1532262454696226 0 1 5 14 -22 -21 -4 -2
1532262454749085 5 4 6 10 -9 8 26 7
1532262454837847 -1 -3 -3 -9 -22 12 9 1
1532262454848818 -2 -2 -3 -18 -13 -16 -12 -5
1532262454899682 -1 -2 -1 2 7 -6 -22 -5
1532262454936583 -7 -6 -10 -8 23 -13 2 -7
1532262454981464 -2 -1 -4 -11 -23 -13 -9 -3
1532262455004402 -1 0 0 5 14 0 7 3
1532262455033325 1 -2 0 -3 -14 4 1 1
1532262455146024 -2 -2 -3 -9 7 15 -3 -2
1532262455177938 -1 1 -2 0 -3 2 3 0
1532262455193895 -3 6 3 4 56 10 -4 -10
1532262455215837 -2 -11 -9 -6 -15 1 -3 -3
1532262455237778 2 5 -2 3 1 13 3 -2
1532262455282658 -3 -6 0 -3 -7 0 -5 -3
1532262455349479 -5 0 -1 -4 -52 3 -4 -5
1532262455396354 -3 -1 -4 -6 -9 -25 -16 1
1532262455439239 -2 -2 -4 -5 2 -10 -10 -3
1532262455454199 -1 -2 -1 2 0 3 0 -2
1532262455469159 -3 -2 -1 1 0 -1 -1 -2
1532262455491100 0 0 1 3 1 19 -2 -2
1532262455514039 0 -2 -1 -2 5 -5 0 -1
1532262455550941 -2 1 0 4 2 -6 1 1
1532262455596818 -1 -3 -2 -12 9 4 1 0
1532262455650674 1 -3 0 5 9 -5 -7 2
1532262455672616 -5 -21 -13 -13 -5 16 -5 6
1532262455687575 2 2 1 0 -1 -2 -10 -1
1532262455715500 -3 2 -3 -4 -9 4 -15 -43
1532262455733453 2 12 8 6 5 -21 12 27
1532262455768359 5 -1 0 -3 -4 -8 -1 14
1532262455791298 1 5 -1 -1 -6 -18 -1 6
1532262455835180 8 5 5 9 16 -23 -3 -3
1532262455905002 1 -6 -3 5 18 -14 -10 -4
1532262455993757 1 -1 0 -1 7 1 -2 -6
1532262456016707 -14 -3 -3 -2 -8 -7 -6 -12
1532262456054594 -2 0 0 0 -5 -3 8 19
1532262456082526 -17 -3 -2 1 -5 -13 -6 -74
1532262456144360 2 0 -2 -1 -7 -3 -5 11
1532262456165305 -5 -1 -3 -6 -14 -8 -2 14
1532262456220158 1 -8 -3 -5 -1 6 -6 -4
1532262456227145 0 0 -2 2 9 1 1 -5
1532262456248085 18 5 4 5 13 24 11 36

1532262456293961 5 -8 -2 -4 -20 -10 -7 3
1532262456323881 13 -2 2 0 -7 -3 0 -1
1532262456346819 -7 3 1 1 5 6 1 -9
1532262456369758 -4 26 2 -1 -2 9 2 13
1532262456391699 -16 -12 -4 -3 -10 -16 -9 -13
1532262456437576 0 -7 2 0 3 3 4 23
1532262456475480 12 -12 4 1 -1 2 3 -15
1532262456481460 -7 7 1 -3 -4 -23 -22 -23
1532262456502409 -22 -11 -5 -2 1 -1 -6 -20
1532262456520361 2 1 3 0 0 6 5 -54
1532262456557263 37 -8 -4 -5 -6 -9 -2 6
1532262456618100 -5 -15 -15 -2 -2 -2 6 57
1532262456641038 -7 -17 0 4 4 10 9 53
1532262456655999 18 17 13 3 3 1 -1 16
1532262456669973 -7 -25 -1 -1 -1 -15 26 17
1532262456692900 13 15 -1 1 1 -3 -4 9
1532262456713844 -7 -14 6 0 -2 2 10 45
1532262456757727 -1 -7 -4 -3 -2 3 -3 2
1532262456776676 -1 -2 -2 -1 0 1 1 -5
1532262456797620 -29 7 -4 -2 -1 -2 -1 -17
1532262456833524 -1 -18 -11 -5 -6 -23 -16 -17
1532262456856462 8 37 6 -1 1 3 4 5
1532262456870425 4 -13 0 -2 -1 0 1 7
1532262456894361 -1 -11 1 1 0 1 -11 -3
1532262456924293 -20 -7 -6 -1 -1 -2 8 2
1532262456930278 6 15 0 -1 0 2 -2 -4
1532262456954213 23 -4 0 -1 0 4 11 13
1532262456977151 5 6 1 1 -1 4 11 -1
1532262456990133 -13 -32 -7 -3 0 -3 -13 -3
1532262457007072 -12 -31 -10 -3 -1 1 3 1
1532262457020037 -33 52 13 1 -3 0 2 -14
1532262457037989 5 0 4 0 -1 0 -2 -5
1532262457096832 -1 -1 1 -1 0 -1 3 -2
1532262457109797 -5 0 -1 -1 -1 5 4 -8
1532262457133733 10 9 0 -2 1 -3 1 7
1532262457192576 3 -5 2 0 0 -5 -2 -6
1532262457246432 -12 -27 0 1 0 8 2 1
1532262457306283 0 7 0 -1 0 2 4 4
1532262457360128 3 -24 -1 -1 0 -5 -1 6
1532262457396031 -1 -8 -2 -1 -1 -2 -8 -3
1532262457409994 -8 -17 0 1 0 -3 -4 -2
1532262457456876 2 3 -1 -2 -1 -4 3 0
1532262457479808 9 5 3 0 0 -3 1 8
1532262457516708 2 10 -7 -3 -3 -4 0 2
1532262457553616 -2 -8 -2 -2 0 -2 5 2
1532262457614468 1 -4 -1 1 14 -4 8 1
1532262457660331 3 -2 -2 0 23 2 -13 -1
1532262457696235 1 -1 0 0 2 -9 -4 -1
1532262457734133 1 -1 0 4 28 -9 2 1
1532262457779013 -5 1 -2 -2 -10 2 -11 -3
1532262457793973 4 -2 -4 -8 -63 9 13 6
1532262457816912 1 -4 -1 0 4 -13 -2 0
1532262457876752 4 15 8 36 -31 -18 -2 2
1532262457898693 0 13 0 -13 17 -4 2 -2
1532262457913653 0 13 3 0 8 -30 -8 -1
1532262457936592 -3 -3 -9 -14 0 -6 -1 0
1532262457958533 -10 14 -4 -6 -13 3 5 -3
1532262457996432 3 60 0 -2 28 32 -9 -4
1532262458018373 2 6 -3 -6 52 24 3 -1
1532262458032336 6 -18 5 -5 -96 -34 4 4
1532262458079211 -5 -15 -8 -5 8 -4 -5 -1
1532262458093173 5 -11 -2 0 9 -7 -1 -1
1532262458139051 -1 4 0 -7 3 -6 -1 2
1532262458153013 1 -26 -19 -7 -3 38 11 -3
1532262458176949 -8 2 2 -1 -6 -5 -16 -38
1532262458198890 -7 -5 1 -3 -61 -16 5 -1
1532262458219834 26 29 4 -3 -29 10 20 24
1532262458272694 -31 -12 -6 -3 53 -3 -4 0
1532262458296629 9 4 -2 -11 -14 -4 -10 -2
1532262458318570 54 10 1 11 35 17 -8 -11
1532262458349488 16 8 -5 -8 -28 -5 -2 -13
1532262458370432 -32 -15 -1 -1 -11 -7 -11 -16
1532262458438250 2 -1 -1 0 -1 -12 11 -25
1532262458498091 14 -2 1 2 14 8 15 17
1532262458535989 -1 -5 -3 -3 15 9 -3 4
1532262458595829 -4 -2 -1 -2 -3 7 3 -7
1532262458700549 -12 -4 -4 -5 -22 -8 -9 -11
1532262458775349 21 -2 -1 1 19 -6 13 -1
1532262458837184 1 20 3 0 -3 11 -25 -13
1532262458925946 -5 1 0 0 3 0 -2 -8
1532262459000746 -1 3 -2 -2 -1 -1 -6 -4
1532262459060587 1 1 -1 0 32 5 1 -8
1532262459098485 18 0 1 1 5 3 8 7
1532262459120426 -1 -3 -4 -4 -13 2 0 0
1532262459204206 -11 -7 1 -1 -26 -4 4 -5
1532262459249082 -15 -5 -4 -5 0 -2 -7 -32
1532262459337845 -13 -8 -8 -6 -2 -10 -11 6
1532262459435585 -1 -1 0 2 20 8 4 4
1532262459480463 7 -5 -8 -1 -16 10 0 6
1532262459555263 -4 -1 0 -3 -16 -3 3 -4
1532262459615103 -32 -3 -1 -1 0 -1 3 -1
1532262459669956 5 2 1 0 -1 1 6 3
1532262459683920 4 -3 -2 -2 9 4 -2 -14
1532262459864450 -53 -11 9 2 0 6 2 -2
1532262459902335 19 5 -4 -4 -2 -10 1 42
1532262459954197 16 26 10 -3 -6 2 -11 -42
1532262460023039 44 27 -16 -1 0 27 11 11
1532262460043956 -19 -30 -6 1 1 -34 -22 23
1532262460080858 -20 37 -2 0 -5 -29 -19 -31
1532262460140698 24 -7 -4 -5 -1 -9 11 20
1532262460165631 -10 -11 -3 -3 -3 12 2 -22
1532262460193557 14 -6 3 1 3 6 0 33
1532262460208517 -8 1 -1 -2 3 67 -1 -15
1532262460224474 -6 -1 -2 -1 -1 -4 -5 -9
1532262460248411 -2 -3 -3 -2 -8 -18 -8 9
1532262460284327 0 -2 1 -2 -2 -8 -2 -12
1532262460297286 10 1 0 0 -1 8 7 36
1532262460368096 0 0 -2 0 -3 -7 -6 -7
1532262460388043 -16 1 0 0 1 2 3 11
1532262460463840 -1 0 2 2 2 -2 -4 -4
1532262460485781 -4 -6 -2 -5 -3 0 -7 -7
1532262460524677 4 -5 -3 0 0 -1 3 11
1532262460592496 1 -3 -2 -3 -1 4 -6 -6
1532262460645354 2 -2 -6 -5 -4 -4 -3 1
1532262460683253 14 -1 1 -2 -4 -4 -2 27
1532262460704197 2 -2 -2 0 -1 -4 -2 -2
1532262460740137 2 0 0 1 1 -3 1 17
1532262460764073 2 -2 -3 -2 -2 -3 3 10
1532262460822922 1 1 0 -1 -1 4 0 10
1532262460848851 1 1 0 3 1 -1 -1 -5
1532262460852836 -1 -2 -4 -2 -1 -2 0 9
1532262460906691 -2 -2 -2 -1 -1 2 2 2
1532262460920654 1 -2 0 -1 0 -1 2 3
1532262460945588 0 -2 -2 -3 -1 -3 -2 -3
1532262460966532 0 0 1 0 1 1 0 -1
1532262461026371 0 4 -1 3 2 0 -6 0
1532262461055294 -1 -1 -1 -2 -10 -3 0 -1
1532262461102169 -1 4 0 0 0 3 -3 -4
1532262461200904 -1 0 -2 -3 3 3 -3 -2
1532262461222846 0 0 0 0 0 0 -2 -3
1532262461238803 -5 -2 -3 -2 19 3 0 -3
1532262461266729 0 -2 -2 0 1 -6 -2 0
1532262461279694 -1 0 -1 1 10 2 -2 -2
1532262461326569 2 -1 -2 -1 10 6 1 -1
1532262461364467 -1 1 -1 0 6 5 0 -1
1532262461410345 -1 0 -3 -13 -23 -10 -1 0
1532262461455225 0 -2 -5 -3 -6 -8 -2 -1
1532262461479162 -3 -6 -3 -4 -6 -4 -1 -1
1532262461491129 -3 -5 3 12 -9 4 -2 -5
1532262461529034 -2 -2 -2 -1 2 50 8 0
1532262461542989 -2 -2 -2 -1 20 18 -2 -1
1532262461565929 -5 -5 -4 -3 -4 0 -3 -4
1532262461588868 -1 0 -9 -30 -23 -11 -4 0
1532262461702563 2 -1 2 3 0 -6 -1 -2
1532262461725502 -3 -3 -1 2 -9 -17 -2 0
1532262461747443 2 -2 1 8 -14 -5 -6 8
1532262461791325 -2 -1 1 -5 -11 -11 -8 -2
1532262461838200 0 3 4 1 -2 2 1 -22
1532262461861139 -8 -3 -5 -5 -1 -7 -2 -5
1532262461919981 1 -1 -1 -2 -3 7 1 9
1532262461943918 -3 -3 1 6 -5 -23 -23 -11
1532262462008744 -4 -6 -5 1 -9 -35 -67 4
1532262462348835 -7 1 -2 -8 -3 -28 -47 -11
1532262462376760 11 8 1 -5 13 16 36 55
1532262462443582 -5 3 0 -5 -15 1 -3 -26
1532262462512397 0 17 20 7 20 -5 19 20
1532262462579231 -12 -20 4 5 2 6 16 38
1532262462594179 -13 -13 5 2 10 1 -28 1
1532262462668979 0 27 2 1 -4 -10 -2 2
1532262462713858 1 -23 -3 -3 4 11 -1 1
1532262462751757 -2 10 2 3 -14 -31 -4 0
1532262462811598 -5 -25 -8 -6 -8 -25 -1 -2
1532262462893380 0 5 0 1 18 9 0 -1
1532262462933272 2 5 -3 -20 -17 -16 -5 1
1532262462999096 -2 -10 -3 -6 7 5 -3 -4
1532262463050957 5 -19 5 18 3 14 4 2
1532262463060932 -1 -38 -1 -4 25 9 -2 -1
1532262463081875 -2 4 -1 -5 -63 -11 -1 -2
1532262463102819 4 15 1 1 -7 -1 -1 1
1532262463127753 1 -30 -8 -5 -30 -24 -2 1
1532262463141715 -1 15 6 3 -10 -19 -6 -1
1532262463171635 -2 0 0 -1 17 9 1 -1
1532262463208536 -3 -16 0 -1 -32 3 0 -1
1532262463231475 -1 24 -3 -9 -9 29 -4 -2
1532262463291315 0 -11 -1 -5 -39 4 5 -1
1532262463305277 -2 -6 -3 -4 24 15 2 0
1532262463405045 -3 -3 -6 -2 8 -2 1 -2
1532262463459885 -1 6 -3 0 9 -12 1 -1
1532262463509751 0 -10 2 -1 -15 -7 -5 1
1532262463538674 1 -10 8 14 3 19 -1 0
1532262463583554 0 -9 -2 -7 -7 -3 0 0
1532262463616479 -3 -13 -4 0 28 10 2 -2
1532262463703234 2 3 2 16 -18 -24 -4 -1
1532262463727169 -2 -3 2 4 21 -22 -2 1
1532262463735148 -1 -1 0 3 -3 16 2 -1
1532262463771052 0 -1 -1 -2 -9 11 -1 0
1532262463793992 -4 -2 -3 2 -5 -9 -6 -2
1532262463838872 -1 -1 -1 1 -1 5 -2 -1
1532262463867794 -1 2 3 2 -5 1 -1 0
1532262463912674 -1 -5 -1 1 -3 0 -1 -3
1532262463951570 -3 -3 -1 -1 -2 -3 -1 -1
1532262463997447 -3 -1 -3 -4 -11 -27 -3 -2
1532262464058285 -1 -5 2 3 5 16 1 -2
1532262464071250 -1 1 -2 4 12 -12 -5 -1
1532262464116130 -1 -5 -1 -3 0 -40 -11 -1
1532262464154028 -3 -5 -2 2 56 6 4 3
1532262464206888 3 2 1 2 -16 -5 -7 -15
1532262464227831 6 -3 -2 -3 -6 13 3 11
1532262464251767 -2 -2 0 0 -2 8 5 9
1532262464341527 -1 -2 -1 -3 -2 -2 1 0
1532262464347511 -2 -2 -2 -1 -3 -3 -7 8
1532262464394387 1 0 -2 -2 -4 -6 -1 -4
1532262464514066 0 0 -2 0 -1 -1 2 -1
1532262464558945 -1 0 0 -1 -2 -2 -1 -1
1532262464596844 -1 0 0 1 -3 -2 -6 -1
1532262464610807 0 0 -1 1 -3 1 -7 -3
1532262464663665 -1 1 -2 -1 -1 -6 1 0
1532262464725501 -2 -1 -2 -1 0 -2 0 -2
1532262464764396 1 -1 -2 -2 -3 1 -2 -1
1532262464809292 0 0 1 -3 -3 -2 0 0
1532262464896045 -3 -2 0 1 0 -1 0 -1
1532262464910007 0 -1 -1 -3 0 2 1 -1
1532262464955885 -1 -2 -3 -1 -1 0 -2 -1
1532262464986801 -2 0 -1 0 0 1 -1 -3
1532262465070578 -2 0 -2 -1 0 -1 0 -2
1532262465084541 -1 0 0 0 -1 -3 -2 -2
1532262465106481 -1 0 -2 0 -1 -1 -3 -1
1532262465150364 -1 -2 0 -2 -1 -3 -1 0
1532262465196242 0 0 -2 0 0 -1 1 0
1532262465236136 0 0 -1 -1 0 -3 -3 -2
1532262465256081 -3 -2 0 -1 -2 1 0 -3
1532262465354817 0 -1 -2 -1 0 1 -1 0
1532262465383740 1 -1 -2 1 -2 -2 -4 2
1532262465458540 1 0 0 0 -1 -1 -2 -1
1532262465518380 2 -2 -1 -2 -3 -2 1 -1
1532262465588193 -4 -2 0 1 -1 0 -2 -1
1532262465609137 -4 -3 0 0 0 -4 -1 -2
1532262465646039 5 -1 -2 0 -2 -3 -2 3
1532262465655014 0 -2 -2 -2 -3 -1 -1 -2
1532262465730812 -1 -3 -1 -3 0 -1 -2 -2
1532262465780678 -2 0 0 -1 -1 2 0 1
1532262465945239 -3 0 0 0 1 -1 0 -1
1532262465984135 0 -2 -1 -1 0 0 -1 0
1532262466058935 0 0 0 -2 2 12 -6 -1
1532262466218508 -2 -3 -2 -8 3 6 3 0
1532262466238455 1 0 -11 9 13 5 2 0
1532262466260395 0 5 -5 -21 8 8 0 -1
1532262466336193 -2 -4 -2 -4 -51 4 0 -2
1532262466583532 0 3 1 -1 -7 -19 -4 1
1532262466719169 -3 9 4 0 5 -2 3 2
1532262466743105 1 -10 -3 -5 -2 16 -1 -1
1532262466786987 -1 11 -10 3 2 25 3 2
1532262466814913 0 -11 -7 -1 10 35 0 -1
1532262466837852 -3 8 -1 -2 -4 -8 -1 -3
1532262466950550 -2 0 -2 -3 0 10 0 0
1532262466980471 -2 -3 0 0 -5 4 1 -1
1532262467041308 -2 -3 1 -2 -57 9 3 0
1532262467078208 -2 42 6 -3 -10 -5 2 -1
1532262467146027 0 -11 2 -2 -3 -32 -6 1
1532262467160988 -3 -4 -14 5 3 39 0 -1
1532262467213847 1 15 -3 -4 -5 -7 0 1
1532262467251745 -1 -6 -2 -6 0 -10 -4 -5
1532262467319564 -1 0 -1 0 6 -3 -1 -2
1532262467378406 3 43 2 3 2 16 3 1
1532262467400348 -1 -2 -3 1 28 8 -7 0
1532262467461185 0 7 3 -7 -2 3 -3 -2
1532262467505068 -3 -87 -1 1 -5 -22 -1 0
1532262467551942 2 -46 -2 -7 -15 9 -4 0
1532262467602806 0 39 3 -3 6 2 0 -1
1532262467663643 -3 13 -6 -4 11 -16 -7 13
1532262467726475 6 9 -2 4 5 -1 -9 28
1532262467792299 6 13 -2 -6 -2 7 -1 -19
1532262467815239 -3 -15 -1 -3 1 31 1 -7
1532262467838177 5 34 3 -4 7 11 0 -4
1532262467866102 -7 1 -1 -2 12 -7 -16 -2
1532262467881062 11 -23 -12 0 3 6 4 10
1532262467940902 1 2 -1 8 4 4 10 1
1532262468083520 10 8 14 1 13 0 -6 -4
1532262468129398 -7 -18 -10 -20 10 -2 -7 -2
1532262468151340 -1 16 2 23 24 27 -5 -2
1532262468204198 -1 3 -1 -4 -7 -35 1 0
1532262468226139 3 0 8 25 14 2 11 5
1532262468249078 -3 -5 -4 -2 25 -7 -8 -4
1532262468330859 0 0 -3 -13 15 13 1 0
1532262468354795 -5 -3 -2 -5 -39 -6 -25 -6
1532262468476470 1 -2 -1 -12 2 8 -6 -1
1532262468714832 -3 -3 -8 -11 -16 -28 -11 -4
1532262468790630 -4 17 0 -2 -1 4 -7 -5
1532262468923275 9 20 3 3 -13 -10 -3 -6
1532262468971147 0 -7 -5 1 -2 -19 -4 2
1532262468992091 4 -3 -1 -3 28 -7 -2 -2
1532262469001079 2 0 2 -2 -8 0 3 5
1532262469020017 -3 -2 2 0 3 -1 1 0
1532262469042955 -2 0 -2 -1 -2 5 6 1
1532262469066891 0 1 -2 3 39 -1 -2 1
1532262469111771 0 -2 1 4 23 4 1 1
1532262469165627 -3 -3 -4 0 0 -1 -3 -2
1532262469185573 6 -4 2 2 -7 -6 -1 -5
1532262469286305 0 -8 -2 -3 9 -7 0 -1
1532262469298272 -10 0 -1 0 0 4 0 -4
1532262469336171 -3 7 -2 -3 -4 -6 -10 9
1532262469343152 2 -9 -3 -5 -7 -32 1 4
1532262469405056 0 -5 -4 -3 -2 -4 3 6
1532262469533697 2 8 2 2 2 23 1 1
1532262469554641 12 12 -1 -5 -7 -7 -3 -1
1532262469568604 42 -3 -1 -6 5 16 2 15
1532262469612487 6 3 0 3 11 11 -2 -5
1532262469660358 -12 -3 0 -4 -8 -9 -2 7
1532262469683297 -7 0 -1 -1 -5 2 -6 5
1532262469705238 -8 -1 -1 -1 -4 7 4 11
1532262469741143 -8 -3 0 0 1 8 6 -1
1532262469840876 -3 -1 -5 -4 -3 -12 -10 23
1532262469860822 -4 -5 1 1 -2 -19 -3 4
1532262469928641 -5 -1 -3 -1 -2 -3 -4 7
1532262470078241 1 0 -1 -1 1 3 1 -1

1532262470119132 -1 -3 -1 0 0 3 3 7
1532262470146060 2 -1 0 -2 12 37 -1 2
1532262470168999 0 1 0 -3 -13 26 3 1
1532262470205908 4 9 8 -2 28 -4 2 0
1532262470219863 0 2 -3 -11 -7 20 2 -4
1532262470251777 -8 -4 -20 -19 -30 -13 -8 -64
1532262470264743 0 -5 -16 -12 -17 -5 -2 14
1532262470287701 4 3 1 6 -3 -9 0 8
1532262470366484 1 2 -7 9 8 -1 -1 8
1532262470380447 2 24 12 7 9 -2 6 2
1532262470408372 -1 -4 5 23 10 3 0 -1
1532262470431310 4 27 -6 -10 -7 -5 5 0
1532262470475193 -2 1 -5 -1 -2 2 8 15
1532262470495139 -6 -2 -4 13 -8 12 3 6
1532262470536029 5 45 8 -9 1 30 9 0
1532262470587891 -10 12 7 -1 28 26 5 22
1532262470635764 -5 6 1 -1 0 -26 -7 -2
1532262470657705 4 -37 -15 -17 -17 -18 -32 -4
1532262470673662 -2 -3 -7 0 -4 -24 -19 -10
1532262470731507 -22 1 4 30 20 -3 7 17
1532262470753448 8 -1 2 -5 -5 9 -7 -6
1532262470911062 1 -3 -1 1 46 23 8 -8
1532262470935996 3 6 -2 4 4 1 -3 -1
1532262470973895 -19 25 1 -10 -7 6 3 -12
1532262470992844 -12 6 2 -3 8 14 -19 -7
1532262471033734 20 0 5 9 10 1 -2 3
1532262471054678 14 17 -1 -6 -3 -4 -13 15
1532262471107549 -11 -24 -13 -2 11 19 -2 -2
1532262471130487 13 12 7 1 -2 -5 -6 3
1532262471188332 0 -8 -5 -1 -27 -27 3 -5
1532262471213266 0 2 2 1 20 13 2 3
1532262471248172 1 1 6 31 14 14 5 -1
1532262471255154 -5 0 1 0 -26 3 -6 -3
1532262471273106 1 -1 -2 -8 5 15 1 -1
1532262471375831 6 -1 -1 0 36 -8 -5 -2
1532262471420711 -6 -1 1 4 12 4 -3 -1
1532262471506482 0 -1 -1 -3 -6 1 -1 -3
1532262471556348 -6 -1 3 1 0 11 11 2
1532262471617186 -3 3 -1 -5 -6 -40 -7 -3
1532262471715933 -3 -8 -8 -12 -56 -99 -28 -12
1532262471768780 -1 -9 -2 -2 -27 1 -9 -3
1532262471789754 -2 -3 -2 6 -23 -8 3 0
1532262471901441 16 1 -1 3 2 7 3 0
1532262471947303 -3 -4 -3 0 1 8 5 1
1532262472015121 1 0 1 -2 0 -17 -4 10
1532262472044044 -1 -2 -3 0 -2 -15 4 1
1532262472117847 -9 -4 -2 -2 0 8 -2 0
1532262472231542 -3 -1 -2 -1 -2 -2 1 -2
1532262472269441 -4 -2 -2 -1 -1 1 1 -1
1532262472290398 0 0 -1 -1 0 4 1 -1
1532262472381144 -2 -1 -1 -3 0 3 1 -2
1532262472418044 -2 -2 -3 -6 -1 -6 -2 -1
1532262472456940 -2 -1 -1 -3 -2 -4 3 0
1532262472515783 -3 -1 0 -6 -13 -12 -3 0
1532262472576619 0 -2 -2 1 17 10 1 -1
1532262472616514 -1 -3 -4 -6 -6 -1 -2 -1
1532262472743175 -2 0 0 -2 0 0 1 -1
1532262472854875 1 0 2 3 6 4 -3 -1
1532262472878812 -1 -4 -2 -2 -4 -5 -2 0
1532262472892791 1 -1 -3 4 16 7 -2 -2
1532262472935660 -3 -4 0 5 -7 -4 4 3
1532262473018439 4 -2 2 6 5 5 13 -4
1532262473080273 -7 -4 -2 1 0 -8 -30 -24
1532262473385457 14 8 -1 6 18 -10 -24 36
1532262473417371 -3 -3 3 18 0 21 23 -55
1532262473439313 0 -18 -2 -1 -28 -6 29 58
1532262473493169 6 -14 -5 -1 -4 -4 14 14
1532262473508129 6 5 -3 8 -12 -5 -5 -28
1532262473598887 1 -10 -3 -13 -15 11 31 7
1532262473642769 -16 0 -3 6 20 -2 27 16
1532262473686651 4 11 -11 -14 3 -3 2 -7
1532262473710588 0 6 4 -6 -46 -16 10 -24
1532262473738513 3 -14 -7 -10 -3 23 25 20
1532262473760454 -13 -24 6 4 -5 -3 2 -11
1532262473775415 -11 -22 -14 1 -5 -9 -48 -31
1532262473806331 7 -8 -7 -17 -1 15 0 10
1532262473837249 4 -26 -4 2 -10 18 8 27
1532262473890108 1 -2 1 0 -3 -15 5 -2
1532262473920028 0 4 0 -4 0 14 4 -7
1532262473978870 6 12 8 6 -2 18 4 -2
1532262474008790 -1 7 -2 4 33 -25 -1 -4
1532262474038710 -2 -9 -6 -17 -19 -6 -1 0
1532262474061648 -6 -24 -4 -6 -38 4 2 -1
1532262474265105 -4 -3 -10 -27 45 -9 4 0
1532262474270092 -5 -17 2 9 46 -35 4 -1
1532262474308987 1 1 0 0 8 -33 0 2
1532262474315969 -2 4 9 0 -29 -10 -1 2
1532262474337910 0 -1 0 -5 -92 -10 1 -1
1532262474398747 -2 -7 -7 -14 14 -12 -1 1
1532262474446632 -3 7 -1 4 24 3 -5 -3
1532262474451605 -1 -4 0 7 10 -1 -2 -3
1532262474488507 -1 4 2 10 -8 -2 1 -1
1532262474520421 -2 6 -4 0 -27 -31 -1 -1
1532262474526406 2 -22 -3 -4 -12 -17 -5 -1
1532262474542363 -1 0 -4 1 -9 -1 2 0
1532262474600208 2 -5 -4 -11 -14 -7 -2 1
1532262474683984 -1 1 3 0 -4 3 -5 -3
1532262474735846 -5 18 -1 2 24 13 -7 -5
1532262474834582 0 -10 -3 -11 -2 -19 0 -1
1532262474872480 0 -7 3 21 39 4 -5 -1
1532262474901403 0 20 3 9 22 9 0 -2
1532262474940300 -2 -2 -5 0 12 11 -2 -3
1532262474960246 -1 -6 -1 -2 -8 -5 -2 -2
1532262475024092 0 -2 1 7 2 -2 -3 2
1532262475074940 0 0 -1 -2 16 1 -1 -1
1532262475082918 -1 -2 0 -2 -3 -7 -1 -1
1532262475201600 -2 -3 -1 -1 1 -27 -5 -2
1532262475248478 -1 -1 0 6 -6 -1 12 2
1532262475284379 -2 -4 -6 -13 -71 32 -3 -1
1532262475306320 -7 -13 -7 -5 6 38 2 -6
1532262475344219 7 4 6 9 26 8 10 3
1532262475367158 -2 3 -2 1 51 -11 -7 1
1532262475418022 0 0 -1 -1 -16 -17 0 1
1532262475441958 2 -1 0 2 -6 1 1 2
1532262475509776 -1 -2 0 0 1 -1 -8 -3
1532262475631450 -1 -2 -2 -2 3 -3 -1 -2
1532262475660374 0 -1 0 -3 4 -2 -6 0
1532262475726198 -2 -1 -3 -2 -2 -3 -4 -1
1532262475764097 -1 0 -1 -1 -1 -3 2 -1
1532262475794016 -1 -2 1 1 1 0 1 2
1532262475800998 -2 -1 -1 -2 -1 -3 0 -4
1532262475846875 -1 -1 -2 1 -1 -2 -3 0
1532262475907712 -2 -1 0 -1 -1 1 -1 -1
1532262475930650 -3 -3 -3 -2 -1 -1 0 -2
1532262475944613 1 -1 0 0 0 0 1 -1
1532262476004454 1 -2 -2 -3 0 -2 0 -1
1532262476049334 0 1 0 -1 -1 -2 -1 -1
1532262476078256 2 0 0 -1 -1 0 -1 0
1532262476103189 -3 -3 -2 -2 0 -1 -2 -1
1532262476168016 0 -2 -1 -1 -1 -1 -2 1
1532262476221872 1 -1 1 -3 0 -2 -1 -3
1532262476244811 2 2 -5 -19 -5 0 2 1
1532262476266752 2 2 9 6 -26 10 -5 -1
1532262476279717 -3 -2 -5 -2 20 12 4 -2
1532262476326592 2 -1 -7 -4 9 13 1 2
1532262476340555 -4 -4 -8 -8 3 6 -7 -3
1532262476410368 -1 -1 0 -5 -2 -3 0 -1
1532262476491152 0 1 1 3 1 -4 2 2
1532262476695605 2 9 15 35 1 -7 -6 -5
1532262476769408 -3 0 -6 -14 2 -8 5 0
1532262476852193 1 9 -2 -3 -5 -4 3 -2
1532262476927984 2 -4 -2 -2 3 26 -17 -3
1532262476955909 -2 -3 -4 1 0 2 3 0
1532262477003796 0 -4 -3 1 -1 1 2 0
1532262477010762 -4 -4 -4 -6 7 0 4 -1
1532262477068607 -4 -6 -4 -3 -6 9 -4 -5
1532262477082571 3 3 4 6 2 -2 -6 -1
1532262477106506 -2 -4 -4 -9 -14 -7 0 2
1532262477158368 -2 0 -2 -2 3 3 3 -1
1532262477165349 0 0 2 -1 -10 -14 -4 1
1532262477207238 -2 -2 2 4 15 7 1 -2
1532262477213232 1 -1 2 12 24 2 0 0
1532262477226187 -3 -2 -3 -2 6 23 3 -1
1532262477332901 0 2 2 -1 4 6 7 1
1532262477368805 -2 -3 3 6 0 -5 -2 -1
1532262477406704 -1 0 2 0 2 -7 0 -2
1532262477436624 -1 -1 1 0 1 -24 -4 0
1532262477610160 -1 1 3 -1 -2 1 4 1
1532262477616144 -2 -3 -5 -6 1 -4 -1 0
1532262477646064 0 1 -6 -5 1 4 5 2
1532262477669003 -1 -4 -3 -8 6 -5 3 -4
1532262477750783 0 -5 0 4 -23 1 -7 -3
1532262477772725 -2 -14 -2 4 -4 4 -2 -1
1532262477945264 1 8 1 4 -15 16 2 0
1532262478015077 -2 -19 1 0 -11 9 -3 -1
1532262478059963 -1 -4 2 -4 20 -15 -6 -1
1532262478106847 2 -1 -3 -5 26 7 2 2
1532262478150714 -3 11 -4 0 8 11 1 1
1532262478171658 1 -71 -9 -6 -31 19 3 0
1532262478185621 -1 -9 5 -6 6 16 -3 -3
1532262478231498 -2 13 -12 5 -4 2 4 0
1532262478261418 -1 18 12 -2 -6 7 -2 -1
1532262478337215 -1 -7 -7 -1 -1 4 -5 -4
1532262478397056 -4 -28 -3 0 -6 -16 -1 -3
1532262478478837 -1 2 2 0 -13 7 2 0
1532262478545657 1 -8 -7 1 7 6 1 1
1532262478576588 2 1 4 -3 -19 3 6 2
1532262478614474 -2 -14 -8 -4 -17 -22 -5 -2
1532262478673317 0 -13 1 -1 -1 -16 7 0
1532262478726176 -4 -3 1 -7 -3 -1 -5 -2
1532262478748117 1 -11 -6 -4 -52 6 5 -1
1532262478771055 -7 -9 3 0 12 -13 -1 -3
1532262478832890 3 -1 -2 5 1 13 3 1
1532262478861813 1 17 -3 -1 9 -3 2 -3
1532262478959552 -4 -30 -6 -2 -2 -3 2 -2
1532262478981493 -12 -29 5 -7 -8 -65 -6 -1
1532262479034352 2 -34 0 -2 1 -4 -1 1
1532262479071252 -1 -4 1 0 3 1 0 1
1532262479131093 -9 1 -1 -1 -1 -3 -2 -3
1532262479177967 1 8 0 0 0 -2 -3 -1
1532262479275706 -1 8 -3 -3 -3 -1 -1 -1
1532262479311610 2 -8 -5 -1 9 23 1 4
1532262479347514 0 -18 -2 2 0 -20 4 -5
1532262479401370 12 19 3 -10 -7 -37 -8 -7
1532262479530026 -11 -13 -5 -8 0 14 4 -3
1532262479551967 -7 1 -3 -2 -4 -30 4 -4
1532262479597861 -1 14 2 -2 -13 12 14 -7
1532262479603829 -1 -12 1 4 -19 -72 -35 -10
1532262479656687 4 -30 -8 -3 17 14 10 1
1532262479693588 -1 -12 -5 -3 -14 46 -2 1
1532262479730490 0 -16 -15 -10 -24 4 2 4
1532262479760409 -7 -9 0 -2 -15 3 -2 -1
1532262479769386 -15 -16 -3 -7 17 17 -9 -3
1532262479806310 3 -1 -3 -19 -15 33 4 0
1532262479829249 -9 -3 1 15 28 24 -4 -2
1532262479874128 1 3 1 -12 10 -6 -1 0
1532262479889089 -1 -3 -1 -8 -37 -35 1 -2
1532262479925990 3 3 2 -4 2 -15 -9 -1
1532262480009766 0 -2 7 44 9 -6 4 0
1532262480108502 0 0 -2 -5 -7 -26 9 2
1532262480115483 -3 5 -2 3 16 17 7 -1
1532262480151387 -2 -5 -4 -2 -7 -14 -12 -2
1532262480174326 -3 6 3 4 1 -10 13 5
1532262480235177 -6 -2 1 -1 9 -1 -3 -1
1532262480348859 -1 -4 -5 2 6 -7 5 1
1532262480370801 -1 -1 -2 -7 -7 -18 -19 -2
1532262480467542 11 -9 -5 -1 3 -15 -12 1
1532262480491478 9 -4 -1 0 11 -21 -3 3
1532262480512429 -3 3 -1 -4 -20 -18 -5 -3
1532262480579243 1 7 -5 -2 3 11 0 -2
1532262480603179 1 -7 0 -4 0 -2 -2 -4
1532262480608166 0 -2 -1 3 14 7 4 -1
1532262480646065 -1 -4 -4 -2 4 -8 -3 -2
1532262480669003 -1 -1 -1 -3 -16 6 -6 -2
1532262480691942 -3 0 -1 -1 -1 -8 -6 -2
1532262480697926 0 0 0 0 -5 0 0 -2
1532262480714883 9 -3 -4 -3 -4 -2 0 0
1532262480758763 -2 6 0 0 4 -6 -2 -2
1532262480769734 1 -8 -3 -3 -4 -3 1 3
1532262480811622 -5 -4 -6 -4 -1 1 0 -1
1532262480835558 -2 0 -5 -4 -8 -11 -3 -1
1532262480848524 5 -2 -2 0 -5 34 5 3
1532262480926315 -1 0 -4 -5 -2 33 -2 1
1532262480940279 -19 3 -1 2 1 3 -3 1
1532262480975184 -2 -5 -6 -8 -10 -21 0 -3
1532262481007098 4 7 -1 1 -5 -35 3 0
1532262481021062 -2 -3 -5 -4 -6 -4 -4 -3
1532262481037019 1 1 1 1 0 14 6 0
1532262481059966 0 -4 2 0 2 1 1 -2
1532262481088880 -1 4 5 17 45 54 4 -1
1532262481132763 0 1 0 8 2 -19 -4 0
1532262481182630 1 4 -4 -11 -3 5 3 -5
1532262481187616 -7 5 2 -2 -27 -13 -4 -1
1532262481215541 3 2 3 0 4 1 0 2
1532262481260422 -12 7 1 7 8 10 -6 -8
1532262481275382 -6 -1 -2 -4 -18 -21 -2 -17
1532262481321282 1 -4 -4 -8 0 -4 2 4
1532262481358184 -3 -7 -3 -1 4 10 9 5
1532262481411042 2 -5 -4 -1 8 8 -1 0
1532262481457934 -4 0 2 2 0 -9 1 5
1532262481493821 -11 2 -1 -1 1 -11 -5 -7

1532262481546679 2 0 -1 -5 -8 1 3 1
1532262481598540 -1 0 0 0 -1 -5 -4 0
1532262481681319 3 -1 2 2 2 8 -8 9
1532262481735175 -4 -2 -1 -2 0 16 13 2
1532262481742157 2 -1 -1 0 -1 -8 9 0
1532262481764164 -4 -1 -1 0 1 4 -1 -12
1532262481779125 -3 2 0 1 0 6 -3 -5
1532262481801065 -7 0 0 -1 -1 3 8 4
1532262481816026 0 -1 -2 -1 -1 0 -2 2
1532262481837977 4 1 0 -1 -2 -5 -5 -2
1532262481861907 1 -1 -1 -1 -2 -17 -8 -5
1532262481875866 -2 -2 0 1 -1 0 -2 -1
1532262481943686 0 -1 -1 -1 -1 2 -5 -3
1532262481966623 4 -1 -2 -1 1 0 4 1
1532262481988564 -5 1 0 -1 2 9 3 -4
1532262482011503 0 0 -2 -1 0 9 3 -2
1532262482034442 13 -1 -1 1 0 -8 -3 -7
1532262482079322 -8 0 -2 -4 -1 -6 -2 -4
1532262482109242 -1 -1 -2 -1 0 -7 -6 -1
1532262482139161 2 -1 -1 -1 -2 0 -10 -4
1532262482198004 -3 -1 1 1 -2 0 1 -2
1532262482222951 2 -2 -1 -2 -1 -5 -9 -5
1532262482250863 1 1 0 -2 -1 2 0 -1
1532262482327658 1 0 0 -2 0 4 4 -1
1532262482333642 -1 0 -1 -2 0 7 2 -2
1532262482378521 -1 -2 0 -1 0 -5 0 4
1532262482409439 1 -2 -1 -1 0 -3 -3 0
1532262482424399 9 -1 -1 0 0 5 6 3
1532262482447338 6 0 -3 -4 -3 -3 -1 3
1532262482476260 -7 -2 -1 -2 -2 -1 -3 -3
1532262482506181 -4 0 -1 0 -1 -1 3 -3
1532262482523165 -6 -3 -1 0 -3 -12 -15 -5
1532262482574996 -4 -1 -2 0 -1 -5 0 -4
1532262482617882 0 -2 1 -2 -3 -3 -3 -1
1532262482677726 0 0 -3 -1 -3 -1 0 0
1532262482692682 -3 -1 0 -1 -2 -9 -4 -5
1532262482723599 -1 1 -1 -1 1 3 -7 -1
1532262482753518 -2 0 0 -3 -2 1 -2 0
1532262482761498 -2 0 -1 -1 -1 -5 2 0
1532262482784436 -5 -2 -3 -2 1 10 -1 -4
1532262482814356 1 0 0 -1 -9 -1 -2 1
1532262482844276 -3 -4 -2 -1 -1 2 2 -1
1532262482857242 0 -1 -2 1 0 -2 -1 -1
1532262482882175 3 -1 1 1 -1 -17 1 2
1532262482904116 -4 -4 -4 -8 14 30 -3 -6
1532262482918079 2 2 1 4 -9 -12 -1 2
1532262482927055 -4 -5 -2 -3 -3 3 -2 -1
1532262482963956 -1 2 -2 -12 -7 -1 -3 -1
1532262482977919 -1 -3 1 2 6 -3 -3 -3
1532262483000857 -2 0 1 -2 -15 -7 0 -1
1532262483032771 2 -3 -3 -5 3 3 1 0
1532262483085631 -2 -1 -3 -5 3 -6 4 -1
1532262483097598 1 -1 2 3 1 3 5 8
1532262483151455 2 0 -1 1 -3 -2 -2 -6
1532262483161428 3 -1 1 3 8 9 24 17
1532262483180377 -1 -4 -3 -4 -3 -7 -33 -2
1532262483187359 5 -4 -1 -1 3 2 -23 -16
1532262483217279 0 -1 0 4 5 -2 -3 -48
1532262483241215 -6 -4 -6 -14 -7 -3 5 12
1532262483278116 15 2 0 5 -35 -3 6 -3
1532262483362890 -7 -6 -5 -4 -2 2 10 -11
1532262483422730 -1 1 -1 2 -8 -23 6 -8
1532262483443673 0 -3 -3 -2 7 1 -1 13
1532262483466622 -4 0 -1 -9 14 1 -10 20
1532262483496543 -12 -12 -7 -10 -40 -4 -6 -3
1532262483519482 3 2 2 12 20 -13 -14 12
1532262483541423 15 5 3 11 4 8 29 72
1532262483660106 3 3 6 24 19 8 3 -29
1532262483716954 -5 0 -3 -14 2 4 4 -47
1532262483730916 -2 0 -4 -17 0 -15 -41 3
1532262483753856 14 6 -2 -2 -3 -3 15 48
1532262483774799 -9 -5 -2 -2 1 15 33 16
1532262483939359 -7 4 -8 -20 -15 -2 3 -49
1532262484000196 0 5 6 15 6 14 45 8
1532262484039092 -2 30 -7 -6 -7 -16 -25 -6
1532262484060036 -5 -7 5 0 -18 2 -21 -13
1532262484074996 7 -14 1 4 16 -3 -8 14
1532262484096937 9 20 -4 -7 5 12 36 22
1532262484109903 -5 -11 -4 -4 -24 5 -26 -16
1532262484165768 -5 -10 5 10 13 14 6 -19
1532262484192681 -20 3 -6 -31 -6 -8 -2 -1
1532262484230580 -1 -14 -4 -10 -3 -1 -4 -25
1532262484269476 0 0 0 5 0 -3 -22 -6
1532262484329316 0 16 2 -3 -2 14 -2 -4
1532262484343279 -1 -9 -2 -1 -3 -23 -7 -6
1532262484374196 -2 11 3 4 6 4 -5 -4
1532262484410100 -1 -5 -3 -6 2 -18 3 0
1532262484433038 -2 -8 -2 -11 -21 7 -1 -2
1532262484465950 1 -25 -3 3 36 24 0 2
1532262484478916 -3 -4 -2 -3 -59 -55 -4 -3
1532262484508835 -2 6 -4 -13 -40 -9 -1 1
1532262484522799 -4 -11 2 34 83 41 3 1
1532262484568676 0 16 -4 -21 -58 -22 -1 -2
1532262484598596 1 -9 -6 -11 -13 -15 0 1
1532262484681375 2 12 8 -3 -20 -10 0 -1
1532262484725257 0 -20 -2 -16 -101 -6 -3 0
1532262484745204 0 3 7 19 63 29 -1 -1
1532262484764153 2 19 2 -9 -21 -3 -1 1
1532262484793076 -3 6 2 -3 -10 11 3 -1
1532262484818009 0 8 -3 -5 37 0 -1 -1
1532262484868873 0 -7 -3 -9 11 -14 -3 -4
1532262484882835 -3 -8 3 21 30 38 3 -2
1532262484928713 -2 6 -1 -9 13 -7 1 -1
1532262484951652 0 12 -2 -10 4 7 1 0
1532262484996532 -3 -24 -2 4 11 -5 -4 -2
1532262485017475 9 27 6 22 53 23 1 -3
1532262485043407 -7 -24 2 -8 9 3 -8 -1
1532262485072329 -2 51 3 -1 -7 -3 -3 -3
1532262485109230 3 -14 1 13 5 8 2 1
1532262485131173 2 84 2 -9 -3 0 4 -1
1532262485146148 -1 -40 -5 2 -19 1 0 -1
1532262485205971 -4 -29 -2 0 31 0 -1 0
1532262485219934 -2 -18 -4 -1 -15 6 0 0
1532262485283763 0 5 -2 4 5 -4 -2 -1
1532262485305705 -1 16 1 -5 39 -9 -6 -3
1532262485365545 -3 5 4 8 -1 -6 -1 -2
1532262485372526 0 -2 -3 -10 -14 1 -1 0
1532262485431369 -2 2 -3 0 -2 3 -4 -1
1532262485445332 0 1 0 -11 30 6 1 1
1532262485498190 -14 -8 -1 0 -21 -4 4 -2
1532262485558030 0 -1 -1 -2 -4 -2 -3 -1
1532262485703643 -1 -1 -4 -2 -13 -26 0 0
1532262485717603 0 -4 -1 4 -7 6 -6 0
1532262485768467 2 -2 4 0 -4 -9 -2 2
1532262485805369 -3 -4 -3 4 -45 -72 -6 -3
1532262485860222 1 0 -2 -6 7 -23 1 -1
1532262485903108 0 -3 -2 -1 2 6 -4 -1
1532262485971923 -1 -2 -1 0 2 10 -3 0
1532262486031763 -1 -4 -3 -3 1 0 -11 -1
1532262486061683 -1 -1 0 0 -5 5 1 0
1532262486137480 -2 0 -3 -1 -1 4 -1 0
1532262486198335 -2 -2 -2 -3 -1 1 -5 -3
1532262486234222 2 0 -1 0 -1 -1 0 0
1532262486271123 -1 -2 -2 -3 -2 0 -2 -1
1532262486362878 0 -1 -2 -1 -1 0 -4 -1
1532262486407758 0 0 1 -1 -1 -5 0 -2
1532262486491534 -2 -1 -3 -1 -1 0 -3 -1
1532262486750840 0 -1 -1 -1 -1 0 -3 -1
1532262486759817 -2 -2 -1 -2 0 -3 -1 1
1532262486811678 -2 -2 0 -3 -1 -2 0 0
1532262486894456 -2 -1 -2 -2 0 1 0 0
1532262486907422 0 -1 -1 -1 -2 0 1 0
1532262486954296 -1 -1 -1 -1 -2 -2 -2 0
1532262486962275 0 0 -2 -1 -2 2 2 -1
1532262486987208 -2 -2 -1 -2 0 -3 1 0
1532262486998179 -1 -2 -2 -1 -1 -1 0 -2
1532262487030094 0 0 -1 -1 0 -2 1 -2
1532262487037075 0 -2 -2 -1 0 -1 -4 -1
1532262487087939 -2 -1 -1 0 -3 -4 -6 0
1532262487111875 -2 -1 -1 -1 1 4 2 0
1532262487163736 -2 -1 -1 -3 -1 -7 -4 -2
1532262487240531 -1 1 -3 0 -2 -1 0 -2
1532262487322312 -1 0 -1 -2 -2 -2 0 -3
1532262487330291 -2 -1 -2 -2 -1 1 0 -1
1532262487351235 -1 -1 0 0 -1 1 -7 -3
1532262487381155 2 1 0 1 0 -2 -4 -1
1532262487418056 -1 -1 -1 -2 -2 2 2 -3
1532262487436013 0 1 -1 2 -2 -3 -3 1
1532262487471912 0 -1 0 -1 -1 -2 -2 0
1532262487502829 -2 0 0 -2 1 -2 -6 0
1532262487590595 1 -3 -2 -4 -1 0 2 -2
1532262487605555 -1 -2 -3 -2 -2 -3 0 -3
1532262487635475 -1 -5 -4 -3 -2 1 10 2
1532262487673373 -1 -5 -3 -3 -2 -3 -10 0
1532262487740201 -3 -2 1 -1 -2 0 1 -2
1532262487778094 1 0 0 -2 1 1 3 0
1532262487797043 1 -2 -1 -1 -1 1 1 -1
1532262487871843 2 -3 -3 -1 0 -3 5 -1
1532262487878824 -1 0 -1 1 -3 -18 0 -1
1532262487935672 -2 -6 -13 -19 13 9 -2 -2
1532262488088264 1 1 1 1 1 -5 2 1
1532262488282744 1 -5 4 5 -5 -12 6 1
1532262488305683 0 -7 -2 -1 4 -12 0 0
1532262488433342 4 11 10 17 22 14 -1 0
1532262488454285 -5 -24 2 0 1 -5 0 -1
1532262488498168 -3 8 -5 -1 -11 -11 -3 -1
1532262488610866 -4 -11 -3 2 13 -2 5 1
1532262488629819 1 36 11 -2 -5 -5 2 -1
1532262488663726 -3 -7 -8 12 -7 -13 0 1
1532262488678685 -2 14 -4 -12 9 0 0 -1
1532262488738525 -2 9 2 -1 -22 -12 -6 -4
1532262488814322 -2 -8 -3 -5 -49 -26 -3 1
1532262488860200 -2 -60 -15 5 14 -9 1 -1
1532262488889125 4 -19 -4 7 0 0 -2 2
1532262488921047 9 -38 -19 -9 -1 -17 2 0
1532262488955944 -1 -8 -13 -4 -13 16 3 0
1532262488992845 5 -10 10 1 -11 -9 6 -1
1532262489031741 2 -16 8 19 16 23 -3 0
1532262489054683 0 22 -7 -3 18 -17 -7 -3
1532262489100557 1 34 3 -7 -17 21 1 -1
1532262489121501 1 -11 0 -1 -47 -12 -3 0
1532262489152418 -1 92 28 8 0 -14 -2 -2
1532262489219240 0 -13 3 -4 19 16 1 -2
1532262489242179 -2 -21 -2 0 5 1 -4 -2
1532262489278083 -7 13 -11 -6 -6 -8 -7 -3
1532262489301021 1 19 14 -3 -16 -37 -1 0
1532262489362856 -1 -27 -1 5 9 8 5 3
1532262489375823 -2 25 1 -1 5 35 1 -1
1532262489398759 6 1 -5 -2 -1 7 5 3
1532262489421698 -8 -19 5 6 4 5 -1 0
1532262489443640 1 4 1 8 2 -11 -1 0
1532262489473560 2 -11 -8 -9 -12 -8 -6 0
1532262489497509 -6 0 -5 -2 -6 -15 0 25
1532262489518439 -4 -10 1 1 1 -4 -9 6
1532262489557336 3 37 -1 -1 -4 3 -4 1
1532262489579277 3 4 4 0 -4 9 -2 -5
1532262489609197 -1 -8 0 2 15 1 12 -3
1532262489639117 -3 2 -10 6 -10 2 -5 -4
1532262489661059 -4 -26 -4 -9 -1 -8 -8 -5
1532262489736855 -5 -39 -11 -3 13 -2 5 4
1532262489780738 7 80 10 -1 -7 -5 6 2
1532262489812667 5 39 1 1 -2 -25 -10 1
1532262489826616 1 -7 0 -1 -19 -2 -6 -1
1532262489863517 -1 -8 2 4 8 18 2 1
1532262489877480 -2 -1 -4 3 15 27 10 -1
1532262489901416 -2 4 -1 1 -1 -7 -21 -4
1532262489924354 1 -3 -2 -4 13 13 4 3
1532262489985191 -1 5 3 -4 0 -4 -2 -1
1532262490006135 -1 -1 -1 14 71 26 5 -1
1532262490014114 0 0 3 8 4 50 10 0
1532262490058994 -3 -3 -8 -14 4 0 -6 -2
1532262490064978 0 -1 -1 -9 -6 5 -2 0
1532262490141772 -4 -4 0 15 11 -1 -9 -6
1532262490177677 -3 -2 -8 -17 -14 2 -2 0
1532262490223554 3 3 0 -14 18 8 13 1
1532262490284391 -2 7 1 -6 -3 7 -11 -4
1532262490306333 -2 -6 -7 10 16 5 3 0
1532262490345228 0 -3 -1 9 0 -2 -3 -1
1532262490463911 1 -4 3 0 -5 -4 -2 2
1532262490530733 -3 1 -1 0 4 3 -2 -3
1532262490613511 2 11 3 2 -18 -4 -2 0
1532262490667367 -4 54 18 4 4 1 12 -2
1532262490696290 15 14 8 -3 -2 -6 -12 -5
1532262490717234 -2 -7 -2 -1 -5 3 1 -1
1532262490749149 -2 6 2 3 0 -5 0 1
1532262490815970 0 0 -5 1 0 3 2 4
1532262490831937 0 1 -4 -1 2 1 -5 -2
1532262490871821 -5 3 5 -2 -10 -8 -1 -2
1532262490894759 -1 1 -2 -2 0 -8 3 -2
1532262490915704 1 3 -2 -1 0 -5 -5 0
1532262490943629 0 2 -2 -1 -6 9 -2 -3
1532262490966567 -1 1 -2 2 5 -14 -3 -1
1532262490987511 -1 4 1 -2 1 -1 2 0
1532262491025410 0 4 -1 -5 -6 -4 -10 -1
1532262491073282 0 -1 -1 2 9 6 -3 1
1532262491094228 -2 -4 -3 0 -1 0 5 -1
1532262491126141 -2 -4 0 -2 -8 -5 -3 -2
1532262491146087 -2 -13 -2 -1 -5 -1 4 0
1532262491191964 0 2 0 -1 -7 -15 -9 0
1532262491207922 -2 -19 -5 -1 -1 -2 2 0
1532262491219890 -1 -5 -2 -2 1 -2 -2 0
1532262491243826 0 -3 3 0 -5 -19 -2 2
1532262491273746 -2 -1 1 2 5 3 3 -3
1532262491303666 8 12 3 8 10 7 5 -12
1532262491351538 -9 -4 -1 -4 -8 -21 -13 -4
1532262491417362 3 -4 -3 -3 -3 -9 7 11
1532262491463239 -2 -7 3 8 10 8 3 -6
1532262491469223 12 -6 -1 3 3 -1 -6 -1
1532262491520087 -6 2 1 -6 -14 -16 -6 -3
1532262491544023 -4 -3 0 -3 2 -16 -1 0
1532262491610844 -4 2 -4 4 27 8 -3 -2
1532262491678663 -2 -4 -3 -8 -21 -5 -16 -3
1532262491688641 0 1 0 -1 -7 -7 -4 -3
1532262491754460 0 -5 -3 -4 -4 -19 4 -3
1532262491785378 -2 1 0 0 2 -9 0 -1
1532262491806322 0 0 0 -2 1 4 -1 -8
1532262491859180 0 -2 1 -2 -4 5 3 9
1532262491881122 0 -2 -1 -1 4 36 -2 11
1532262491905058 10 -1 -3 -2 0 -16 -7 -13
1532262491934978 -6 -1 1 2 2 8 -2 -15
1532262492000802 3 -1 -1 -1 -1 -20 1 4
1532262492024738 -11 -2 -4 -3 -4 6 -13 -64
1532262492046679 1 0 -1 0 -4 -34 0 9

1532262492068620 0 -2 0 -2 -1 -11 0 -6
1532262492106519 -3 0 -1 -1 -1 6 7 2
1532262492128460 -1 -2 0 0 -1 1 -2 7
1532262492144417 5 -1 -1 0 -1 -12 0 -8
1532262492167394 1 0 -2 -1 1 9 -5 -11
1532262492265117 -9 -4 -3 -3 -2 12 7 -6
1532262492303015 -2 0 -2 -2 -4 -10 -2 -3
1532262492314983 3 -2 1 0 -1 5 -3 -6
1532262492368856 2 -2 -1 -1 -1 6 -8 12
1532262492391778 18 -1 -1 0 -2 0 -3 5
1532262492502502 -3 -3 0 0 -2 5 0 2
1532262492571414 1 0 -1 0 0 0 -2 0
1532262492609313 0 -3 -2 0 -2 0 6 -6
1532262492631253 -2 -3 -1 -2 -4 0 -1 -3
1532262492669153 -1 -1 0 0 0 -5 -13 -3
1532262492728993 3 1 1 2 0 -8 -2 -2
1532262492742955 -1 0 0 0 -2 -16 -9 -2
1532262492788833 -3 -1 -2 -2 -2 -1 -6 -1
1532262492811771 2 -2 -1 -6 0 -5 -13 0
1532262492848673 3 4 0 3 2 -1 10 11
1532262492871611 -3 30 -3 -15 -9 -11 7 -5
1532262492908512 -3 -12 -2 -5 -8 -8 -4 -3
1532262492931451 3 2 -1 1 -6 -4 3 7
1532262492976331 -12 -14 -4 -4 -1 0 -30 -18
1532262492991291 1 -2 -1 0 -2 -7 -20 -2
1532262493036171 6 10 -1 -7 -5 -6 5 -2
1532262493068093 4 2 -3 -11 -1 35 1 -5
1532262493132912 5 0 1 2 -2 -9 1 3
1532262493238630 -1 1 -2 1 0 0 -4 -3
1532262493276529 -1 -2 0 0 -2 -1 -1 -2
1532262493320411 2 0 -2 -2 -1 -1 0 5
1532262493365291 8 -2 0 1 -1 1 6 30
1532262493421141 0 -1 0 0 -1 2 8 17
1532262493442085 -8 -2 -1 0 1 5 0 -3
1532262493471008 -2 9 2 2 -1 -2 7 1
1532262493484970 -6 -7 -2 0 -2 -1 11 -13
1532262493510904 3 1 -2 -1 -2 -1 -7 -8
1532262493531846 5 -2 -2 -1 0 7 9 2
1532262493553786 -3 -6 -1 -1 -1 -1 -2 -6
1532262493598667 0 0 2 0 -1 2 3 -1
1532262493630581 2 9 2 2 -26 -35 -1 -2
1532262493653531 2 1 0 0 -3 -7 2 -1
1532262493674464 3 6 -4 -13 -4 2 -1 0
1532262493725328 -4 -5 2 5 9 -35 -2 -2
1532262493740288 0 1 -1 2 13 -17 -1 1
1532262493795142 -2 -1 -1 1 -6 -1 17 19
1532262493809104 4 0 -2 -16 -1 -9 -3 -3
1532262493831046 22 -1 2 14 -17 -6 -62 -21
1532262493869942 -7 2 -3 -8 2 -6 31 -11
1532262493891883 -27 -5 -1 -2 5 9 -34 -12
1532262493951723 6 -1 0 27 29 19 31 6
1532262493973665 8 5 -2 -1 20 -12 -8 -25
1532262494033504 -1 1 5 22 -8 13 39 18
1532262494047467 6 3 -6 -11 -6 -1 -12 -47
1532262494108304 3 1 1 9 -9 -25 0 33
1532262494133238 22 3 3 -9 9 6 -46 9
1532262494199061 19 6 1 10 38 9 54 26
1532262494245936 -41 -11 -8 -13 -25 5 23 -4
1532262494274859 -23 -18 -6 -15 1 -3 -81 -11
1532262494311760 -78 -12 -1 23 -21 -5 37 22
1532262494357638 -18 -34 -6 -24 -4 6 -43 -15
1532262494409499 27 2 0 -6 37 4 7 46
1532262494432451 -5 -4 -2 -2 12 0 25 12
1532262494522197 -30 -5 -2 15 -6 0 -51 3
1532262494561093 3 8 0 17 5 -10 -37 -42
1532262494588021 20 -27 -6 14 -11 16 5 45
1532262494617941 11 -12 -3 -26 5 0 60 29
1532262494663818 -5 47 14 30 6 -3 10 -4
1532262494709696 -17 -10 -9 14 -3 3 18 40
1532262494725654 -7 43 -3 2 5 -2 -13 5
1532262494746597 6 -25 -2 25 -8 -17 20 11
1532262494775520 -29 -25 -2 4 8 -7 30 -3
1532262494793472 -6 -13 -4 1 -1 5 7 1
1532262494813419 -10 20 8 -11 -5 -1 11 1
1532262494835361 -6 -3 0 -4 -8 -5 15 2
1532262494850320 1 -35 -3 4 1 7 -2 1
1532262494873260 17 -6 -2 2 0 -6 13 -4
1532262494896198 -6 -5 -6 -1 16 -3 -2 0
1532262494933099 -7 -3 0 -4 -11 21 6 0
1532262494964015 -2 6 5 7 -15 -6 -4 -3
1532262495000917 -2 0 -8 -17 -26 -1 0 1
1532262495022858 -3 -3 -2 2 41 20 6 4
1532262495038816 -7 -29 -11 1 103 12 -1 -4
1532262495075717 -1 -14 -3 6 32 29 6 3
1532262495089679 3 13 0 6 23 37 6 1
1532262495113616 -3 -19 -9 -19 -3 -34 -5 -3
1532262495135557 2 -17 -6 -16 -103 -42 -9 0
1532262495165477 -2 14 -5 -19 -20 -21 -5 0
1532262495195397 0 0 6 12 47 -9 1 2
1532262495210357 1 3 6 7 -48 -8 -2 -1
1532262495248256 1 -44 -2 -2 23 18 -1 1
1532262495273189 -6 -18 -14 -22 15 -16 -2 -2
1532262495341007 1 4 2 2 59 22 0 -1
1532262495346992 0 10 -1 6 -76 -27 -2 0
1532262495375914 -1 7 -5 -26 -23 -8 1 1
1532262495391889 -1 6 -2 1 10 -1 1 -2
1532262495412816 3 13 13 40 -71 -14 1 1
1532262495451711 -2 -3 -2 -8 4 15 6 -2
1532262495473653 1 -1 4 18 -71 15 7 3
1532262495495594 -1 -4 -3 -7 5 -6 -5 -2
1532262495533493 2 -1 -2 -12 0 9 2 0
1532262495564410 -3 -6 -8 -8 19 11 -8 -1
1532262495616271 3 5 -1 -4 2 17 -1 0
1532262495631232 -2 7 -4 -2 -5 -12 0 -2
1532262495699050 -2 1 -5 -21 6 21 -6 -3
1532262495735952 2 -8 0 1 -2 -9 -8 1
1532262495757893 1 2 -2 0 -44 -19 -2 0
1532262495796789 -3 -4 -3 4 -32 3 -3 -2
1532262495840673 0 8 1 7 2 8 -4 -3
1532262495888544 -3 -25 -2 -3 -17 -7 1 -3
1532262495939408 -1 4 -1 3 17 0 -2 1
1532262495975312 0 2 2 9 11 3 1 1
1532262496023183 -1 0 -3 -1 3 -2 -1 0
1532262496051109 0 1 1 2 -7 4 2 -2
1532262496074048 -1 1 0 3 7 -1 -1 -1
1532262496141866 -2 -1 0 -1 0 -2 -2 -3
1532262496225642 -1 -2 -5 -1 -1 -12 -3 0
1532262496306439 -1 5 4 10 41 8 -4 -2
1532262496368261 3 5 -4 6 1 -23 1 1
1532262496381226 -4 1 5 6 8 17 3 -4
1532262496396186 -2 -5 -4 -4 -16 36 10 -1
1532262496434092 0 -1 0 -4 -41 -5 -3 0
1532262496448048 -4 -3 -3 -5 -14 -62 -3 -3
1532262496456026 -2 -2 1 5 -3 25 -21 -2
1532262496501903 2 -3 -4 3 -10 -11 2 3
1532262496523854 -2 0 0 -3 -1 -37 -1 0
1532262496583685 0 -2 -1 3 -3 -2 4 -1
1532262496704361 1 0 0 0 -3 -2 0 1
1532262496750240 -1 0 -2 -2 0 -4 -3 0
1532262496801104 1 -2 -1 -1 -1 4 6 1
1532262496816063 0 -2 0 -1 0 -8 -2 -4
1532262496839002 -1 0 0 1 -1 -6 -7 0
1532262496861941 -2 -2 -1 -2 1 -5 -2 2
1532262496875903 1 1 -2 0 0 -3 -2 0
1532262496899839 -2 -1 -2 1 0 -2 -4 -2
1532262496921781 1 0 -2 -1 -3 -2 1 -4
1532262496951702 -1 -2 -1 -2 -2 3 1 0
1532262497005557 0 0 0 -2 -1 5 -6 -2
1532262497021514 -3 -2 -3 -2 0 -2 4 -1
1532262497078361 -1 -1 -1 -2 -2 3 -3 -1
1532262497101301 0 -2 -3 -1 -3 2 1 -2
1532262497162137 -4 -2 -1 0 0 0 0 -2
1532262497184079 -1 1 0 0 -1 1 -6 0
1532262497229957 -1 -3 -1 -2 -2 -6 -3 -3
1532262497234943 -2 0 1 0 -3 -4 -2 -1
1532262497280821 -1 -1 -1 -1 -4 -2 -6 1
1532262497307749 -1 0 -1 -1 -1 -4 0 -1
1532262497341658 0 -3 -1 -1 1 9 3 1
1532262497415461 -2 -2 -1 0 1 7 1 -1
1532262497462335 1 0 0 1 0 -2 -3 3
1532262497484276 -1 0 -2 0 -1 -1 4 -1
1532262497506218 0 -2 -1 0 -2 -4 -3 0
1532262497523172 -2 -2 0 1 0 2 -1 1
1532262497544117 -1 -1 -2 0 0 0 4 -1
1532262497573039 -2 -1 0 -2 0 -8 -5 -2
1532262497594980 -1 -3 0 -2 1 -4 -1 -1
1532262497617919 1 0 -1 1 0 0 0 0
1532262497664794 -2 -2 -1 -3 -2 -1 -3 0
1532262497669780 -2 0 -2 -1 -2 -1 2 0
1532262497701694 -2 0 -1 -2 -2 2 -6 -3
1532262497723637 -3 -2 -1 -2 2 9 0 -2
1532262497754554 -2 0 0 -2 -1 -4 -2 -2
1532262497783477 0 2 0 0 0 -1 5 1
1532262497807413 1 -2 -1 -3 1 5 4 0
1532262497829354 -1 -1 0 -2 -3 -6 -4 -1
1532262497844314 1 -1 0 -1 1 -1 1 1
1532262497858277 -1 -1 -3 0 -1 0 0 -1
1532262497881214 -1 0 0 -1 -1 -4 -2 -1
1532262497904154 -1 -1 -1 -3 -2 0 -4 -4
1532262497918116 -1 -2 -2 -2 0 -2 2 -1
1532262497963994 0 -2 -1 -3 -1 -4 -14 -1
1532262497977956 0 -2 -1 0 -2 -1 1 0
1532262497984937 -1 0 -1 0 -3 -5 -4 -2
1532262498017850 0 -1 -1 0 0 -4 2 -1
1532262498049765 -2 -1 -1 -1 0 2 3 1
1532262498146506 -1 1 -1 0 -2 -1 -5 -3
1532262498152490 0 -2 -2 -2 -1 -2 8 1
1532262498242250 -2 -3 -1 -3 4 1 -1 -1
1532262498271172 1 -1 -2 3 15 38 2 -1
1532262498294110 -2 0 -1 13 13 2 0 -3
1532262498362927 2 5 -5 -24 23 -8 2 5
1532262498369908 -2 7 9 -27 -12 3 1 0
1532262498457673 0 -16 0 -6 -11 0 3 1
1532262498526489 -3 -3 -6 -3 20 8 3 -2
1532262498645172 -2 -5 1 -4 -8 7 -3 1
1532262498656152 -1 22 2 -2 -8 15 -1 -4
1532262498702020 -3 26 -6 2 -16 7 -2 -4
1532262498743907 -7 33 -2 -8 -7 3 1 -4
1532262498766846 -10 -59 9 -2 1 6 -1 -1
1532262498788789 5 16 -5 -4 1 11 -2 0
1532262498826686 3 20 -2 -5 6 4 -7 -2
1532262498847631 -2 15 1 -5 -11 -1 2 -2
1532262498894506 10 -19 -8 -23 -5 3 7 3
1532262498946367 2 2 0 -5 -5 -3 -3 1
1532262498997230 -3 -1 4 6 -23 9 5 -1
1532262499029150 -1 11 0 1 0 21 4 1
1532262499103946 0 -19 -10 0 11 10 -3 -1
1532262499148830 1 13 6 -4 6 11 -1 -1
1532262499223625 -11 -26 -4 -4 -2 1 -6 -3
1532262499246563 -8 -8 -2 -2 -2 1 2 -1
1532262499269503 -1 -13 -2 -1 -6 -9 -1 -2
1532262499314383 2 0 5 4 1 -7 -1 0
1532262499351283 -1 24 -3 0 11 13 0 -4
1532262499442041 0 1 -2 -3 2 4 -2 0
1532262499540784 2 1 3 -5 2 3 -2 1
1532262499583663 -1 -5 2 -7 -5 -4 0 -1
1532262499643503 -17 11 -1 2 0 32 -4 -5
1532262499652478 -11 -4 1 4 10 -12 8 -11
1532262499710324 -1 -4 -2 -1 -1 -3 5 1
1532262499796095 6 5 0 -5 -1 7 -10 -2
1532262499845961 2 6 2 7 8 4 -7 -2
1532262499868900 1 -35 -6 -5 -1 1 9 3
1532262499891838 -4 -16 1 0 -2 7 -4 -9
1532262499928739 -1 12 4 -1 12 -7 5 7
1532262500065375 -3 -23 -8 -5 -5 -31 2 -1
1532262500086318 -3 2 -2 3 -14 -12 -3 -3
1532262500109257 -3 -6 -5 -2 8 16 3 -4
1532262500122222 -1 0 8 2 4 -3 -7 -5
1532262500146158 1 -3 -3 -22 -8 -21 -8 1
1532262500183059 -3 -2 -6 -14 -33 -11 -5 -5
1532262500213977 -3 -1 0 16 -5 1 -2 -2
1532262500297753 -1 -2 -2 -7 -2 -1 -3 -2
1532262500400478 -4 0 -1 2 -20 -11 -10 -4
1532262500462313 -1 -3 -2 4 2 -5 0 0
1532262500581993 -1 -12 -3 -4 4 -3 -6 -4
1532262500633854 0 1 2 -4 -12 -11 -1 -4
1532262500679732 -4 5 1 -4 -14 -11 -1 -4
1532262500701673 -1 19 -4 -2 24 -6 -2 -1
1532262500708654 -4 -2 6 -3 15 5 -1 -2
1532262500746553 -11 23 -1 1 -9 -1 2 -5
1532262500791433 1 8 2 -1 -6 0 -4 3
1532262500816366 -1 3 1 -2 4 -5 3 -1
1532262500836313 0 -1 3 6 17 14 -1 -1
1532262500866233 -3 9 3 -4 -25 -7 0 -1
1532262500890169 -1 -6 -1 -2 -12 -8 -1 -1
1532262500903134 -3 -9 -2 0 2 7 0 1
1532262500934052 -1 -3 0 3 1 -2 -1 -1
1532262500978932 -3 5 -1 1 1 -6 1 -1
1532262501001870 -1 -4 -3 -1 -12 -9 -3 -2
1532262501023812 -1 10 4 1 0 3 -1 0
1532262501048745 1 -6 -3 -2 3 0 2 -2
1532262501160445 -6 -10 -5 -2 -5 -1 -1 -2
1532262501183385 0 0 2 0 -2 -9 0 -2
1532262501198344 -3 4 3 4 -2 -13 0 -1
1532262501248212 16 4 -7 -1 1 12 1 10
1532262501311043 -3 -2 0 -7 -3 -3 1 22
1532262501353929 9 1 -1 1 -7 -16 0 13
1532262501370902 9 -5 -1 5 29 53 2 -9
1532262501397811 -3 0 -1 -3 7 -26 -4 7
1532262501460643 12 -3 -1 -1 5 6 0 25
1532262501488569 3 2 -1 -2 0 -3 1 -1
1532262501511507 -5 -1 1 0 -5 -3 -1 4
1532262501534446 -2 -4 -2 -2 0 -3 3 7
1532262501556388 3 -1 -2 0 0 3 -2 9
1532262501578329 -7 -2 -2 0 -2 11 -6 4
1532262501607253 -2 -3 -1 -2 0 -6 4 5
1532262501632185 -11 -3 -2 0 -4 -3 -2 5
1532262501669086 5 -1 0 -1 -3 0 -3 -4
1532262501720947 -8 -2 -1 0 -1 -5 -2 -12
1532262501742889 3 1 0 -1 -1 4 -2 -8
1532262501754856 15 -3 -2 -3 -2 -3 -5 -4
1532262501787768 -4 -1 1 1 -3 -4 2 2
1532262501811704 7 -2 -2 -2 0 3 -1 2

1532262501856627 -3 0 -1 -2 -2 -8 -8 -6
1532262501894513 -5 1 -3 -1 -8 6 -9 -62
1532262501916454 -10 0 1 -2 0 -4 -3 2
1532262501930417 0 -1 1 2 13 -5 1 0
1532262502000230 -2 -1 -1 0 -3 1 2 22
1532262502036133 5 -1 -2 0 7 -4 0 24
1532262502081014 -7 -3 -2 -4 6 -1 -20 -6
1532262502133873 11 1 -1 0 23 -7 10 -6
1532262502156833 -4 1 0 -1 2 3 5 0
1532262502180769 -17 0 3 3 6 16 3 12
1532262502201792 -4 1 -1 -2 1 7 7 4
1532262502222736 5 -1 -1 -1 5 3 -2 1
1532262502252656 0 -3 -2 -2 0 -8 0 -6
1532262502276604 2 0 -1 -2 0 -2 0 -3
1532262502290567 8 -3 -2 -2 -1 -8 8 3
1532262502313505 2 -1 -4 -3 0 -1 -9 6
1532262502336481 -1 -2 -1 -1 -2 5 -8 -6
1532262502388343 2 -3 -2 0 -3 -11 -9 -15
1532262502410284 -6 0 -1 1 -1 -11 -8 -6
1532262502435217 2 -3 -3 -1 0 -4 0 -11
1532262502501041 6 -1 -2 -1 -3 -2 1 -6
1532262502523979 -12 -1 0 -1 -3 11 -5 -42
1532262502545921 4 -2 -1 -2 1 11 -4 -3
1532262502583858 20 -1 1 -1 -3 -4 2 14
1532262502590825 -4 1 -1 0 -1 -9 1 -8
1532262502613764 3 -1 -1 2 -1 0 1 2
1532262502636702 -1 1 -2 -1 0 3 -5 -4
1532262502650665 -1 -2 -3 -2 -3 -3 2 1
1532262502673613 -8 2 0 0 1 0 -2 -9
1532262502696542 -19 0 0 -2 -1 1 2 -6
1532262502757379 -1 -3 -1 0 0 -2 -1 -4
1532262502764361 0 -1 0 -1 -1 1 3 8
1532262502793284 3 -1 0 -1 -1 -6 -6 -5
1532262502831182 4 0 -1 -3 -1 1 1 2
1532262502876062 1 0 -2 0 -1 -1 -1 0
1532262502891022 -1 -1 0 -3 -3 -4 -1 -2
1532262502935902 1 -3 -1 -1 -3 0 -4 -2
1532262502951860 -2 0 -2 0 -1 0 -3 -1
1532262502980783 -1 -1 -3 0 0 2 3 -2
1532262503017683 -2 0 -1 -2 -1 2 9 -2
1532262503057577 1 -1 1 -4 -1 2 3 10
1532262503101459 -6 -2 -2 2 1 0 -6 -7
1532262503130382 0 -1 -2 0 0 -1 -1 -11
1532262503153321 -4 -3 -1 -3 0 -2 -6 -8
1532262503176259 2 -9 1 4 1 -3 0 7
1532262503190222 0 -1 -1 -3 -4 -3 1 0
1532262503213161 -1 -1 0 -2 0 5 2 5
1532262503236099 -3 0 -2 -3 -3 -7 -7 -4
1532262503274995 -1 -3 -2 1 -1 -28 -5 -2
1532262503295939 2 -1 -3 -3 -5 -31 -7 0
1532262503386696 -3 0 -2 0 1 10 -7 -2
1532262503410674 -1 9 1 0 -3 -4 1 -3
1532262503438598 -1 2 0 -5 -21 5 -2 -1
1532262503453558 -2 -3 -6 -15 -12 -13 -3 -3
1532262503475500 1 -2 -14 -29 20 -3 3 0
1532262503499435 1 -1 5 11 -3 -2 -4 -1
1532262503520380 0 -1 0 -2 -9 5 8 7
1532262503544316 -1 4 2 6 9 -4 -1 -6
1532262503566257 1 2 5 8 -2 6 10 10
1532262503581217 -4 -1 1 8 -5 -7 -27 -14
1532262503634076 -4 -3 -4 -4 -15 -19 -6 -17
1532262503657014 3 3 3 1 0 9 24 11
1532262503685937 -1 0 0 3 5 -6 -39 4
1532262503738796 16 5 0 -9 11 11 13 10
1532262503753756 10 -9 -9 -10 22 13 43 -3
1532262503814593 -6 -38 -3 2 37 -70 -13 71
1532262503913334 0 18 3 -1 -5 9 -62 12
1532262503918315 -6 18 2 7 -7 -1 32 -47
1532262503980151 -45 -15 9 27 15 -4 15 -41
1532262504016057 -84 8 1 -5 -41 -23 -104 -54
1532262504040012 -30 8 7 31 23 6 -15 1
1532262504097836 32 17 1 1 23 9 -24 -17
1532262504251425 3 -20 -14 -50 56 11 102 -22
1532262504270374 -3 2 -10 2 -19 -17 19 45
1532262504301292 28 1 -9 -24 -18 3 11 -15
1532262504339190 60 35 -17 -31 18 -25 5 0
1532262504375094 -3 -14 1 -3 1 4 5 10
1532262504445908 14 50 6 -8 -21 14 -3 -6
1532262504503764 10 7 -7 -5 -15 -12 -1 -3
1532262504555611 -3 37 12 -3 -58 -22 3 -1
1532262504580545 2 -21 4 31 -41 -33 -8 1
1532262504601489 -2 -10 -1 4 -19 0 2 2
1532262504624436 0 10 -8 -22 1 -10 1 -3
1532262504652353 -2 41 8 -7 -71 -30 -2 -2
1532262504663324 -5 -3 -4 -6 -25 -6 -7 -1
1532262504707224 3 1 -2 -1 65 35 4 -1
1532262504721169 -6 -19 -14 -38 67 27 5 -1
1532262504768044 -11 -12 -22 -45 41 -18 -4 -4
1532262504788987 1 -13 -1 14 -14 26 2 -1
1532262504817910 1 -3 8 17 49 -21 0 1
1532262504841846 3 -31 5 -15 -45 -18 6 1
1532262504854811 -1 -21 -5 17 29 7 0 -2
1532262504908667 -1 9 5 28 20 -3 -6 -4
1532262504922631 1 18 -1 -12 5 3 0 -2
1532262504931607 1 -6 5 10 38 -1 -2 0
1532262504961526 3 1 5 28 6 10 0 1
1532262504984465 2 6 2 9 -15 17 3 0
1532262505044305 -3 0 -1 0 2 9 1 0
1532262505082204 2 -7 7 16 -25 -9 -1 0
1532262505125089 1 -27 0 -11 -9 -30 1 -3
1532262505143041 -18 -8 10 23 19 10 -10 2
1532262505209862 -9 4 -8 -6 -41 -21 0 -2
1532262505223824 0 -38 0 6 35 7 6 6
1532262505247761 0 -21 2 14 0 10 -7 -3
1532262505252748 -23 -39 -11 -14 5 -9 7 0
1532262505322560 -2 -29 -4 -10 -28 -12 -18 -1
1532262505362454 6 3 -2 -23 -10 -10 -12 -6
1532262505374423 -4 -2 -7 -9 -23 -2 2 -2
1532262505381403 2 26 5 14 -15 18 12 3
1532262505425286 2 -15 3 -5 -25 -36 -7 2
1532262505457200 3 4 6 9 8 -5 2 2
1532262505487121 1 -13 -8 -14 12 10 -4 -1
1532262505548956 -3 21 1 0 -12 -19 3 0
1532262505605804 -1 -4 -4 -3 9 -1 -4 -2
1532262505659660 -7 1 -3 -1 8 5 0 -1
1532262505832198 -3 -1 0 0 -1 3 3 -1
1532262505886055 -8 -5 -2 -13 -3 2 5 -5
1532262505921957 -2 -2 -5 -5 18 6 6 0
1532262505957862 0 -2 10 7 15 2 4 1
1532262505966838 -3 -6 -2 -2 6 6 9 -1
1532262506003739 -3 -3 -3 0 -35 16 3 -1
1532262506025680 -2 2 1 -4 -48 2 1 -2
1532262506111451 1 1 1 7 41 -3 2 1
1532262506132395 -1 0 2 6 7 -31 -3 -2
1532262506156341 -1 1 1 -2 -9 -12 -3 -1
1532262506221158 1 -1 0 -2 1 3 -4 -3
1532262506266038 -3 -2 -3 -3 1 6 -4 0
1532262506325894 -1 -2 -2 -1 -1 -3 0 -1
1532262506385717 -2 -3 0 -1 -1 -7 1 -2
1532262506455540 -2 -2 -3 -2 0 -3 -8 -2
1532262506486448 -1 -1 0 -1 -1 -3 1 -1
1532262506514374 0 -2 -1 -1 -2 2 -4 -1
1532262506527339 -1 -1 0 -2 -1 -2 1 0
1532262506566234 0 -1 -1 -1 -1 0 -2 0
1532262506634054 -1 -3 -2 -3 -3 0 -1 -1
1532262506649025 1 -2 -1 -2 -1 -4 4 2
1532262506709851 0 1 -1 -1 1 -2 0 0
1532262506755728 0 1 -1 -1 -1 -3 -3 -2
1532262506806593 1 -1 -1 -2 -1 1 5 2
1532262506850475 -1 1 0 0 -2 1 3 0
1532262506972149 -1 0 -1 0 0 1 0 0
1532262507016032 0 1 -1 -1 -2 -1 4 1
1532262507031990 1 -2 0 -1 1 0 -3 0
1532262507047958 -3 -3 -1 0 -1 -2 0 1
1532262507070885 0 1 -1 -2 0 1 0 1
1532262507085863 -1 0 1 -1 -4 -9 -9 -1
1532262507107786 -1 0 -2 -1 -1 1 0 0
1532262507151679 -2 -1 -3 -2 -3 1 -5 -3
1532262507173611 -1 -1 -2 0 0 -2 1 -1
1532262507196550 0 1 0 0 -1 -5 0 -1
1532262507240432 -1 -1 -1 -2 0 -2 2 1
1532262507270352 -1 -1 -1 -2 0 1 2 0
1532262507303264 1 -1 -1 -2 -2 0 2 -2
1532262507310245 0 -1 -1 -1 -1 -1 1 -1
1532262507323211 0 0 1 0 -1 -2 -9 -2
1532262507345152 -1 -1 -2 -3 -1 -1 1 -1
1532262507354128 -1 0 -1 -1 -3 -3 -1 0
1532262507371083 -1 0 -1 -2 -1 0 0 -1
1532262507390037 0 0 -1 0 1 -2 -2 -1
1532262507436907 1 -1 -3 0 -2 -3 -6 0
1532262507527664 -1 1 -2 -2 -2 1 2 -1
1532262507580523 0 -1 -2 -1 -1 -3 2 1
1532262507609445 -1 0 -1 -1 0 -1 -6 0
1532262507639366 -2 -1 0 0 -1 0 4 0
1532262507669285 -2 2 -2 0 -1 3 -1 -4
1532262507730122 -1 -1 -1 -1 1 4 -12 -3
1532262507751067 1 0 -1 -1 0 -1 -7 0
1532262507796944 0 -2 0 -1 1 -33 -4 -3
1532262507847808 -3 -4 -7 -8 3 7 1 -2
1532262507862768 -2 -3 -5 -6 12 26 3 0
1532262507892688 -5 -5 -9 -28 -65 -4 -9 -5
1532262507915626 -1 -3 4 10 1 2 -1 -1
1532262507937568 1 1 1 5 20 -1 2 -1
1532262507955533 -3 -10 -2 0 8 0 2 0
1532262507970480 -1 3 0 -4 -31 -10 -5 1
1532262508051264 1 -9 8 27 5 -12 -5 0
1532262508096144 0 -3 -3 -2 27 15 0 -1
1532262508201862 -3 -25 -6 -1 0 0 -1 -3
1532262508245743 -3 15 1 3 -6 4 4 0
1532262508322538 -4 -30 -17 -5 5 1 5 0
1532262508352458 -2 -21 -6 -4 18 -1 -3 -3
1532262508434240 0 4 1 -5 6 3 -1 -2
1532262508494079 6 -45 -3 4 9 -2 7 6
1532262508523999 -12 -62 -3 6 2 5 11 -3
1532262508555914 -4 57 -4 3 -2 -6 1 -2
1532262508559904 0 6 1 7 5 -6 -2 0
1532262508585835 6 13 -1 6 12 5 10 2
1532262508604784 2 -5 2 -8 -10 -15 0 0
1532262508628719 1 -6 -4 -3 -8 -4 -8 -1
1532262508665621 -2 16 1 1 -2 -10 -7 -6
1532262508711498 -2 -22 0 -16 -19 1 -4 0
1532262508725461 -3 -3 -2 -1 2 36 0 -1
1532262508734437 -5 -22 7 -12 -2 -4 0 -1
1532262508785301 -2 -18 -5 -2 -7 6 2 -1
1532262508815221 1 -2 11 6 -4 0 -2 0
1532262508855114 -11 8 0 -9 -14 -8 -3 -1
1532262508884037 -42 -38 -10 -7 0 -63 -1 -4
1532262508927920 -3 2 -4 0 -7 -8 -3 -7
1532262508964821 -1 -9 -6 -6 1 -7 -10 -7
1532262509011695 4 23 -5 -2 -3 0 4 1
1532262509033637 -4 12 2 -9 0 -1 0 -2
1532262509048597 5 -14 0 5 4 -15 0 4
1532262509078517 3 -26 -13 -2 4 6 -2 1
1532262509115418 -7 3 -7 -14 -18 3 -3 -3
1532262509153316 3 -17 10 2 8 -2 2 -1
1532262509199194 3 34 19 24 6 -8 1 1
1532262509228125 -4 -24 -7 -18 -8 3 -6 -1
1532262509272997 2 -7 23 0 -16 5 -3 3
1532262509295935 1 -13 -14 -9 -4 -1 3 0
1532262509310896 3 -18 0 7 5 14 7 5
1532262509355775 16 -13 -2 2 5 19 6 5
1532262509387696 -2 -14 -4 4 2 -2 -6 -2
1532262509507370 1 31 -1 2 -1 4 2 -1
1532262509523327 -2 -4 -1 0 0 -6 4 0
1532262509573204 -3 -11 -7 1 -3 -14 6 0
1532262509619071 -7 -61 -20 -8 -5 39 -6 -4
1532262509732768 1 -18 3 1 -58 -23 1 -2
1532262509762687 -2 -5 -7 -6 1 27 0 -1
1532262509835493 -2 4 -2 3 19 -14 2 -2
1532262509895333 0 -1 -2 -1 -14 -5 -11 -3
1532262510002047 -2 -1 -2 -4 44 1 7 -2
1532262510060890 -2 -1 -3 1 -29 -11 -13 -5
1532262510121727 1 0 -1 2 9 16 -1 3
1532262510166607 0 1 0 2 12 18 8 -1
1532262510205511 -4 0 -4 -7 -18 2 4 0
1532262510255370 3 3 3 5 -7 1 8 1
1532262510274320 -8 16 0 -6 12 25 -1 -8
1532262510325183 4 -9 -3 -3 -56 -9 -1 1
1532262510393002 -14 -3 -3 -4 4 -3 3 15
1532262510457828 12 12 -1 -3 -2 0 5 -4
1532262510572521 -10 -3 -6 -1 -17 -8 -1 6
1532262510595461 -7 -10 1 -1 -13 -6 -7 -5
1532262510600447 2 -1 0 1 -8 -5 9 3
1532262510676245 6 -1 -1 -1 4 -1 -1 0
1532262510690207 -3 -1 -1 0 -5 -10 -1 0
1532262510713146 -1 -4 -1 -3 20 14 0 1
1532262510736084 -3 0 -4 -2 -6 -3 -2 -3
1532262510760020 -11 -2 0 0 -3 3 -2 -6
1532262510781961 -4 -6 -3 -2 -1 -5 -1 -1
1532262510803903 1 -1 -4 -5 -8 -8 -5 -7
1532262510850778 2 1 2 -1 -1 -37 1 2
1532262510872720 2 1 -3 3 3 -19 0 -1
1532262510895658 2 2 -2 -2 3 40 -2 -2
1532262510902639 -5 7 0 -3 0 5 -2 -4
1532262510946522 5 -3 -1 0 1 2 0 3
1532262510953503 6 1 1 -3 -4 -1 -1 1
1532262511022319 -2 -5 -4 -2 -2 -4 -2 -5
1532262511028303 -2 -2 -1 0 -4 -7 0 0
1532262511163940 -3 -4 -1 3 13 -4 -11 1
1532262511209818 12 -4 -4 -3 -8 -2 -1 -5
1532262511239751 -11 0 0 0 7 2 11 5
1532262511283620 8 0 -1 -2 -3 -17 9 -6
1532262511297583 -5 -1 1 2 -1 -10 -2 -1
1532262511316532 -3 0 -4 1 5 -73 9 3
1532262511390335 9 2 0 -2 0 42 -1 13
1532262511449178 26 -1 -2 -4 -5 15 2 20
1532262511493060 -13 -1 -2 -3 -4 -9 -5 -2
1532262511538937 6 -2 -1 -3 0 -15 -8 6

1532262511599775 1 0 -1 2 1 4 1 -2
1532262511661609 -3 2 -2 -2 -2 -4 -1 2
1532262511719460 -5 -2 -1 -1 -1 -4 2 5
1532262511734414 1 -2 -4 -2 -1 17 -1 -8
1532262511756356 -5 0 -1 1 0 0 -16 -5
1532262511779295 -3 -2 0 0 -1 -4 1 -5
1532262511816196 2 0 0 0 1 0 4 0
1532262511838137 -3 0 -1 -1 -1 -5 6 -2
1532262511953031 1 0 -1 1 -2 -10 0 0
1532262511997912 -15 -4 -2 -2 0 -8 1 -63
1532262512041795 3 -2 -2 -1 -1 12 -1 4
1532262512101634 -6 1 -1 0 -2 -1 0 -8
1532262512115597 1 -3 -2 -1 0 7 -1 5
1532262512130557 -5 -2 -2 -3 -1 3 3 -8
1532262512161475 6 -1 0 -1 -1 3 3 6
1532262512216329 17 0 -2 -2 -2 8 10 -5
1532262512272179 -5 1 1 -2 -1 1 -5 2
1532262512304093 -5 -1 0 -2 0 -3 -1 1
1532262512379891 -6 -1 0 -2 1 5 -3 1
1532262512414797 2 0 1 0 -2 -2 -1 -2
1532262512499571 -2 -1 -1 0 -3 -1 -2 1
1532262512595314 -3 -1 -1 -1 1 0 -1 -2
1532262512619250 0 0 -3 0 -2 7 2 1
1532262512641191 0 -2 -1 -1 0 -3 -5 0
1532262512671112 -2 -1 -1 -1 -1 -5 -2 -1
1532262512701032 -1 -2 0 -2 0 -1 0 -1
1532262512822706 0 -2 -2 0 -1 -8 1 1
1532262512836669 -3 -1 -1 -1 0 -2 -3 -2
1532262512858610 -2 -3 -1 -1 -1 -3 -3 -2
1532262512881549 0 -1 -2 -1 -2 0 0 -2
1532262512903490 -1 -5 2 -3 -4 -16 -2 1
1532262512919447 -2 -6 -8 -2 0 0 0 0
1532262512941389 -2 2 0 5 18 9 -1 -1
1532262512985272 -4 -2 -4 -10 9 0 -2 0
1532262513114924 1 0 -2 -11 -22 -7 -2 0
1532262513129885 -2 -1 -12 -19 14 20 -1 -3
1532262513167784 -40 -5 -4 -9 -10 -11 32 30
1532262513182744 16 2 -6 -2 0 -31 -3 -60
1532262513226626 17 9 6 4 15 1 35 5
1532262513265522 -7 -3 -1 -1 -3 14 40 -1
1532262513330349 -4 0 -3 2 -1 14 -17 -8
1532262513399165 13 8 3 -2 9 -3 -32 -25
1532262513445042 -22 1 -2 -23 -10 7 -47 -79
1532262513466985 2 4 1 15 13 1 23 39
1532262513534801 -9 0 -8 -10 -9 3 -17 -88
1532262513573698 -14 -8 -4 -1 4 5 61 30
1532262513602621 -5 48 -1 -24 -7 -8 20 22
1532262513637527 14 6 -4 1 -6 -12 1 21
1532262513686396 -3 -14 -5 3 -17 7 56 -21
1532262513715320 -5 -7 2 16 10 0 -5 7
1532262513727287 -17 75 -1 -17 -24 -18 -17 -55
1532262513745239 16 -38 -3 -7 19 -11 -28 -28
1532262513768178 4 -9 1 -16 -13 23 4 10
1532262513789123 -6 37 34 22 28 4 -8 -74
1532262513827039 2 4 2 -3 -5 -1 -19 -20
1532262513878882 -16 0 5 13 3 -5 -17 -16
1532262513893841 23 39 3 -11 -17 1 5 31
1532262513916780 0 0 -10 -7 -1 -9 -13 -10
1532262513925757 1 -26 -3 0 5 0 -19 -31
1532262513947698 -4 11 -2 12 6 -5 15 13
1532262514006541 -1 5 -2 -4 -2 -2 1 -4
1532262514020503 -4 -2 -4 -3 0 -2 -6 1
1532262514045437 -1 -2 -1 -1 1 6 4 0
1532262514088321 1 4 1 0 2 12 -2 -3
1532262514103282 5 12 0 0 4 -6 -4 -2
1532262514128216 -3 -3 -7 -7 0 -20 -1 -1
1532262514149160 -7 -12 -5 -3 27 33 -2 -5
1532262514170103 2 -6 -3 -2 15 16 -1 -1
1532262514179080 -5 -12 -7 -9 -20 16 -1 -1
1532262514202032 -1 27 1 18 31 -2 3 1
1532262514223960 -1 4 2 9 8 -4 2 -1
1532262514246898 0 -17 -3 6 -30 -14 -2 -2
1532262514259864 -7 10 4 3 18 14 -1 -3
1532262514283799 5 19 6 8 23 -10 1 0
1532262514306741 0 14 5 2 12 1 0 1
1532262514344637 0 16 22 45 36 19 -1 2
1532262514367576 0 52 7 -8 5 2 1 -4
1532262514433399 0 21 -9 -25 -21 -10 -4 3
1532262514456338 0 3 -1 0 -38 6 -2 -1
1532262514464316 0 29 -7 -18 12 -6 -2 -1
1532262514515181 -1 40 8 38 13 5 3 0
1532262514546098 -1 1 2 0 18 0 -4 0
1532262514569043 -1 38 5 10 -10 -13 -1 -1
1532262514636855 -5 -18 -7 -19 8 8 2 -2
1532262514658796 5 66 7 -4 -10 11 10 0
1532262514665778 -4 74 13 2 3 5 -6 -1
1532262514690711 -2 -8 -6 -16 -9 -26 -14 -2
1532262514710668 -9 0 -12 -24 -6 -2 10 -2
1532262514737586 -1 -18 -1 7 -27 1 -1 -2
1532262514758539 6 42 8 2 24 4 0 1
1532262514777494 -3 -28 -1 1 0 6 -17 0
1532262514808397 -1 25 0 -1 -46 -19 -9 0
1532262514823371 -1 -24 -1 -7 0 12 9 -3
1532262514869233 -4 28 4 16 14 5 0 -3
1532262514883196 2 -4 1 4 1 4 -3 -2
1532262514914113 -2 8 2 3 95 -4 3 -1
1532262514943037 -2 8 5 7 8 -6 -28 -2
1532262514996892 -2 12 7 -15 -24 7 11 -1
1532262515012850 -2 -15 -6 0 9 0 1 0
1532262515033794 3 14 4 -6 -9 -4 -3 1
1532262515056733 -3 19 0 9 -25 -3 -3 -3
1532262515063714 -1 18 3 -3 -5 -3 -3 -1
1532262515108593 -2 4 -2 -2 -10 5 -2 -2
1532262515123554 2 -4 -1 -5 -3 0 -1 2
1532262515182397 -4 -3 0 3 12 6 0 1
1532262515230269 0 1 0 0 -3 5 -2 -3
1532262515281132 -2 -4 -2 -5 1 -2 0 -1
1532262515297094 -3 10 -1 -1 -4 -1 -1 -2
1532262515373900 0 -1 -1 -1 -5 -6 -4 -1
1532262515386850 -1 1 -2 -1 -5 -6 6 0
1532262515439708 0 3 -1 1 4 24 0 0
1532262515452673 0 3 0 -1 -6 -17 -4 -1
1532262515477607 2 -1 -1 -3 1 -19 1 1
1532262515515506 -3 -3 -5 7 5 12 2 -4
1532262515531463 -1 7 1 8 27 1 -4 -1
1532262515602274 0 -1 -5 -3 19 -5 -2 -1
1532262515626210 0 -1 -1 4 8 5 0 -1
1532262515649148 -1 -1 1 0 6 1 -2 -2
1532262515671090 -1 -1 -2 -2 3 6 -2 -1
1532262515716966 -2 -3 -2 0 11 6 -4 -4
1532262515745890 -1 -1 -1 -3 1 -5 0 -1
1532262515759852 0 -1 0 1 -2 7 2 0
1532262515798748 -1 0 0 0 1 6 -1 1
1532262515828668 0 -3 -1 -3 -3 -4 -2 -1
1532262515874546 -2 -1 0 -3 -3 -4 -8 -3
1532262515880530 -2 0 -2 0 -1 0 0 0
1532262515910449 -2 0 2 -1 2 -4 -2 2
1532262515949346 1 2 -1 0 0 -1 0 0
1532262515994226 0 0 0 2 1 1 3 -1
1532262516015169 0 0 -2 -2 -2 2 0 -2
1532262516091965 -2 -1 -2 -2 -2 -1 -1 -2
1532262516127868 -1 1 -1 0 -2 0 -11 -3
1532262516165767 0 -1 0 0 -2 -1 -2 0
1532262516211644 0 -1 -1 -2 -1 -4 -2 -1
1532262516225607 -1 0 -1 0 -1 -2 1 -1
1532262516271484 -1 -2 -1 1 -1 -5 0 -3
1532262516302401 0 -2 -1 -1 1 4 1 0
1532262516340300 -2 -2 0 -2 -1 -4 -1 0
1532262516408119 -1 -1 -1 -1 -1 2 3 -1
1532262516443025 -1 -2 -1 0 -2 -4 0 0
1532262516460978 -1 0 -2 -1 1 -1 -3 0
1532262516479926 0 -3 -2 -3 -3 5 2 -1
1532262516510844 -1 -1 -2 -2 -4 -1 -1 -1
1532262516557718 0 -1 -2 0 -2 5 3 0
1532262516698343 -1 1 -1 -2 0 2 -2 0
1532262516716294 -3 -2 -2 0 -1 -6 -8 -1
1532262516736241 -2 -2 -1 0 0 3 2 -2
1532262516773143 0 -1 -2 -2 -1 -1 -2 -1
1532262516789100 -2 -1 0 -2 -1 2 -3 -2
1532262516832982 -1 0 0 0 1 1 -1 1
1532262517016506 -1 -2 0 0 0 -3 -2 0
1532262517059377 -1 0 0 -2 2 3 2 1
1532262517148140 -3 -2 -2 -1 -1 -1 -6 -2
1532262517195014 1 -1 0 0 -1 -5 -1 -1
1532262517218961 -1 0 1 -1 2 -1 -1 -4
1532262517254854 -1 0 -1 -1 0 -4 3 0
1532262517283777 -1 -2 -1 -2 0 -1 -1 1
1532262517327660 -2 -2 0 -1 1 17 5 1
1532262517387500 0 1 1 -2 2 14 0 0
1532262517441356 -1 0 -5 -10 -2 10 -1 -4
1532262517540091 -2 -4 -3 -32 -3 -2 -1 -4
1532262517570012 -2 -2 1 -2 57 13 1 1
1532262517590956 -1 6 -1 -10 -5 -2 7 0
1532262517612897 1 -16 3 4 -14 -6 -1 0
1532262517695675 -4 -3 -4 -29 -11 -6 -4 -3
1532262517848268 -1 -4 -4 -13 -24 -7 0 -3
1532262517854252 -2 49 11 7 -6 1 -1 -1
1532262517878188 -4 -63 3 2 7 15 1 1
1532262517913094 5 68 12 -5 6 -7 5 3
1532262517950993 6 5 -8 2 -5 4 2 -1
1532262517972934 -1 -41 -12 -2 -1 3 -4 -1
1532262517996870 1 3 6 1 -3 -5 3 2
1532262518018812 -2 11 1 -13 -3 10 0 0
1532262518033772 -1 13 -5 -5 1 4 1 -1
1532262518101590 0 3 1 5 -2 -6 -7 -1
1532262518116550 -3 8 -1 -4 -3 -2 -5 -3
1532262518176390 -3 -14 -7 -5 -4 -21 -3 -4
1532262518190352 -1 14 -2 -2 -6 -10 -3 -2
1532262518251193 -1 -2 -3 -5 -22 0 -3 0
1532262518356908 9 21 0 3 -7 1 -2 0
1532262518379846 4 8 1 8 6 34 2 2
1532262518462625 3 15 -4 -2 -5 -8 2 0
1532262518529446 -2 13 -4 -4 -17 -3 -5 -3
1532262518552384 -1 -2 -3 2 -2 -7 -1 -2
1532262518679046 -5 -20 -2 -8 -5 9 -1 -3
1532262518716944 -5 4 4 4 1 -1 -1 -1
1532262518760827 2 3 2 1 3 5 1 2
1532262518806704 3 -1 -2 -1 -2 -4 -2 1
1532262518941345 17 3 -2 1 0 -4 -2 1
1532262518957302 2 5 1 -1 0 21 14 1
1532262518979243 2 -7 4 -2 -3 -2 1 2
1532262519000187 -5 22 -6 -11 -18 -2 2 -5
1532262519074988 -13 26 -12 -9 7 -33 -4 -5
1532262519089948 1 -6 1 -2 17 3 2 1
1532262519127846 0 -47 6 17 3 28 17 3
1532262519166742 3 32 -15 -5 -4 -10 5 2
1532262519203643 -3 -6 -1 3 -1 -17 -7 -4
1532262519241542 0 2 0 1 -6 -19 1 -2
1532262519339281 -4 -1 -6 -14 15 -18 -5 -3
1532262519361222 1 1 2 3 3 14 0 -1
1532262519422059 0 0 2 12 5 -1 -7 -2
1532262519436022 -2 -3 -2 -4 -8 -27 -5 -5
1532262519480902 -1 0 -2 -13 -20 0 -2 -3
1532262519541739 1 -9 -3 -9 -21 -1 -2 -2
1532262519586619 -2 -8 -1 -5 4 9 2 -1
1532262519631499 -1 -2 0 3 11 21 5 2
1532262519660422 0 -5 -2 -4 -11 -10 -13 -4
1532262519687350 -5 -4 0 7 23 9 4 -3
1532262519730235 -6 7 -2 -2 -33 -8 3 -2
1532262519781099 4 -11 -1 0 26 16 2 2
1532262519826976 0 -2 -2 -3 -16 -20 -4 -2
1532262519873851 5 12 -7 -2 -20 -7 -2 1
1532262519983558 -4 -9 -3 0 11 1 -4 0
1532262520067334 0 9 2 -4 -12 -3 -1 -1
1532262520095259 -2 5 1 1 3 -5 0 -2
1532262520194010 -1 30 9 1 10 2 3 0
1532262520305696 -2 -18 0 1 5 3 1 -1
1532262520332624 -6 -1 -6 -1 4 0 0 -7
1532262520382491 0 -2 0 1 0 6 0 3
1532262520403434 -3 -1 -4 1 1 -2 -2 -3
1532262520442331 3 2 -1 1 5 8 -1 1
1532262520463274 -2 -3 -3 -12 -17 -23 0 -2
1532262520510149 -2 -6 -2 -2 1 -16 -7 -6
1532262520516134 -1 1 2 -4 16 21 7 3
1532262520538075 0 0 -1 -1 -7 26 -1 -3
1532262520555029 3 -2 4 -2 37 32 0 -2
1532262520568007 -4 1 3 -3 -2 -14 -1 0
1532262520606906 3 0 1 1 1 5 -1 0
1532262520621850 0 -4 -3 -4 -5 -7 0 -10
1532262520643792 -3 -1 -3 -4 7 2 -4 -1
1532262520657755 -1 -2 0 -2 -1 -5 1 3
1532262520666731 -1 1 -1 2 1 -1 -1 4
1532262520703632 1 1 0 -1 1 -4 1 -1
1532262520726571 -2 -3 -1 -3 2 -1 -1 1
1532262520742527 -1 0 -2 1 -3 -6 -2 0
1532262520764469 -2 1 -1 -3 -3 -15 -9 -3
1532262520818327 -3 0 1 1 3 11 10 3
1532262520839269 -2 1 -4 0 -2 22 3 -1
1532262520864203 2 -4 -1 0 -2 -11 -5 0
1532262520892128 -2 -3 0 -1 -5 -8 -8 -3
1532262520943989 -1 -1 -2 1 -2 -53 1 0
1532262520966928 1 1 0 0 0 34 -3 -1
1532262521003829 -3 -2 -3 -1 -3 6 -7 -3

1532262521049707 -3 -4 -3 -4 -8 -6 2 -2
1532262521071648 0 1 1 2 3 -1 -3 2
1532262521093589 -3 1 -3 -1 4 8 -2 -3
1532262521146448 -1 -2 0 -3 -3 -7 0 -3
1532262521170384 -1 0 -2 -1 3 -2 1 -2
1532262521197311 -2 -1 -3 -1 -7 15 0 -2
1532262521221248 -2 -2 -3 5 -2 -6 1 -2
1532262521244187 -3 -3 4 4 -5 -3 3 -1
1532262521258149 -4 -2 5 -5 5 -4 -2 -4
1532262521281088 2 -4 -14 -30 -18 -4 -6 -1
1532262521304026 -2 0 8 9 8 -2 -2 -2
1532262521349904 3 28 39 25 3 5 2 4
1532262521363867 4 -45 4 32 11 3 1 1
1532262521400768 -11 1 -6 -5 -34 0 -4 -1
1532262521408746 4 5 17 9 4 -1 -6 0
1532262521449650 0 6 5 -6 -5 -1 -4 2
1532262521475568 -3 1 5 8 -2 6 -13 -3
1532262521485558 -3 2 0 4 10 17 -1 -2
1532262521508479 -3 2 -2 -6 7 -18 -7 -3
1532262521536406 -3 5 -1 -12 3 -14 0 -2
1532262521559344 -4 -5 -10 2 -6 -3 8 2
1532262521580288 2 0 6 -4 -8 0 -4 3
1532262521596245 0 19 -1 11 13 11 7 -1
1532262521640127 -12 2 -5 -2 -4 -31 -11 -15
1532262521649104 -4 -7 -14 -28 6 -7 7 2
1532262521699968 2 11 2 -8 -20 -3 -9 -3
1532262521714928 0 -13 -3 -8 -15 -9 0 3
1532262521746842 -1 8 2 -6 0 -7 -3 -2
1532262521759808 2 29 15 17 20 0 -3 -4
1532262521806683 -4 -2 -6 -4 4 0 -3 1
1532262521829621 1 4 2 -10 4 2 4 1
1532262521857546 0 1 -6 -10 -14 4 -5 -3
1532262521895444 -1 -14 -7 -14 3 -7 -6 -3
1532262521910405 1 9 8 13 30 11 5 -1
1532262521964261 0 -14 0 -5 3 0 -4 0
1532262521986202 0 0 3 35 18 -3 -5 -1
1532262522000164 0 7 1 -2 -7 -1 0 -1
1532262522024101 0 8 7 32 18 1 -4 -1
1532262522046042 3 -2 -7 0 1 -3 5 4
1532262522060005 -2 -2 -4 -14 0 -1 -1 -3
1532262522106880 -2 0 -2 -17 -1 -1 -1 -1
1532262522119845 -2 7 -5 -19 -12 0 1 1
1532262522143781 -3 -13 -4 -14 11 -3 1 -1
1532262522166720 -1 15 7 9 -5 -2 0 1
1532262522179685 -1 -14 -6 33 -6 4 -3 -1
1532262522205615 2 15 10 -9 -3 -9 2 0
1532262522211600 -4 -18 -3 5 -6 -4 0 -2
1532262522240531 2 2 2 -4 4 0 1 2
1532262522270442 0 19 -1 -13 -14 -1 -1 1
1532262522324298 -2 8 2 -7 -19 -2 2 -2
1532262522369178 3 25 8 1 -17 -2 -4 0
1532262522407077 -1 -2 0 21 2 -9 -1 -1
1532262522480880 -4 -5 -6 17 26 3 0 -2
1532262522502822 -3 -25 -1 2 -35 -9 -7 -1
1532262522532741 -1 -44 -6 14 21 -7 -3 -2
1532262522586650 0 11 7 -1 -9 1 1 1
1532262522608639 2 -13 2 11 -3 -1 2 -2
1532262522646538 -3 -12 -2 -20 -25 -45 -8 -7
1532262522676458 1 -4 2 -8 -1 -13 -16 0
1532262522691418 -3 -10 -1 6 -7 11 -1 -1
1532262522744277 -1 -2 -7 -4 -18 31 19 4
1532262522798133 0 -1 -2 -16 -26 -23 9 -4
1532262522813092 2 -11 -8 -1 -28 -10 -2 2
1532262522842015 -5 4 0 -15 -18 -70 -29 -10
1532262522862959 1 -1 11 1 11 19 7 3
1532262522871940 4 11 17 57 45 8 16 4
1532262522908837 -2 -5 -3 1 9 31 -6 -8
1532262522922799 -2 -29 -16 -13 -7 -5 -10 0
1532262522953716 -2 34 -11 -10 -11 -18 -7 -3
1532262522959701 -1 -1 -4 -7 -9 -23 -10 -5
1532262522990618 -2 -4 -8 0 11 11 10 1
1532262523012560 4 0 -1 1 -2 1 16 2
1532262523050458 1 17 4 -14 0 51 -17 -2
1532262523069409 0 -2 -4 -18 -19 11 17 4
1532262523111295 -1 -3 -4 4 5 23 40 1
1532262523163157 -2 -11 2 -1 1 -9 -3 1
1532262523172132 -3 5 -3 -6 0 -16 -13 -3
1532262523209034 -1 -3 -6 17 13 17 5 3
1532262523238953 0 -8 -3 -7 -9 -5 2 -1
1532262523275855 -1 5 1 -2 -2 7 -1 -2
1532262523291812 0 -3 -1 -2 2 15 -3 1
1532262523320735 -1 3 4 -5 -4 2 -3 -2
1532262523358646 -2 -2 -3 -2 -2 26 -1 -1
1532262523364632 1 1 -2 -3 0 3 -1 -2
1532262523396547 1 0 0 -2 -2 -13 6 0
1532262523434446 0 -3 0 -2 -1 6 -3 -3
1532262523450403 -2 -1 0 -1 -2 4 -1 -1
1532262523508248 0 -1 -2 1 -1 -6 2 -1
1532262523535176 0 1 0 -1 2 3 -3 1
1532262523591027 -5 -1 -5 -22 -11 -3 -6 -7
1532262523612968 3 3 4 14 20 27 5 2
1532262523643886 -6 -6 -9 -6 -6 11 0 -6
1532262523650867 1 2 1 -4 -72 -39 0 0
1532262523711130 1 -5 -5 -4 -5 -4 -3 0
1532262523725092 3 4 5 -2 -14 -12 -1 5
1532262523771967 -1 2 1 1 -7 5 -6 -1
1532262523801887 6 -1 -5 -1 2 -7 4 10
1532262523882670 -3 0 -2 2 -4 -15 -2 -2
1532262523917578 -8 -5 -3 -1 -16 18 1 3
1532262523930543 -1 0 1 0 -3 3 -5 -2
1532262523952484 -3 -1 -3 -3 -9 -13 -3 1
1532262523988388 -3 0 -2 -3 -2 16 3 -30
1532262524010329 1 -3 -2 -4 0 -12 -4 -2
1532262524041247 3 0 2 1 0 -16 8 5
1532262524055210 1 -1 -1 -2 -5 11 -3 1
1532262524125023 -2 0 -1 1 -1 -13 -3 1
1532262524133002 2 -1 -3 -1 -4 -10 -1 -3
1532262524169935 1 1 0 -1 -10 -10 6 1
1532262524190878 -3 0 -2 0 0 -1 4 0
1532262524213816 1 -1 -1 0 2 -30 4 -1
1532262524228776 1 1 0 -1 -2 16 -3 -2
1532262524250718 0 -1 -1 -1 -1 11 1 0
1532262524273668 -1 0 0 -1 -3 6 -6 -1
1532262524310558 0 4 1 0 3 -19 3 -1
1532262524340478 0 -2 1 3 8 1 0 -2
1532262524402312 -2 1 0 2 6 20 10 -1
1532262524424253 0 -1 -1 0 -3 -13 -6 -1
1532262524484094 -1 -2 -3 -8 -10 -66 -5 -1
1532262524522990 1 2 2 3 -2 23 6 1
1532262524550914 1 2 1 -2 14 45 4 0
1532262524587817 -1 1 0 10 12 50 -6 2
1532262524610758 -3 -3 -1 -1 2 -71 -16 -5
