1532262218844117 -4 6 -2 -3 -2 0 -2 -1
1532262218949825 0 2 1 1 -2 -3 5 -1
1532262219001686 -2 0 -2 -2 -1 6 1 -1
1532262219038589 -2 0 0 -1 -1 3 0 -2
1532262219061534 -3 -3 -4 -4 -2 -2 -1 0
1532262219100422 2 0 -1 -2 0 2 -4 -1
1532262219150288 -2 -2 -1 -2 1 17 11 -2
1532262219182214 1 1 1 -1 -1 -3 0 1
1532262219191196 -1 -3 -2 -1 -2 1 3 -1
1532262219219104 -1 -2 -1 -1 0 3 3 -1
1532262219258998 1 0 -1 -3 -2 3 0 -2
1532262219278944 -1 0 -2 -2 -3 -3 -4 -1
1532262219316842 -1 -1 -2 -2 0 -1 0 1
1532262219375685 -2 -2 -4 -4 -2 1 0 -3
1532262219407600 -1 -2 -1 -1 -2 7 -3 -2
1532262219466443 -1 0 -1 0 -1 -18 -12 -2
1532262219660922 -1 -1 -1 -1 -2 1 -1 2
1532262219728741 -14 -2 -2 -2 -4 -13 1 4
1532262219795563 1 -2 -2 -3 2 4 -1 1
1532262219834459 0 -1 0 -1 -4 -22 -2 0
1532262219862384 1 0 -2 0 -2 2 -9 0
1532262219886328 -3 -1 -1 -1 -2 -19 0 3
1532262219931200 -1 -2 -1 1 -2 -21 5 3
1532262219937183 0 -1 -2 -1 -1 -3 7 -3
1532262219984058 -1 -3 -1 -1 -2 5 -3 -1
1532262220006000 -1 -1 0 -1 -1 3 0 0
1532262220075814 -1 0 -2 -2 -19 3 -1 -1
1532262220094763 2 0 -1 -5 38 23 3 1
1532262220126677 -4 -2 -4 -14 -4 12 0 -5
1532262220140640 1 3 -1 20 16 9 -3 0
1532262220171558 -1 3 2 -2 -17 -25 -10 -4
1532262220186517 3 2 7 26 68 30 17 6
1532262220208459 -3 -4 -11 1 11 8 -8 -1
1532262220240373 1 2 -1 -6 -15 -1 11 2
1532262220261317 -3 -4 -3 8 -21 -2 -8 -5
1532262220332128 -2 -1 -1 10 16 4 -16 -6
1532262220353073 -4 -2 -1 -7 -23 -10 -2 -4
1532262220388976 1 -2 -3 -5 -4 -23 4 2
1532262220404933 -12 -2 -2 -2 2 2 4 1
1532262220471755 9 -4 -2 4 20 -16 18 4
1532262220515638 -36 0 2 6 18 43 11 18
1532262220598415 -15 -3 -1 0 21 15 9 13
1532262220646287 14 3 0 1 1 -28 1 -13
1532262220690171 -2 0 2 3 17 14 10 -10
1532262220706129 8 1 -3 -3 1 0 0 16
1532262220720091 -28 0 2 1 9 17 2 12
1532262220749013 -3 -2 -3 -5 -3 14 19 -6
1532262220785914 4 0 -2 -2 -24 -33 -16 -6
1532262220823813 -7 2 -2 1 4 -2 -9 -25
1532262220837777 -22 1 1 -2 -49 -19 -13 -26
1532262220855727 13 8 0 5 26 4 -6 -62
1532262220887643 70 -4 0 -3 6 15 18 79
1532262220906609 -34 3 1 -1 15 -6 -2 -13
1532262220943493 8 -9 -10 -7 -49 -20 -2 29
1532262221003333 -14 1 2 0 0 -21 -3 31
1532262221117029 3 1 0 -1 1 -4 -6 -3
1532262221153930 -4 -3 -3 -2 -6 -6 0 1
1532262221236709 2 14 7 4 20 -4 8 2
1532262221272613 0 4 6 9 3 14 9 5
1532262221327466 -2 -4 1 -6 2 2 -17 -10
1532262221393302 -2 -3 -3 0 -13 -23 25 -2
1532262221478063 2 -10 -2 7 10 3 13 1
1532262221500005 -7 -5 -3 -7 16 20 20 11
1532262221542890 0 -1 0 -1 -9 -15 14 8
1532262221693487 9 1 2 -1 -2 2 -20 -20
1532262221712437 -5 0 1 0 0 -2 4 2
1532262221732384 3 3 2 9 -12 8 22 13
1532262221755322 -5 -4 -3 -6 2 -1 6 -2
1532262221799204 -2 -3 -5 -15 -4 -15 33 21
1532262221805189 -3 -1 1 -4 -2 -31 -25 -16
1532262221912901 17 1 0 -11 -3 6 3 -33
1532262221941823 7 -1 -3 0 -10 4 28 98
1532262221987701 1 0 -3 -4 -15 -15 -42 -62
1532262222257978 -13 26 -2 -4 -37 3 -23 -43
1532262222287897 -4 2 -1 -2 -1 -7 -1 6
1532262222315824 -10 6 4 2 -1 -5 -11 -2
1532262222338762 -4 -50 -14 -13 -4 5 44 -25
1532262222367685 1 -14 1 -3 3 14 -10 -9
1532262222390628 1 9 12 17 7 -1 33 -3
1532262222475397 -12 2 -3 1 1 12 -21 -59
1532262222497338 0 -4 -3 -8 -16 -47 0 18
1532262222518281 3 11 42 4 4 14 -18 -25
1532262222550196 -7 -14 -44 -54 -12 -22 -34 -12
1532262222630980 -4 -7 -14 -31 -9 -3 -24 -3
1532262222704783 -3 3 7 1 3 -23 -4 -6
1532262222774596 -3 -4 -4 0 -5 -6 -38 6
1532262222866351 0 -1 2 7 5 4 15 17
1532262222887295 -1 0 0 1 -3 -18 3 -24
1532262222933175 1 10 -2 -9 -15 -14 -13 23
1532262222940154 2 -44 6 0 -2 -22 35 13
1532262223020938 2 8 -3 4 16 40 13 4
1532262223074793 -3 16 3 9 5 5 5 -14
1532262223097733 3 9 8 19 1 20 7 16
1532262223118677 -4 -15 -14 -4 -4 30 22 3
1532262223141614 -1 -10 0 -5 -8 -6 -6 -17
1532262223201455 -5 -2 12 -37 -5 -40 -3 -38
1532262223230377 -3 -1 -20 -31 0 0 5 -4
1532262223255323 -5 -7 -10 -26 6 -2 -19 4
1532262223374991 4 -6 -16 1 6 -7 1 6
1532262223395935 1 4 16 20 8 1 14 19
1532262223478714 -5 -7 -10 5 1 -5 3 -4
1532262223688153 -2 1 2 4 6 -2 -11 7
1532262223710094 4 -4 -2 -5 -4 -18 -5 -5
1532262223769934 -3 -2 1 2 -8 -5 -5 7
1532262223815812 1 7 14 25 66 54 12 6
1532262224019267 -4 -2 0 -2 -12 -9 2 3
1532262224117006 2 -1 0 -1 -8 -2 -2 3
1532262224131967 -1 1 -1 0 5 11 -3 -4
1532262224238682 1 -3 -2 1 4 -5 0 2
1532262224296527 -3 0 -3 0 -4 -23 -1 -2
1532262224418201 4 -2 -1 -1 -1 -24 1 -2
1532262224491006 -1 1 -2 0 -1 -3 7 0
1532262224529902 -3 -2 -3 -2 -2 2 1 -3
1532262224632627 1 -3 0 -1 0 9 -1 5
1532262224807161 3 0 -2 0 -2 -10 -5 1
1532262225159220 -1 -2 -1 -1 -1 1 -7 -4
1532262225195123 0 -3 -3 -2 0 5 0 -3
1532262225213076 -2 -3 0 2 0 -2 -1 -1
1532262225293860 1 2 -2 -3 -3 -6 5 1
1532262225332756 -1 -2 -3 -3 0 3 -3 -1
1532262225362675 0 1 -1 1 -1 -10 -3 -4
1532262225412542 0 0 1 -1 -2 -1 4 4
1532262225458419 0 -2 0 1 -1 -8 -4 -2
1532262225472383 0 -2 -3 -1 -1 1 -3 1
1532262225570120 -1 -1 2 2 0 9 0 0
1532262225603033 -1 2 1 1 0 -12 0 -2
1532262225676839 -2 -3 -2 -1 -1 -1 2 -2
1532262225698777 -2 -2 2 1 0 -2 0 0
1532262225736675 0 -1 0 -1 0 -3 -1 -1
1532262225783551 -2 0 -2 -1 -1 -5 0 0
1532262225827433 0 -3 -1 -2 -3 -2 -1 -2
1532262225902232 0 -1 -1 -1 -2 1 0 1
1532262225939134 0 -1 -1 1 -4 -4 -1 -1
1532262226020915 -1 0 -2 0 1 -2 0 -1
1532262226156556 -3 -2 1 0 2 -5 -2 -1
1532262226180488 -2 0 -3 -3 -2 -6 5 0
1532262226201432 0 0 -1 -4 -3 0 -1 -2
1532262226238334 -1 -2 -2 1 -2 -3 -2 0
1532262226299172 -2 -1 -2 0 -1 0 -4 -1
1532262226464728 -2 1 -2 -1 -1 -2 0 -1
1532262226471710 -1 -2 -1 -2 0 -1 2 -3

1532262226514596 -1 -2 -2 2 -2 -35 -3 -2
1532262226546510 0 -1 -1 -14 -5 17 6 0
1532262226660206 -3 -2 9 0 -9 3 -1 -3
1532262226720046 -2 1 7 12 7 9 3 2
1532262226735012 -7 -16 -10 -8 0 -4 3 -3
1532262226777891 2 9 -10 -6 -5 3 0 2
1532262226792851 -1 -28 -14 -10 1 -2 0 -3
1532262226860670 5 -6 -9 -11 -10 -8 -3 -2
1532262226929485 -3 18 -1 1 7 6 1 0
1532262227028301 -8 0 -3 -8 6 35 -2 -7
1532262227064196 -7 17 8 1 4 0 -4 -4
1532262227086132 0 7 2 2 20 -6 4 9
1532262227295573 -4 -5 -3 -4 34 -23 16 10
1532262227319487 2 -8 -1 17 -7 5 -44 -13
1532262227348435 6 6 14 31 14 -22 7 3
1532262227374339 -8 -4 -4 -5 11 -52 -15 -4
1532262227385310 1 -1 -2 -1 11 19 3 3
1532262227604723 3 -6 0 13 -29 -45 -8 -3
1532262227760328 -4 4 0 -10 14 19 8 -3
1532262227903946 -8 -1 0 6 19 -24 -9 -13
1532262227921905 -3 -1 -2 -4 -16 -4 2 -6
1532262227985727 -3 -2 -3 -3 0 7 -7 -1
1532262228137321 -4 -1 -1 -2 -3 20 5 9
1532262228183199 4 -2 0 0 -1 -11 5 3
1532262228190157 0 -3 -2 13 10 1 -3 -8
1532262228234063 -2 -3 -8 -9 -21 -30 1 0
1532262228255981 0 -1 0 -5 -9 4 1 2
1532262228301883 3 0 0 -1 17 40 -1 -4
1532262228323801 -12 0 -2 -1 -6 18 0 -1
1532262228376659 4 -1 1 -1 27 23 -3 -7
1532262228415585 5 2 2 1 -8 16 -17 -2
1532262228466450 18 1 -2 0 -1 2 2 2
1532262228511299 0 0 0 2 7 2 -6 -3
1532262228563183 -3 -1 2 0 -3 3 -3 -2
1532262228654915 -1 -1 -2 -2 0 1 0 11
1532262228692841 0 0 -1 1 2 9 1 -2
1532262228727744 -5 0 1 -1 1 0 -1 -4
1532262228773597 0 -1 -1 1 -2 -11 -19 -6
1532262228840419 -4 -1 -2 -4 -2 -3 0 -2
1532262228933193 -1 -2 -1 1 0 1 -9 -4
1532262229027940 3 -1 0 -2 -3 -3 -3 0
1532262229042901 -3 -1 -1 -1 0 0 -3 -3
1532262229089759 9 -3 -3 -3 -1 0 -1 1
1532262229133635 -2 0 -1 1 4 27 -9 -3
1532262229148595 -2 -1 0 -2 -4 -3 2 0
1532262229186493 -2 -3 -1 0 1 4 0 7
1532262229218408 -1 -1 -1 -1 0 -1 -3 -5
1532262229232394 -13 0 0 0 0 -6 -4 -4
1532262229247357 0 0 1 0 -2 -4 0 -3
1532262229282267 8 -1 -2 -2 -2 4 -1 -2
1532262229306191 -7 0 0 2 2 -12 -3 -8
1532262229328137 2 -1 -1 -2 -2 -3 -5 0
1532262229353073 -2 0 -2 -2 -5 -15 -1 -1
1532262229373992 0 -2 -1 -1 -1 5 2 -1
1532262229387977 0 1 1 1 -1 5 -1 0
1532262229425876 16 1 1 -1 -1 6 1 2
1532262229488708 -5 0 -1 -1 0 3 3 3
1532262229509629 -3 2 1 1 0 -1 -1 -3
1532262229522609 -13 -1 0 0 -1 -7 2 -4
1532262229568494 3 -1 -1 -2 -2 8 6 0
1532262229584429 5 -1 -3 -2 -4 -4 1 2
1532262229628312 0 -1 -1 1 1 -8 -7 -2
1532262229650252 1 -1 -2 0 -1 -6 3 1
1532262229680173 0 -2 -1 -2 -1 0 -1 0
1532262229718072 0 0 -3 0 -4 -23 6 1
1532262229751007 0 0 -1 -2 0 5 -3 -1
1532262229771951 -1 1 -1 -1 -2 9 1 -1
1532262229802868 -4 -3 -1 -2 0 2 -2 -2
1532262229831795 1 -1 0 -3 1 3 -3 -3
1532262229845753 0 -1 -1 -3 -1 2 -2 -5
1532262229867704 -1 -2 -1 0 -1 4 0 -1
1532262229890633 -1 0 -1 -1 -4 -20 -2 -3
1532262229952467 1 1 -2 -1 -2 5 2 -2
1532262230005303 -2 -3 -2 -1 0 -2 -3 -1
1532262230042204 -1 1 -3 -1 -1 3 0 -1
1532262230067166 -1 -1 2 0 0 8 -12 -3
1532262230073123 -5 -1 -1 -1 -2 -2 0 -1
1532262230108051 -1 -1 -4 0 -1 -1 0 0
1532262230160915 -2 -1 -3 -3 -2 3 1 1
1532262230167869 -1 -2 -2 -2 0 7 -1 -3
1532262230295551 1 -1 0 -2 -2 -9 -3 -2
1532262230342403 -5 0 -2 -2 -1 1 -1 0
1532262230371352 1 -1 -1 1 -1 12 0 -1
1532262230431192 -1 0 -2 -2 -3 -7 -1 0
1532262230552860 0 -1 0 0 -1 5 -4 -2
1532262230597743 -1 -1 0 2 0 -5 -1 -2
1532262230619683 -3 0 0 -1 -1 -6 -6 0
1532262230693486 1 -2 -3 -4 -4 -8 6 1
1532262230754301 -1 0 -1 -1 0 7 -2 -5
1532262230912900 -2 -1 0 -2 0 0 1 -4
1532262230955761 -4 -4 0 1 0 -1 -2 -5
1532262231009618 -2 2 0 0 -1 -2 -7 -7
1532262231056553 -2 0 -2 -3 1 4 -1 1
1532262231191132 0 -1 -2 -1 1 3 0 2
1532262231215097 0 -1 0 -1 -2 0 2 0
1532262231271944 -2 -1 0 -1 0 -1 -3 0
1532262231284910 0 -1 -2 1 0 0 -2 -4
1532262231421543 -1 -1 0 -2 -2 -4 -3 0
1532262231466397 0 -2 0 -1 1 2 -1 -1
1532262231511307 -1 -2 -2 -2 -1 -7 -1 1
1532262231594082 -3 -2 -2 -1 -1 -4 2 0
1532262231713756 0 0 -2 -1 -2 3 6 -1
1532262231743678 -1 -3 -1 -2 -2 1 1 2
1532262231863359 -1 -2 -2 -2 -2 -5 -6 1
1532262231962072 1 -1 -1 -2 0 1 2 -2
1532262232001964 -1 -1 -1 -3 -1 3 -3 -1
1532262232024903 0 1 -1 1 -1 -11 -8 -4
1532262232064797 -2 0 -1 -1 -1 -4 -1 0
1532262232096711 -1 0 -1 -1 -5 -19 -7 -3
1532262232148596 -1 -1 -2 -3 -1 4 8 0
1532262232217416 0 0 0 -1 0 -10 -1 -3
1532262232263265 -11 0 -2 -2 -2 -9 -7 -3
1532262232277255 2 -2 -3 -1 -1 -1 -2 -4
1532262232350034 1 -3 0 -2 -1 3 -2 0
1532262232395911 -1 -2 -3 -2 2 22 -14 7
1532262232487688 3 -2 -2 -1 -2 -4 -2 2
1532262232510631 11 -1 -2 -1 -1 6 6 4
1532262232561468 -2 -1 0 -1 -2 -11 1 -3
1532262232636291 -6 -3 -2 -5 -2 0 -6 -38
1532262232698103 5 -3 -4 -1 3 -2 0 4
1532262232718050 8 2 -3 -3 -30 -21 -5 -12
1532262232735005 -1 1 2 -4 -8 -10 0 -1
1532262232755950 2 -1 5 2 11 -41 -6 6
1532262232855681 6 -1 1 0 6 19 2 -4
1532262232867650 -2 -2 0 0 5 -5 4 1
1532262232906573 2 2 0 2 11 9 12 2
1532262232953420 9 1 1 3 12 -2 6 11
1532262232995332 -6 -2 -2 2 5 16 16 1
1532262233021239 -5 -1 -2 -5 -1 -4 8 -2
1532262233048189 -2 -1 -2 -1 -6 2 10 -10
1532262233092075 -3 1 4 -1 1 -1 0 26
1532262233123987 19 0 0 2 3 -15 -4 -2
1532262233161863 -26 -3 1 0 -5 -5 6 15
1532262233177820 8 -1 -5 -5 -2 -6 -9 -8
1532262233200759 -3 0 1 2 -1 -8 -2 -6
1532262233249628 6 -5 0 1 6 11 -1 -3
1532262233295532 9 4 0 3 3 -4 3 29
1532262233363348 3 -5 -6 -2 6 -3 6 -14
1532262233407207 -3 4 2 3 12 11 9 -8
1532262233461065 -42 -4 -3 -5 -9 -10 -27 -78
1532262233484001 8 -4 -3 -4 -10 16 -9 17
1532262233527906 26 3 -4 -5 2 -5 -1 -27
1532262233580743 11 4 5 4 15 2 1 40
1532262233641580 5 -12 -3 0 -18 -21 -12 0
1532262233686484 5 9 2 -2 -5 -9 4 15
1532262233708425 5 1 -2 -1 5 13 1 -7
1532262233761260 12 -1 -1 2 -1 -1 -1 -5
1532262233784221 3 2 1 -2 -3 -4 0 -1
1532262233814119 -1 0 -2 0 6 5 2 0
1532262233835062 -1 -3 -1 -1 0 -12 1 1
1532262233850022 -2 0 1 -3 -9 -11 -1 0
1532262233934812 -3 -4 -3 -5 -6 -12 2 2
1532262233966711 2 5 6 39 5 -36 1 -2
1532262233980685 -2 6 -6 0 -4 23 0 0
1532262234001640 1 23 4 -4 -2 -20 25 26
1532262234023559 -23 -24 -8 0 -7 -9 -47 -38
1532262234075420 5 -8 0 2 4 2 18 35
1532262234099356 -5 -10 1 1 -2 9 -14 -21
1532262234167202 10 3 3 -3 4 20 9 23
1532262234188146 -12 -7 -1 -12 -6 4 -1 -2
1532262234222055 8 5 7 17 10 12 -18 7
1532262234242972 17 6 3 -6 8 -9 10 52
1532262234250965 -1 -5 -9 -7 9 -4 -25 -27
1532262234277906 -10 -11 -11 -18 -11 15 52 24
1532262234300845 -18 -7 -5 -20 -24 -32 -69 -115
1532262234314810 -22 -3 3 35 4 -6 2 0
1532262234337741 29 -6 -2 0 -1 -22 9 94
1532262234415533 18 1 -7 -10 -5 -6 79 92
1532262234445458 21 24 -1 -10 -7 33 33 -1
1532262234519260 -9 -11 -1 0 -5 22 -5 -43
1532262234547165 12 0 1 -7 -28 -36 66 49
1532262234602012 -26 -5 -1 0 5 9 -39 -92
1532262234645894 -5 -2 -4 -8 -5 44 -7 22
1532262234692790 7 -2 -3 0 -5 -17 19 15
1532262234735677 -2 4 -3 2 2 -16 4 54
1532262234759590 -7 -6 -6 -5 2 -3 74 5
1532262234797517 -3 -1 1 2 13 0 6 18
1532262234819430 -8 -9 -3 -9 0 -4 5 12
1532262234848377 10 30 4 2 9 -34 -26 29
1532262234871291 -3 -40 10 47 17 12 68 -37
1532262234894230 1 -4 8 0 -8 -25 6 -43
1532262234916198 -8 8 -1 -7 -9 -8 11 2
1532262234990994 1 5 -5 -3 -2 -14 -10 7
1532262235035875 -1 -3 0 -1 7 2 -4 -28
1532262235074770 2 -3 1 -11 -13 19 -30 16
1532262235096689 1 0 4 10 3 21 -6 2
1532262235210385 2 -48 -3 0 2 9 22 5
1532262235238333 -1 -12 -2 0 -5 11 46 8
1532262235353026 -1 7 -1 -7 -2 -11 -20 -36
1532262235373947 2 -44 0 10 -3 13 -4 54
1532262235471713 -1 -9 -5 2 11 -38 3 8
1532262235606326 -5 4 2 12 6 57 1 -24
1532262235631292 3 2 1 -3 6 1 -6 26
1532262235637264 0 3 2 1 1 12 -20 9
1532262235682123 -2 -1 0 3 -6 -45 0 -11
1532262235752957 -1 -1 -3 -3 0 5 31 4
1532262235773878 1 1 1 1 -7 -38 6 -1
1532262235809804 -13 -3 -1 -1 -5 6 -14 -8
1532262235840726 -8 -1 -2 -3 0 -44 -5 1
1532262235862664 6 -4 -8 -13 -19 -10 0 -3
1532262235906524 3 1 0 5 -5 -32 -5 2
1532262235942454 -5 -10 -8 -13 3 37 -6 -3
1532262235960391 -10 5 7 2 38 -64 -3 0
1532262236094022 2 2 8 1 -39 -63 8 2
1532262236184802 7 -1 -1 -5 -43 -67 -9 -8
1532262236220711 -2 0 1 2 1 12 -13 15
1532262236298475 0 -3 0 -2 -1 28 11 7
1532262236447100 -5 0 -1 -2 -3 -8 -2 4
1532262236455084 -9 1 0 0 -1 0 6 -3
1532262236512925 1 -2 -1 -1 -2 13 9 0
1532262236617649 4 0 0 -2 -3 -18 -12 -4
1532262236741321 -4 0 0 -1 -2 -13 1 -5
1532262236986658 -6 -3 -4 -4 -5 0 3 -2
1532262237018549 3 0 -3 -2 0 -5 -3 1
1532262237084401 -1 -2 -1 0 0 7 -2 -4
1532262237146209 1 -1 -3 1 -1 3 -6 -1
1532262237257909 -2 -2 -1 -2 -2 -36 -4 -3
1532262237280848 -1 0 -2 2 1 12 -3 -5
1532262237330742 1 -2 -3 -1 -1 -6 2 4
1532262237399553 0 0 -1 -1 -4 -13 4 -6
1532262237573066 -18 -1 -1 -2 -4 -11 -2 -7
1532262237593037 -1 -3 -1 -2 -2 -4 -6 0
1532262237652853 -6 0 1 0 -2 -5 -2 -7
1532262237827415 8 -1 0 -1 -2 -6 -2 -2
1532262237850348 1 -1 -2 -2 3 22 -9 -3
1532262237885255 -3 -3 -3 -1 -1 -7 6 1
1532262238035858 0 1 1 1 1 3 -13 -1
1532262238068764 -4 1 -1 -3 -6 -14 18 -4
1532262238171497 -3 -1 0 -1 -2 -9 -2 2
1532262238360960 -1 -2 -3 -3 -5 -17 12 0
1532262238382901 -1 -2 1 -1 -1 -3 -6 -4
1532262238447728 4 -2 -1 -3 -3 -8 9 -3
1532262238510583 -2 0 0 1 0 -1 1 -11
1532262238560447 -2 0 0 -1 1 1 6 -2
1532262238585380 -4 0 -3 -1 -2 -10 0 0
1532262238683098 9 -1 -3 -1 -1 0 -5 -2
1532262238740944 2 -4 -4 -3 -1 1 9 -1

1532262238862641 -3 0 -2 1 -1 4 -12 -4
1532262238945420 6 1 0 1 0 12 -12 -1
1532262238966342 -4 -3 -5 -3 -5 -14 18 -1
1532262239012242 -2 3 2 0 1 11 -9 -6
1532262239237615 1 -1 2 1 0 0 -1 -2
1532262239325409 -1 1 2 0 3 9 -9 -4
1532262239350324 -1 -1 -1 -2 -3 -1 2 -1
1532262239482982 -1 -2 1 -1 -1 0 6 0
1532262239514902 -2 -1 0 -1 -1 5 6 -2
1532262239603637 1 0 -2 -3 -1 17 4 0
1532262239692426 -1 -2 -1 -1 -2 -2 -3 -1
1532262239753259 1 -1 0 -1 1 8 -10 -3
1532262239814074 0 -3 -2 -2 -2 -7 1 1
1532262239849978 2 -1 1 0 -2 -5 1 -1
1532262240001572 0 5 0 2 -1 -1 -4 1
1532262240046453 -1 -1 -2 -2 -1 0 -1 0
1532262240114272 -1 0 -1 1 -2 3 3 -1
1532262240187076 -2 -1 -1 -3 2 -7 -5 -3
1532262240198047 0 1 -1 0 -3 -3 -2 1
1532262240287808 -1 -2 0 1 -6 -6 3 -1
1532262240302792 -1 -4 0 -4 0 0 2 -2
1532262240324734 -1 1 0 1 -1 -10 -4 -4
1532262240342716 0 -1 0 0 0 -2 -10 -4
1532262240376603 -2 -2 0 -2 0 -3 1 0
1532262240398511 -3 0 0 1 1 10 2 -3
1532262240443419 -1 -2 -1 -1 -1 -5 2 -1
1532262240458379 -2 0 -2 -1 0 2 1 0
1532262240527190 -2 0 -1 -2 0 0 -1 -2
1532262240570076 -1 -1 -2 -1 0 -5 1 0
1532262240614953 0 0 0 -2 -2 -4 -3 -1
1532262240676767 -3 -2 -1 0 0 4 -1 -1
1532262240753573 0 -1 -2 -1 -1 1 -4 -3
1532262240924106 -1 -3 -2 -1 -3 -2 5 2
1532262240945061 -1 -1 1 1 0 5 -1 -2
1532262241020873 -2 0 0 2 -1 -3 -6 0
1532262241058773 1 -1 -1 0 0 4 0 4
1532262241088689 0 -2 -1 -1 -2 -3 -9 -4
1532262241201364 -1 0 -1 0 0 -1 -4 -2
1532262241222308 -2 -1 -1 -1 1 -4 -5 0
1532262241261204 -2 -2 -2 -2 0 -1 -1 -3
1532262241300127 -3 -1 -3 -4 -3 -3 -1 -1
1532262241349996 2 -1 0 -2 -13 -9 3 1
1532262241404820 -4 -6 -7 -7 -4 14 -6 -6
1532262241427782 21 -4 -10 -6 23 69 -5 -26
1532262241501584 -3 -2 2 3 -8 -7 -3 -3
1532262241532479 1 1 -1 -10 -10 -7 3 -1
1532262241575392 -4 -3 -4 -8 19 36 -5 -15
1532262241672105 -4 -3 -4 -1 3 20 1 -12
1532262241696069 -10 -2 -4 -4 18 19 -2 -17
1532262241778844 -1 -2 -1 -1 -7 -8 2 -20
1532262241846639 0 2 -1 -2 -5 8 -14 -8
1532262241892516 2 -1 -1 -1 4 7 4 -1
1532262241931440 -2 -2 -2 -4 -15 -13 -1 10
1532262241944377 3 0 1 0 4 -7 -7 10
1532262241997265 10 7 5 1 -10 -5 1 -3
1532262242064057 29 1 2 1 3 10 12 66
1532262242153840 -20 0 -7 0 -8 9 17 16
1532262242291470 -17 1 -1 -3 -8 -25 -21 -7
1532262242325379 16 1 -1 -1 -1 22 2 9
1532262242424094 1 -4 -4 -3 5 1 4 -5
1532262242469002 4 -1 -3 -5 -4 -1 -9 -2
1532262242569705 -9 -3 -1 4 9 5 5 20
1532262242604637 -5 -1 -1 -3 -1 -1 -3 -3
1532262242670459 7 -1 1 0 1 8 -2 8
1532262242837013 -1 8 -5 -1 0 10 2 -3
1532262242880900 -1 52 -1 -11 19 16 -13 -1
1532262243107290 -7 3 2 -9 3 1 3 -22
1532262243175109 -9 -4 1 -1 -10 0 -17 -2
1532262243195061 7 7 2 -16 4 -14 -65 -45
1532262243367595 14 -1 -5 -8 -3 61 98 49
1532262243451376 3 -12 0 5 5 17 7 97
1532262243497248 -4 -38 -4 -8 -15 10 -49 -11
1532262243504230 -34 -10 -5 -16 -13 -48 3 1
1532262243580025 -5 9 17 5 11 -4 35 -3
1532262243631892 -19 34 17 9 -20 38 -18 -29
1532262243682729 -13 27 -8 9 1 28 -27 10
1532262243705691 16 6 6 12 -10 -28 -18 11
1532262243797450 -38 23 8 8 -3 -14 -22 -4
1532262243865263 0 -14 -2 -14 -6 -16 49 1
1532262243887205 10 2 -3 -2 -10 -22 -19 5
1532262243968987 12 5 0 4 4 6 -35 -8
1532262243974975 11 3 9 10 12 22 -76 -21
1532262244028803 20 -4 -5 -10 -29 12 8 0
1532262244073706 -3 -13 -12 -13 31 73 28 -1
1532262244165461 -5 -27 -4 -14 -9 40 33 -5
1532262244328031 12 6 9 3 -5 -8 24 17
1532262244402826 2 12 6 2 -2 -15 1 11
1532262244510542 -14 48 -3 -5 -6 -33 -6 -6
1532262244531486 7 -12 -2 -5 7 31 11 1
1532262244568361 -19 -13 -1 -1 -4 -12 -23 -40
1532262244607279 13 6 4 -5 -4 19 0 18
1532262244683054 11 4 -6 -8 -4 6 -4 -16
1532262244719983 -10 -9 -4 -11 -6 6 -1 -7
1532262244831683 -2 4 10 3 -9 -11 6 10
1532262244898478 0 2 1 -1 -4 7 6 -4
1532262245065060 -2 0 -1 2 -3 7 -14 -11
1532262245086995 -2 -2 0 -3 -3 -7 -7 -8
1532262245101961 -4 1 -3 0 3 44 -3 -3
1532262245130876 -2 0 1 5 5 -2 1 -4
1532262245253528 2 19 -7 -3 -10 -25 -4 0
1532262245272477 2 -2 -2 1 12 -2 1 -3
1532262245297440 -5 -4 -2 -4 44 50 -4 -1
1532262245342316 1 -2 1 -11 -9 -15 6 2
1532262245371247 4 1 1 6 -4 -9 11 2
1532262245394176 -2 -3 -2 3 55 29 2 1
1532262245438057 -1 -7 -5 -4 -3 3 -2 5
1532262245483912 -7 -2 -2 -4 -15 2 -3 0
1532262245507857 0 -1 -6 -6 -19 -17 9 4
1532262245573672 3 -3 1 -2 2 -2 3 3
1532262245620574 2 -1 -2 -4 3 3 -3 1
1532262245694374 1 -1 -1 -2 -2 -4 -4 -2
1532262245739229 0 1 -1 0 -3 -1 -7 -1
1532262245745241 -1 0 0 0 2 8 0 0
1532262245828990 2 -1 -3 0 -3 -4 2 1
1532262245918749 -3 0 -1 -1 -2 0 -1 0
1532262246175064 0 -3 -3 -4 -3 1 -8 -3
1532262246294744 1 0 -2 -2 -2 -1 -4 2
1532262246384504 -3 -1 0 0 0 0 8 1
1532262246548090 -1 -1 1 -2 -1 -2 -1 1
1532262246730579 -3 -1 -2 0 0 1 1 -2
1532262246773465 -1 -4 -3 -1 0 -10 -4 -2
1532262246974925 -1 -1 -2 -2 -7 -10 -2 2
1532262247066680 2 0 -1 -1 -1 -2 -3 1
1532262247125547 0 -2 -2 -1 -2 -5 0 2
1532262247216307 -8 -2 -1 0 -1 4 -1 -2
1532262247308056 -3 -1 0 0 -3 -1 1 -1
1532262247315016 -5 1 -1 -1 -1 2 1 0
1532262247464615 -1 -2 -2 0 1 -1 -1 -1

1532262247563354 0 -3 -2 -3 -2 -1 3 4
1532262247585293 -1 -1 -3 -3 -3 0 4 0
1532262247613248 -10 4 2 1 18 -5 -3 -5
1532262247637155 -6 -1 -3 0 -48 24 3 -3
1532262247667101 5 0 0 2 30 0 -7 0
1532262247777801 -3 1 -2 0 1 1 -2 -6
1532262247824653 -8 -1 0 -1 -13 -2 -3 -4
1532262247876514 12 -1 -1 -2 -12 -6 -2 -6
1532262247898478 2 1 1 0 12 10 -3 2
1532262247920425 -4 -2 -1 -2 -4 -7 0 7
1532262247942360 16 0 -2 -2 4 6 -7 4
1532262247966291 13 0 -2 -4 8 -7 2 10
1532262248010180 -11 -2 -2 -2 -2 1 -6 -4
1532262248085982 -3 -2 1 2 -5 6 -1 -10
1532262248109903 -18 1 -1 0 -4 -5 -2 -4
1532262248138836 9 -3 -2 -3 -5 -2 -2 1
1532262248197678 -6 0 0 -1 -2 -2 5 -4
1532262248228596 1 -2 -3 -1 -1 1 -4 -2
1532262248288438 2 -2 0 0 -2 -2 -3 -4
1532262248395148 2 -1 1 -1 -2 -1 -2 2
1532262248410114 -7 0 0 0 0 -2 -3 -3
1532262248439015 0 0 0 -2 1 2 0 -1
1532262248514830 2 1 -1 0 0 1 -4 2
1532262248528771 9 -2 -3 -3 -3 -3 2 -3
1532262248565698 -2 -3 -1 0 0 -1 2 0
1532262248672386 -4 0 -1 -1 -1 2 0 -3
1532262248716296 -2 0 -1 -2 1 2 2 5
1532262248814032 -4 -1 -1 1 0 1 3 1
1532262248852904 -2 -4 -2 -1 0 -2 0 4
1532262248926730 -2 -1 -1 0 0 1 2 3
1532262249001530 6 -1 0 0 1 1 1 -2
1532262249053367 -2 -1 -1 0 0 -1 -2 -1
1532262249068350 -2 -2 -2 -3 -2 0 0 1
1532262249204985 -1 0 0 -1 0 -1 0 0
1532262249249842 3 4 8 3 4 -5 5 5
1532262249263822 -3 -2 -2 -1 -3 0 -1 0
1532262249301723 -9 0 -4 1 15 14 -3 -6
1532262249314668 3 1 1 -1 -4 -3 0 3
1532262249340600 -1 0 0 2 1 2 -3 1
1532262249390489 4 -1 4 11 6 14 2 8
1532262249407421 2 -1 -1 1 -38 -21 -5 -2
1532262249435346 -1 -3 -1 -2 -30 -7 0 0
1532262249505159 -1 1 3 5 5 -3 3 1
1532262249526126 -1 0 0 -2 -20 -7 -4 -3
1532262249564006 -2 -1 -1 -1 1 2 -1 0
1532262249692681 -3 -1 0 -1 -1 4 2 -2
1532262249901100 -2 0 0 -2 0 1 -5 0
1532262249968949 -4 0 -3 -1 -1 -4 -1 -5
1532262250103559 -1 -1 1 -1 1 1 -4 -3
1532262250163418 -1 -3 -4 -1 -3 -11 3 -1
1532262250223239 4 0 -1 7 0 31 10 11
1532262250321000 8 -1 2 7 8 24 2 6
1532262250357912 2 4 8 2 0 13 0 5
1532262250388796 -1 -1 -3 0 -16 3 8 -1
1532262250487555 2 0 -1 3 9 20 14 12
1532262250576320 -7 -1 -3 -4 -13 -7 0 -1
1532262250620178 8 6 4 1 5 5 -7 10
1532262250666083 21 -5 -3 0 0 -9 2 -3
1532262250905437 -24 -4 -4 0 5 34 -5 13
1532262250952313 18 3 0 0 -23 -4 2 -12
1532262251125825 10 2 -3 -2 -6 12 -12 -31
1532262251148764 1 5 5 3 8 -2 12 0
1532262251432031 -3 -6 -8 -9 -7 -24 -4 -3
1532262251550717 -6 21 2 2 5 -6 -22 6
1532262251702307 6 7 -1 -9 1 -2 -12 15
1532262251717271 -5 7 -3 -10 1 30 -21 -51
1532262251776109 -6 -20 -4 -3 8 -7 -6 -23
1532262251934662 6 3 7 -1 -8 6 25 -20
1532262251958623 29 7 2 -12 8 0 -34 -2
1532262252018438 15 4 3 4 -12 1 -53 -61
1532262252026417 -36 -17 -12 -21 -8 -19 -35 -9
1532262252045391 16 0 9 8 7 3 35 27
1532262252123161 -26 -1 -11 -26 -6 -8 -33 13
1532262252176016 -3 -23 -8 6 -18 -2 -41 -20
1532262252219927 -11 -1 1 -1 -5 -6 -4 55
1532262252467266 43 6 -1 3 -2 -32 39 53
1532262252542061 -3 3 0 2 -3 -26 34 57
1532262252557996 -6 -9 -6 -6 -3 20 -8 4
1532262252617862 -4 10 8 -3 -2 -9 23 3
1532262252654737 -45 -29 -6 -8 -22 2 -17 -3
1532262252682662 11 2 -10 18 8 -1 -20 -9
1532262252747489 -7 0 -1 -7 6 -21 -56 -39
1532262252769430 -3 32 4 -6 -13 -11 20 18
1532262252858213 -10 -14 -7 -29 1 16 34 -45
1532262252885145 -3 -3 1 16 4 6 30 1
1532262252976898 13 17 8 2 13 -3 23 29
1532262253072620 -1 21 10 6 1 -8 -41 10
1532262253133480 -1 -18 -11 -4 -15 0 -5 -20
1532262253172355 -10 0 -2 14 0 2 2 1
1532262253215238 18 5 -2 -24 -17 18 37 33
1532262253262133 -9 1 1 -12 19 25 -18 -4
1532262253308013 5 37 -5 10 0 -23 7 34
1532262253335939 -4 -23 -9 -7 15 -42 9 40
1532262253375809 0 8 -5 -7 -16 -10 27 -14
1532262253396776 -1 32 -12 -23 -2 -2 -51 -37
1532262253433677 -4 7 1 -6 -7 -6 18 -7
1532262253523438 -4 -30 -5 -7 -5 -8 17 10
1532262253560339 -4 -6 -2 -1 5 1 7 0
1532262253591256 -1 2 1 -1 -2 -1 -17 1
1532262253615169 0 2 0 -3 -1 -14 14 8
1532262253626140 -2 -11 -5 -4 -3 20 -4 -3
1532262253677003 0 9 4 1 1 8 2 0
1532262253697970 -14 0 -1 0 -6 -24 -9 -1
1532262253727890 -24 -2 -2 -3 9 -8 -8 -28
1532262253739836 -4 -9 -3 -2 -6 -6 -5 1
1532262253762774 5 4 2 3 3 3 4 -1
1532262253799695 2 1 0 -1 -1 -1 5 0
1532262253831617 3 3 3 -8 -24 -16 -12 2
1532262253845581 -3 -8 0 1 61 69 -1 2
1532262253882476 0 -6 -1 0 -3 9 3 1
1532262253945290 -1 -2 -1 4 34 11 -10 -4
1532262253980193 0 6 6 8 -6 -49 6 3
1532262254063995 -8 -7 -4 -9 9 -15 -8 -7
1532262254108871 -2 -7 4 -2 1 -14 5 -2
1532262254175692 1 4 0 -3 -44 -23 1 0
1532262254222545 -18 0 4 1 14 -8 -14 -16
1532262254242491 0 0 -4 -4 10 -7 -1 0
1532262254265430 1 1 2 -2 -11 -11 -3 -1
1532262254350203 0 -1 0 0 -1 -3 -4 2
1532262254459909 -3 -3 -2 -3 -1 4 -5 -2
1532262254484875 -2 -1 0 -2 4 5 2 0
1532262254544683 -1 -2 -2 -3 -1 -4 -2 0
1532262254558646 -2 1 0 1 0 0 -2 -5
1532262254656395 1 0 -2 -3 -1 5 2 2
1532262254778059 -1 -2 -2 -1 -2 -2 -1 -2
1532262254799030 -1 -1 -2 -3 0 -4 -2 0
1532262254813990 3 -1 -3 -1 -2 -1 4 2
1532262254836902 -2 -3 1 -2 -2 -1 3 -2
1532262254926684 -2 -3 -2 0 -1 -7 4 0
1532262254956586 -1 0 -1 0 -1 2 3 -1
1532262255015424 -3 -3 0 -2 -2 -1 1 2
1532262255041378 -2 -1 -2 -1 0 -4 -3 -1
1532262255092219 -1 0 -2 -1 2 3 -1 -3
1532262255227856 -3 -4 -3 -1 0 7 -5 0
1532262255271763 -1 -3 -1 -1 -1 -6 0 -3
1532262255338588 3 1 -1 1 -1 0 -10 -5
1532262255391419 -4 -2 -3 -2 -1 -3 1 0
1532262255528053 0 0 -2 2 -1 -5 -3 0
1532262255572947 -2 0 0 -3 0 0 0 -2
1532262255585933 -2 -4 -2 1 -1 -1 -1 -2
1532262255683669 -1 -2 0 0 -3 -10 7 1
1532262255738491 1 2 -3 -1 -1 1 9 -1
1532262255938977 -1 -1 -2 0 -1 3 0 0
1532262255952945 0 0 0 0 -1 4 -14 -3
1532262255999792 0 0 0 1 0 2 -3 0
1532262256067638 1 -2 -3 -2 -3 -5 8 1
1532262256088578 -1 -3 -4 -3 -4 -6 3 -3
1532262256103539 0 1 -1 -1 -2 5 -7 -3
1532262256132462 -1 1 0 1 1 -4 -8 -2
1532262256163378 -1 -1 1 0 1 4 -16 -4
1532262256179358 -1 0 -2 -1 0 -2 -11 -3
1532262256224215 -1 -1 -2 -1 -3 0 1 1
1532262256293008 -1 2 1 -1 0 1 9 1
1532262256338918 -3 1 -1 -1 -1 5 -1 -1
1532262256387777 -1 -1 -1 -2 -3 -4 3 -2
1532262256435654 -1 2 1 -1 -2 2 1 -2
1532262256442635 -2 -1 -2 -1 -1 1 -16 -4
1532262256462578 -1 -1 0 -1 1 14 1 -1
1532262256501474 -1 -3 -1 -1 -2 -32 -7 -1
1532262256540364 0 -4 -1 0 1 -11 -8 -4

1532262256561313 2 2 0 -3 1 -10 5 0
1532262256587221 -3 -1 4 1 -6 -23 -18 -5
1532262256616144 0 -8 -15 2 7 21 6 2
1532262256680996 2 2 -9 -10 -1 -4 -10 -16
1532262256754796 -5 -14 20 13 3 -2 0 -5
1532262256779729 -1 -12 -2 1 0 -3 2 4
1532262256823598 3 -2 3 10 13 6 5 -1
1532262256846550 -1 14 -2 -1 0 -1 -3 -4
1532262256868491 0 2 -4 -3 11 1 3 0
1532262256922347 1 -5 -3 4 10 -43 -7 -8
1532262256961221 -8 -10 0 -2 4 10 2 -18
1532262256983164 16 -10 -5 -6 -15 -9 -2 5
1532262257004134 9 6 1 -2 -32 12 0 0
1532262257042027 -8 -1 -4 9 18 3 -5 -2
1532262257079903 -7 -5 12 54 38 26 11 7
1532262257100874 15 -4 -6 -2 17 -14 5 2
1532262257123809 -7 -4 -5 -14 0 9 2 -1
1532262257177665 -2 -3 -2 7 11 -22 -2 -4
1532262257193627 7 10 -3 6 -3 -1 -8 4
1532262257214543 -2 -4 0 3 -57 -50 -15 1
1532262257260443 5 0 -3 -8 -41 5 -4 -6
1532262257266405 2 -3 -1 5 22 6 -14 -5
1532262257311308 -3 30 13 9 10 21 15 3
1532262257334223 7 -10 -5 -2 -3 13 -9 -8
1532262257379126 2 2 0 -14 -35 -4 13 3
1532262257403067 -4 -8 4 7 11 19 -5 -1
1532262257446948 8 4 -1 -1 -5 10 11 20
1532262257513772 17 4 5 -2 -13 -21 -12 -1
1532262257535685 -2 -3 1 -3 -19 2 0 0
1532262257545657 -13 -5 4 0 13 10 -4 -11
1532262257564636 1 7 1 0 17 -3 8 5
1532262257611505 2 -5 -5 0 2 27 -12 7
1532262257632426 1 0 0 4 0 -6 -7 9
1532262257687279 6 -4 2 11 -10 -12 16 0
1532262257748139 -3 -3 -5 -14 4 -7 -1 -4
1532262257770058 3 1 0 -1 -10 -11 5 -1
1532262257813962 5 -1 -2 0 0 -5 2 0
1532262257842896 -6 -3 0 -1 3 0 -10 1
1532262257888763 19 2 -3 0 -2 7 0 -14
1532262258007444 3 -3 -2 -4 -5 17 5 -9
1532262258128101 -1 -6 -1 -2 -24 37 -2 1
1532262258159040 -2 -7 -6 3 0 2 6 -2
1532262258249798 -2 0 0 -7 -20 -33 -9 -1
1532262258279695 2 2 -2 -4 -8 -3 -7 -3
1532262258323602 -2 -3 -3 -3 -5 -3 -1 -5
1532262258345546 0 0 1 0 2 4 -1 -3
1532262258405382 1 -2 -1 -4 1 14 5 3
1532262258511099 4 0 -1 -1 0 -19 -2 -3
1532262258555964 -2 0 -3 -2 -4 -12 -3 -3
1532262258624795 -8 -3 -1 1 1 -10 1 -3
1532262258706554 -2 -2 -3 -2 -1 -15 -3 0
1532262258789333 -1 0 0 -1 1 2 -3 -1
1532262258803310 1 2 -2 -2 0 0 3 0
1532262258826234 0 0 -2 0 1 2 1 -1
1532262258840223 -3 -1 -2 1 -2 -2 -6 -3
1532262258885099 2 0 -1 -1 -1 1 1 0
1532262258900036 0 -1 -1 0 0 4 -6 -2
1532262258945914 -1 -3 -2 -1 -2 2 -6 -4
1532262258967883 -2 0 -2 0 0 0 -1 -2
1532262259006752 0 1 -4 -6 -2 -3 -2 -3
1532262259019743 2 -2 -2 -2 -1 5 4 0
1532262259065594 0 1 0 1 0 2 3 -1
1532262259103513 3 0 4 6 -11 -5 4 2
1532262259127456 0 -3 0 1 1 2 0 -1
1532262259148372 -1 -1 0 -2 -3 -4 5 -2
1532262259209232 -1 0 -3 -2 -3 -4 -5 -7
1532262259223173 1 -4 -3 -1 1 -8 -3 6
1532262259246138 -3 -2 -3 -1 -2 1 3 -2
1532262259269049 0 0 1 -1 -2 -3 -5 -2
1532262259283040 -3 -1 -3 0 -1 -1 4 0
1532262259305959 -2 -2 -2 -1 -1 -7 -2 -3
1532262259328889 -1 -1 -1 -3 -1 -2 -7 0
1532262259342852 0 -3 -1 -2 -1 -5 -1 -1
1532262259373796 0 1 0 1 -1 -2 0 0
1532262259388757 1 -2 -2 -3 0 3 2 0
1532262259402692 -2 -1 -1 0 -1 -2 -1 0
1532262259426652 -2 0 -1 -1 3 7 0 -2
1532262259448593 -1 -3 -3 -3 -1 -6 -2 0
1532262259462560 -2 -2 1 0 0 0 -2 -4
1532262259493476 -2 0 0 -2 -2 -3 0 0
1532262259516416 0 -2 0 0 -2 0 -1 1
1532262259524381 -3 -2 -1 -3 -1 -3 1 3
1532262259546335 0 0 -1 0 -3 -6 -7 -1
1532262259569276 -1 0 -2 -2 6 -1 -3 1
1532262259607146 1 -2 -2 -1 -1 1 -1 -4
1532262259629088 0 -1 0 1 4 7 4 -3
1532262259666011 -2 1 1 1 -2 -6 1 -1
1532262259689924 -1 -3 -1 -3 0 13 -2 -3
1532262259734827 1 1 -3 0 0 -2 -3 -4
1532262259801649 0 0 -2 1 -2 3 1 -1
1532262259875428 -1 0 -2 -1 -1 5 5 1
1532262259905375 0 -1 -2 1 -2 0 1 0
1532262259990122 2 1 -1 -1 0 3 -4 -4
1532262260010088 -2 -1 2 -1 0 2 -4 -1
1532262260042006 -1 -3 -2 0 0 -4 1 -2
1532262260108832 -2 -6 -3 2 0 13 3 0
1532262260131770 3 3 -2 -4 23 7 0 -1
1532262260168675 -3 -2 0 -11 10 0 2 1
1532262260191606 1 2 8 5 -20 -27 2 0
1532262260227515 -3 -6 -5 -2 -17 -28 -9 -2
1532262260265409 -1 -1 -5 5 -6 -10 -5 -1
1532262260319265 -3 -3 -4 -9 -6 -5 -8 -4
1532262260400049 -28 -6 1 -4 -27 -5 -3 0
1532262260536684 4 -1 -1 -2 5 1 4 1
1532262260558624 -14 -1 -2 1 1 -4 -3 -13
1532262260581552 5 0 1 0 3 6 -1 -16
1532262260611480 -26 -2 -3 -5 0 -4 -4 -11
1532262260656341 -1 0 -3 -2 -4 -4 2 2
1532262260717200 -3 -4 -1 -2 2 6 1 18
1532262260731140 17 1 1 1 -1 12 0 1
1532262260792004 -17 -2 1 1 8 -1 9 -37
1532262260993439 17 8 5 1 7 38 7 12
1532262261082228 -2 4 2 1 7 7 -3 -11
1532262261136081 3 2 2 4 2 -6 -2 -4
1532262261196894 2 2 11 12 1 4 1 0
1532262261233796 -9 -5 -5 -6 3 -5 1 -8
1532262261285657 -4 -31 6 20 2 -10 3 3
1532262261333530 -6 -9 -1 1 -2 -15 -20 -8
1532262261413343 0 -12 -3 -8 -35 22 4 -3
1532262261439259 -11 -19 -10 -7 -21 -11 -34 -31
1532262261459213 -5 1 -1 1 4 4 9 13
1532262261496094 -6 -7 2 9 8 9 -13 15
1532262261533993 7 3 -5 -4 -6 -5 1 22
1532262261547983 7 5 3 5 6 3 43 -2
1532262261675614 -5 -15 -6 -7 1 41 18 37
1532262261694563 -7 9 -1 2 0 -37 28 19
1532262261757395 2 -1 -2 -6 6 -25 -55 22
1532262261796292 18 1 -2 1 0 -4 77 110
1532262261835188 6 6 2 3 0 28 -67 59
1532262261947913 23 4 3 4 2 -30 4 15
1532262261978804 -10 0 -2 -9 -9 6 50 20
1532262262000758 6 -5 0 10 16 14 -37 -47
1532262262014734 9 -6 -3 -3 -39 -1 -26 0
1532262262036648 -29 -13 -3 -3 -2 -13 -46 -53
1532262262073549 16 6 5 -3 6 9 41 28
1532262262119450 9 -14 7 -5 4 11 -23 31
1532262262165333 -1 -1 3 3 14 -9 17 -1
1532262262208210 1 -2 -2 -5 -6 10 -5 -39
1532262262231156 -3 1 6 9 9 9 4 1
1532262262278003 -23 -11 -9 -6 -1 -9 -78 -70
1532262262304954 -1 1 7 56 11 37 45 -3
1532262262342830 1 -2 -6 -9 11 21 25 39
1532262262567254 1 -6 -2 -3 -3 -1 0 1
1532262262590169 0 2 -2 -4 -4 -33 4 4
1532262262629085 -1 8 5 -3 1 17 14 9
1532262262652031 2 -8 -10 0 1 16 -1 23
1532262262674962 -2 -7 -4 -4 -4 -3 -11 -6
1532262262696906 -1 -10 0 -1 1 -5 -20 6
1532262262717850 -1 -20 -6 7 10 19 -29 -31
1532262262758728 -6 -8 0 13 2 -6 -4 -5
1532262262802601 -2 4 -3 -6 1 -38 10 15
1532262262825566 -8 -47 -11 -37 -1 -12 8 -4
1532262262876426 1 0 -1 -3 -5 18 -8 5
1532262262921307 1 5 6 6 3 40 17 15
1532262262950228 -5 -8 -18 -12 -6 -17 -31 -17
1532262263013038 -2 -16 2 12 0 -7 -13 -29
1532262263058938 -3 1 -2 -5 0 12 -24 -30
1532262263108805 -1 9 -2 -6 8 11 1 -13
1532262263154682 1 18 4 13 -6 -3 22 -2
1532262263183604 0 -25 -2 -3 -3 -17 1 -5
1532262263206520 -1 -5 -1 1 0 -5 14 1
1532262263267379 2 -10 0 -1 4 3 3 -2
1532262263335201 8 21 0 15 8 11 16 11
1532262263365123 0 5 4 1 4 -6 4 19
1532262263381070 4 7 3 10 2 14 18 0
1532262263415960 0 11 -2 10 -1 28 0 3
1532262263438922 -3 18 -10 -8 -1 -4 -12 9
1532262263498765 1 1 3 0 -3 -5 0 -8
1532262263633411 -2 7 3 3 0 7 -4 3
1532262263643362 1 -10 -3 -2 -4 -14 -10 3
1532262263701222 -1 -1 -3 -1 0 -2 2 6
1532262263724158 -6 -5 0 -3 -1 5 2 5
1532262263784000 1 2 -1 -1 -4 7 -2 -3
1532262263823870 -4 -1 -1 -1 2 12 2 2
1532262263897700 0 3 -2 -1 6 9 1 11
1532262263906648 -1 1 0 2 4 -9 -4 1
1532262263922618 -4 2 1 -1 -10 -35 1 1
1532262263942576 -4 -15 -11 -9 4 4 -9 -3
1532262263978483 2 0 -2 2 -17 3 6 1
1532262264001422 -3 -1 2 -4 -26 -2 -1 -4
1532262264015381 -4 -8 -5 3 -37 -17 1 -1
1532262264174958 0 -4 -10 -2 13 24 0 -2
1532262264183907 4 -7 -6 -4 4 2 -2 0
1532262264241752 -7 -2 -2 -7 4 -13 -17 -5
1532262264353476 0 -5 -4 -3 -4 2 -5 -3
1532262264540013 1 1 0 -2 -2 -2 -4 0
1532262264623754 0 -1 1 -1 -1 -2 3 -1
1532262264699550 0 -2 0 2 0 -3 1 -2
1532262264879048 1 1 -1 -2 -4 0 0 -2
1532262264933928 1 -2 -2 -2 0 0 0 -1
1532262264954866 0 -1 0 1 -1 -2 -1 0
1532262265193229 -1 0 1 0 0 -2 1 0
1532262265417635 0 -1 1 0 -2 -2 -1 -1
1532262265440547 -1 0 -1 0 0 0 -1 0
1532262265560249 0 -3 -2 -2 -2 0 0 -3
1532262265643028 -3 -1 -3 -4 -3 -1 0 2
1532262265656968 0 -1 0 -1 0 0 -1 0
1532262265725783 0 -2 -2 -1 -2 1 0 0
1532262265802579 -2 0 1 0 -1 -1 -2 -2
1532262265906301 -1 1 -2 -1 -1 -1 0 0
1532262265920288 -1 1 -2 -1 -2 1 1 -1
1532262265974147 -1 -2 -4 -2 -2 -1 -4 0
1532262265996089 -3 1 0 -1 -2 0 -1 -1
1532262266115763 0 -1 -3 -1 -2 0 1 0
1532262266146687 -2 -2 -2 -1 -3 -3 -2 0
1532262266156632 -1 0 0 1 1 -1 -2 -2
1532262266183583 -1 -3 0 0 -1 -1 -1 -1
1532262266205501 -1 -1 -2 -2 -1 -1 0 1
1532262266236445 0 1 1 0 1 -1 -3 -1
1532262266251408 1 1 0 -1 -2 -1 -4 -2
1532262266265368 0 -1 -2 0 -1 -1 1 1
1532262266415938 -1 -2 -2 1 -1 0 0 -1
1532262266454834 0 -2 -1 0 -3 -3 -3 -1
1532262266482786 -1 0 -3 0 1 -1 -1 1
1532262266528659 0 -2 1 2 1 1 2 -1

1532262266648340 0 1 -2 -1 -1 -3 4 0
1532262266673251 -1 -1 -1 -3 -3 1 0 -2
1532262266695191 -1 -3 -1 -2 1 0 1 0
1532262266746082 -3 -1 1 2 2 0 -3 -2
1532262266769017 0 0 -1 -2 -4 1 -2 -3
1532262266829859 -2 -1 -1 -2 -2 -1 1 -1
1532262266897650 1 -1 -1 -1 0 0 -1 1
1532262266948536 1 2 1 -1 0 -3 -1 0
1532262266972450 0 -3 -1 -2 -1 0 -1 -3
1532262267016333 -3 -3 -2 -2 -3 -4 1 2
1532262267046252 -2 -2 0 0 0 -1 0 1
1532262267068221 0 0 -1 -2 -3 -3 -1 -3
1532262267145011 -1 -2 -2 -1 0 -2 -1 -1
1532262267210812 -1 -2 -1 0 -1 -1 -2 -1
1532262267229785 0 -2 -1 0 0 -2 -3 -1
1532262267262674 0 -1 -1 0 -3 0 0 -2
1532262267286610 -1 -1 -2 -1 1 -3 -3 0
1532262267315557 -1 1 -1 0 0 -2 -1 -1
1532262267347475 1 0 1 -1 -1 2 0 0
1532262267392350 0 0 -2 -1 1 -2 -3 1
1532262267430226 -2 -1 -1 -2 0 -1 -1 0
1532262267452195 -1 -1 0 -2 -2 0 2 1
1532262267503056 0 -1 -2 -1 -1 0 -1 -1
1532262267562898 -2 -3 -2 -4 -3 0 -6 -2
1532262267631687 -1 0 0 0 0 -1 -3 1
1532262267646647 -2 -4 0 -2 -2 -1 -2 -3
1532262267713498 -1 1 -1 -1 0 0 0 -2
1532262267820183 -2 0 0 -1 0 -2 0 -2
1532262267828162 -2 -1 -2 -2 0 -2 0 -2
1532262267848135 -4 -1 0 6 0 1 -4 -4
1532262267871076 -1 0 0 2 1 5 6 -1
1532262267916952 0 -3 2 1 -4 10 0 1
1532262267929917 -2 -2 -5 -10 -7 -5 -1 -2
1532262268082509 -3 -2 -2 1 0 -12 -7 -1
1532262268111404 1 -2 -2 -4 -2 -6 -3 -3
1532262268134369 -3 -1 -2 -4 -2 14 2 -2
1532262268155287 1 -3 1 0 -1 2 -5 -1
1532262268173239 0 -2 -2 -2 2 -45 -2 -1
1532262268195203 0 0 -2 -2 -11 -12 -9 -4
1532262268263996 -2 -1 0 2 -8 6 2 2
1532262268277986 2 -1 -1 -2 7 24 3 1
1532262268337799 -1 -2 -4 -5 -5 8 -4 -4
1532262268411601 -1 -1 -2 -3 -2 -25 -6 2
1532262268433543 -3 -2 -2 -4 -2 -4 2 -3
1532262268553245 -1 -1 1 0 6 5 -5 0
1532262268568210 -1 0 0 0 -1 1 -5 -4
1532262268654951 -4 -1 -1 -1 -6 -13 -8 -3
1532262268747703 -1 -1 -1 -1 0 -9 -1 0
1532262268762663 -1 1 -1 -1 -3 1 -2 -1
1532262268815521 1 -3 -1 -1 -7 -7 -2 1
1532262268892339 -2 0 -1 -1 2 -1 -3 2
1532262268921238 -5 -2 -1 0 -2 33 -9 -6
1532262268933207 0 -3 -4 -15 -9 59 5 1
1532262268974129 -12 -44 0 -1 5 -35 0 -4
1532262268987063 -9 -14 1 -2 1 5 -3 -10
1532262269087814 7 7 3 -7 -10 -6 0 7
1532262269185554 -10 -23 -8 4 27 7 22 1
1532262269192527 -3 -4 0 -3 -15 -23 -20 -2
1532262269251356 -10 -1 -2 -2 -9 -12 -10 -3
1532262269310226 -8 -2 -3 -3 0 0 2 -7
1532262269462813 5 6 4 2 -3 2 0 -18
1532262269536593 -11 0 -1 -3 -17 -38 -7 4
1532262269627350 -9 -11 -6 -4 8 1 -16 -24
1532262269655276 -20 -22 -16 -2 12 -20 1 24
1532262269700180 10 1 0 0 17 0 4 9
1532262269730076 4 6 2 -2 7 4 -4 -1
1532262269800886 -7 13 6 2 3 -3 1 5
1532262269890647 -1 12 3 -5 -3 1 0 3
1532262269919596 -13 -13 -2 -16 12 -38 -2 1
1532262270040284 1 29 23 4 -19 9 4 -5
1532262270055231 -1 -34 -18 17 -18 6 -2 2
1532262270076150 -7 19 1 6 34 -10 53 20
1532262270090113 2 -4 -2 0 0 23 -51 -32
1532262270121030 -28 -14 -1 1 8 2 -12 0
1532262270141997 -9 2 -1 1 2 -4 12 -5
1532262270160923 -19 1 0 3 -2 -4 9 -31
1532262270227745 -34 4 2 -1 5 9 -3 22
1532262270232732 8 -1 3 -1 6 -3 22 44
1532262270293569 3 3 1 -7 0 -4 -18 22
1532262270316507 -8 -1 4 23 20 9 -19 -50
1532262270329500 15 -4 2 3 -2 -8 8 -4
1532262270360390 31 -2 -2 1 -9 3 -13 39
1532262270390340 -1 1 0 19 2 -11 37 3
1532262270413282 -14 -3 -10 -13 -2 12 2 -1
1532262270436215 -4 4 32 42 -1 7 1 5
1532262270467104 -9 -11 -14 -29 -7 5 -1 -13
1532262270594787 -7 -1 1 -2 2 3 -7 -12
1532262270633660 -5 0 0 -2 0 8 -4 -12
1532262270661609 1 2 -1 -2 -2 4 2 2
1532262270691521 0 -1 -1 -1 -1 1 -2 0
1532262270737406 0 -7 -1 -1 -1 0 13 -4
1532262270766333 0 -11 0 -4 -6 -2 -14 -1
1532262270782292 3 0 -4 7 6 1 14 -6
1532262270825174 1 4 -5 -4 -8 0 -4 6
1532262270858087 -5 -13 -4 -6 -4 -5 -10 -1
1532262270900967 -4 -6 -10 -29 -30 -14 -14 5
1532262270923904 -2 0 -2 -6 -6 6 -1 -18
1532262270976765 -2 -4 -4 3 -1 -1 13 -5
1532262271105420 1 -1 1 2 -3 -8 0 7
1532262271180210 -2 0 -1 -1 -1 -2 3 -9
1532262271201170 0 -3 -1 0 2 -2 -6 14
1532262271239041 1 -5 1 -1 1 1 10 18
1532262271322816 1 -2 -2 1 -10 0 -6 -1
1532262271338798 -3 -1 -8 -3 4 -20 -5 6
1532262271360722 -1 4 -3 2 1 15 7 3
1532262271426539 -3 3 -8 17 42 -2 -32 1
1532262271613064 2 0 1 -8 0 -12 19 9
1532262271638002 1 -3 -3 -4 -6 -2 -6 -21
1532262271718785 -2 -1 0 4 3 -2 -22 -8
1532262271748700 0 -1 3 14 14 1 2 2
1532262271837467 -3 -7 -3 -6 -2 -3 -1 -3
1532262271871378 -1 -3 -3 1 3 5 -9 -9
1532262271891297 1 -6 -2 -3 -2 -3 4 9
1532262272004018 -3 -8 -2 3 -5 -8 3 8
1532262272214445 -8 -8 0 3 1 13 1 13
1532262272290230 3 4 -1 4 -2 11 -5 -4
1532262272326156 7 -3 -2 -5 8 20 -3 -13
1532262272363062 -4 -5 -5 -4 -24 -13 -1 7
1532262272381009 2 2 -4 -3 25 13 0 4
1532262272423896 -3 -5 1 -5 28 32 -4 0
1532262272430878 0 2 2 5 -39 -94 -18 -3
1532262272453814 0 -4 -4 -7 -36 -46 -2 -1
1532262272498672 -3 -4 -2 4 -11 -37 -7 7
1532262272520640 -2 1 1 2 11 80 17 14
1532262272621344 0 -2 0 0 3 11 -2 -2
1532262272648272 -6 -2 -2 2 -2 4 3 -26
1532262272732070 1 0 0 0 -1 0 5 47
1532262272782932 1 -2 0 0 -1 5 -1 2
1532262272896635 -12 -2 -2 -2 0 4 11 11
1532262272963452 -9 1 -2 -1 -2 -6 -17 -13
1532262272985371 0 -2 0 0 0 -8 0 1
1532262273054214 4 1 -1 -2 -3 -10 2 2
1532262273173897 -2 0 1 3 -1 -5 4 -6
1532262273241710 10 1 0 -4 -2 -12 7 5
1532262273286565 -1 -2 0 0 0 8 2 -6
1532262273332443 5 0 0 -2 -1 -6 -7 5
1532262273458135 -2 -4 3 1 1 14 3 -6
1532262273593769 5 -3 -3 -3 -1 -3 -4 10
1532262273660589 -3 -3 -2 -1 -1 -5 4 -12
1532262273706443 -1 1 -1 0 2 8 4 -10
1532262273820139 2 0 -2 -1 1 -1 3 6
1532262273858060 -4 -2 -1 0 -1 -1 0 -9
1532262273917900 -11 -2 -2 0 -1 -8 -7 -7
1532262273923885 0 0 0 -3 -1 -3 0 -1
1532262273982704 -1 -2 -1 -1 0 -1 -8 -8
1532262274019605 0 -1 -3 0 -2 -4 5 -5
1532262274096427 -1 -1 0 -1 -1 -3 -2 -2
1532262274200122 3 -1 0 -1 0 4 -5 -6
1532262274313841 -1 -3 -2 -2 -1 7 -1 1
1532262274433521 0 -1 -1 0 -1 -7 -3 -3
1532262274465440 -1 -2 -1 -3 -3 -6 6 4
1532262274546224 -2 -1 -3 -2 1 0 3 2
1532262274630971 -3 -2 -2 0 -3 -1 -6 -6
1532262274642938 -2 -2 -1 -2 0 1 1 0
1532262274665877 -1 1 2 0 2 1 -1 2
1532262274698789 0 -2 -2 -1 -2 2 3 -8
1532262274718736 -2 0 -1 -1 -1 2 -8 -4
1532262274728709 8 -2 0 -2 0 17 5 1
1532262274771594 -3 -2 -1 -1 -3 -6 2 -2
1532262274816501 -3 -1 -2 -4 -6 -20 -10 -5
1532262274839413 -5 -2 0 -2 -2 -1 -6 1
1532262274877339 3 0 -2 -1 -2 -1 -11 -2
1532262274891274 1 -1 -1 -1 -1 -1 2 0
1532262274915211 -5 1 -3 -2 -3 -7 -1 1
1532262274938149 -1 -1 1 -3 -1 -8 -2 2
1532262274982032 1 -2 1 1 -1 11 6 4
1532262275000010 3 1 -2 0 -1 -2 0 -1
1532262275027925 -2 1 0 0 2 3 -13 -2

1532262275048885 1 -1 0 0 -2 0 -6 -3
1532262275071828 -11 -3 -2 -1 0 -2 4 2
1532262275093767 2 0 -1 -2 -2 2 -1 -2
1532262275131632 1 0 0 0 -2 -2 -5 0
1532262275167569 1 0 -2 -1 0 -1 -3 -5
1532262275201468 -2 -1 -2 -1 0 4 -2 -3
1532262275235378 -1 -1 -2 0 0 -2 6 1
1532262275244354 -2 0 -1 -1 0 -1 1 4
1532262275274273 0 1 2 -1 0 -1 -5 1
1532262275289210 -1 0 -5 -1 -1 1 -4 -3
1532262275311174 0 0 0 -1 0 -1 -1 -2
1532262275334091 0 -2 -2 -2 -1 0 -1 -2
1532262275350075 -1 -4 0 -2 -2 -3 -2 -1
1532262275393935 -1 -3 5 -1 -4 -25 -5 1
1532262275416896 1 1 1 5 31 37 5 -2
1532262275440805 -6 2 0 4 24 38 -5 -5
1532262275500657 1 -2 3 -8 -30 -41 -8 2
1532262275506641 -6 3 3 -13 -9 -1 -3 -3
1532262275521589 1 1 9 8 -3 -18 -1 3
1532262275575467 -1 -5 -1 7 -7 5 2 -1
1532262275596412 -2 -6 -3 -5 0 -3 -2 -1
1532262275611372 -1 0 -1 7 -4 4 0 1
1532262275651269 -3 -1 -1 -3 2 -1 -1 -3
1532262275672214 -1 1 -2 -1 0 -8 4 4
1532262275702106 0 2 -3 -4 -9 -2 -1 0
1532262275767958 1 1 1 0 -4 6 4 0
1532262275869681 0 -2 -2 -6 -7 -7 3 -1
1532262275875642 -1 0 1 3 -2 -8 -9 -1
1532262275919548 -2 -1 -2 -2 -6 -9 -2 -2
1532262275925531 -1 -2 -3 -1 -2 -17 -8 -2
1532262275972390 0 -5 -6 -8 -9 -30 0 -2
1532262275994325 -2 -3 -2 3 0 -4 1 1
1532262276015296 0 -2 -2 -4 -3 -1 -3 -1
1532262276040202 -3 -3 -5 -5 1 17 -2 -4
1532262276061165 -1 -6 -5 -4 2 15 -2 -2
1532262276084084 -2 -1 -1 -6 -11 7 -2 0
1532262276129978 1 0 0 3 0 -9 -3 -1
1532262276143924 -1 -4 0 2 -1 -10 -1 1
1532262276173872 -1 -2 -3 0 -1 1 2 0
1532262276226703 -1 0 -1 -4 -2 -31 3 0
1532262276240689 -2 -2 -1 0 -6 4 -7 -1
1532262276285546 0 -3 -4 -4 -4 17 -2 -1
1532262276317483 -2 1 0 0 -4 -2 2 -1
1532262276341419 -2 -1 -2 -9 -3 -11 1 -1
1532262276345412 -1 -2 -2 1 -2 -11 -12 -4
1532262276425195 -1 -1 -1 -1 -1 -3 3 0
1532262276445146 -1 -4 -1 0 0 -1 3 0
1532262276474042 -2 -1 -2 0 -3 -16 -4 -1
1532262276488027 -1 -2 -1 1 -2 5 0 1
1532262276509969 2 -1 -1 -3 -1 13 0 -1
1532262276518922 -2 -3 0 0 2 7 -4 -2
1532262276543879 -1 -1 -1 -9 -5 -10 -3 1
1532262276562832 -4 -3 -2 -3 -2 -9 0 -1
1532262276594742 -2 -1 -1 0 3 -20 -9 -2
1532262276615693 -2 3 -5 -4 -6 -6 1 0
1532262276667548 -1 -1 1 1 -2 2 5 1
1532262276687471 0 -1 -3 -1 -3 -3 -5 -3
1532262276715424 -1 0 0 -4 -2 1 3 -1
1532262276729380 0 0 1 -1 -1 9 4 -1
1532262276737345 -1 -1 -2 4 0 0 7 1
1532262276761296 0 1 1 1 -1 -6 5 -1
1532262276781247 -1 -2 -1 -3 -1 -4 -5 -2
1532262276938821 -1 -2 -1 0 0 -1 -5 -2
1532262276963752 2 -2 -1 -2 -1 -1 -3 1
1532262276985673 -1 -2 -1 -1 2 23 0 0
1532262277008613 -2 -1 0 -2 1 -16 -9 -1
1532262277013628 -2 -1 -1 1 3 15 2 -1
1532262277039529 0 0 -2 1 -3 13 7 1
1532262277195137 -3 -3 0 0 1 -7 -2 -2
1532262277215060 1 0 -1 0 2 2 1 1
1532262277269936 1 0 -1 -2 2 7 0 -1
1532262277291883 -2 -2 0 -1 -3 4 -1 -2
1532262277314816 0 -2 -2 -1 -1 0 3 0
1532262277337759 -1 -1 0 1 -1 3 -3 -1
1532262277359696 -1 -2 -2 -2 -1 -8 -1 -1
1532262277381637 -1 -3 -4 -1 0 -13 -3 -1
1532262277412555 0 0 1 -1 0 -9 0 0
1532262277495311 -1 -3 0 -3 0 1 -2 -2
1532262277517281 -1 -2 -1 0 -2 -3 -2 -3
1532262277539193 -1 0 -2 -1 -2 5 2 1
1532262277562155 -2 -1 -1 -1 4 -4 1 -1
1532262277592052 0 -1 -1 0 0 3 0 0
1532262277614021 1 -1 -1 1 -1 6 1 1
1532262277635961 -1 -1 0 -1 -1 8 1 -1
1532262277658873 0 0 -3 -2 -3 14 1 -2
1532262277794533 -1 -1 0 0 0 2 -2 -1
1532262277801512 -1 1 -1 -1 0 10 5 0
1532262277816479 0 0 -2 0 0 -3 3 -1
1532262277868334 -1 0 -3 -2 -1 -7 4 0
1532262277892279 -2 -1 -3 -2 0 11 -4 -2
1532262277914197 -2 -1 -1 1 -2 7 -1 -1
1532262277940162 0 -3 -2 1 2 -5 -10 -4
1532262277983030 1 -1 -2 -3 -2 -10 -7 -3
1532262278027916 -1 1 0 -1 1 5 1 1
1532262278072769 0 0 0 -2 -2 10 -1 -1
1532262278085760 -1 -1 0 -1 0 4 0 2
1532262278118644 1 0 -2 -1 0 0 -3 -1
1532262278146593 -2 -2 0 -1 -1 -3 -5 -2
1532262278215409 -2 1 -2 -3 0 6 2 -2
1532262278288190 -1 -3 0 -2 -2 -3 -2 0
1532262278330101 0 -1 -1 -1 1 0 -12 -4
1532262278351023 -2 -1 -1 -3 -1 -1 -2 0
1532262278400913 0 -1 0 1 0 0 5 0
1532262278475716 0 -1 1 0 -2 8 1 1
1532262278512618 -1 -2 -1 1 -3 1 0 0
1532262278560486 -1 -1 -1 -4 0 3 0 -2
1532262278589385 -2 1 -1 -1 -2 -1 -6 1
1532262278680165 0 -2 -1 -2 -1 -2 -2 -1
1532262278703105 0 0 -1 -2 -3 -6 0 -2
1532262278882624 0 -1 -1 0 1 -2 -3 0
1532262278905562 0 -2 -4 -3 -1 4 1 1
1532262278948448 0 0 3 -3 1 22 2 -2
1532262279001306 -2 -1 1 13 3 -3 6 -1
1532262279128965 0 -2 -6 0 33 24 5 -1
1532262279183823 -1 -1 -2 0 -26 -26 -5 1
1532262279198778 -1 -5 -3 -2 12 13 1 -1
1532262279226708 0 -1 0 -1 -4 -11 -3 1
1532262279242666 -2 0 -1 12 9 -7 -3 1
1532262279278565 -3 -1 -2 -2 5 4 0 -1
1532262279317465 0 -2 -2 -5 3 5 0 -2
1532262279338382 -4 -7 -2 -1 -2 0 -1 -1
1532262279368325 1 -2 -1 -1 -4 0 -1 -2
1532262279406266 0 1 3 10 16 10 6 2
1532262279451081 -3 -1 -3 -6 -58 -9 0 -1
1532262279460080 -1 2 -2 -1 -17 -12 0 -1
1532262279505934 0 1 -4 -9 3 4 -3 -2
1532262279525881 -2 -4 0 0 1 0 0 -1
1532262279594724 0 -1 0 1 -7 14 3 -1
1532262279647578 -1 -5 -1 -3 -2 -14 -8 -1
1532262279686479 -1 0 0 -2 -3 -6 -1 -2
1532262279705401 -1 1 -3 4 17 2 -1 0
1532262279804161 1 0 1 3 7 2 2 0
1532262279834081 -3 0 -2 -3 -1 4 -3 -2
1532262279862979 -1 -1 0 -3 8 5 -1 -6
1532262279879957 1 -2 -4 -3 -12 -7 0 0
1532262280013598 0 1 -1 0 -3 -8 -4 1
1532262280058480 1 -1 0 -1 -2 1 2 2
1532262280104356 -2 -2 -2 -1 -2 -3 -4 -2
1532262280134253 0 0 -2 0 1 0 -7 1
1532262280149214 -1 -1 -1 -2 2 5 3 -4
1532262280218030 0 0 0 -1 -1 -10 0 -1
1532262280239972 1 -3 -2 -1 -3 4 6 0
1532262280275904 1 0 -1 -1 0 -4 -3 -1
1532262280306816 0 1 -1 1 -3 0 1 -1
1532262280343721 -1 -3 0 2 1 1 -2 0
1532262280380619 -1 -1 -2 -2 -2 -2 -4 -2
1532262280403554 -2 -2 -2 -1 11 10 0 -2
1532262280450432 0 1 1 -3 -1 -4 2 1
1532262280478357 -1 0 -1 0 -4 -2 1 1
1532262280504265 -1 -1 -2 0 -2 -3 -1 0
1532262280548159 -2 0 -2 -5 5 -1 0 -1
1532262280584051 3 6 4 20 22 11 4 2
1532262280606007 -2 -2 0 0 -8 -38 -6 -2
1532262280620952 -3 -1 -2 -11 -8 -11 -4 -1
1532262280643919 -4 -4 -4 -4 -6 -2 -3 -2
1532262280711732 1 -4 -2 4 10 8 5 0
1532262280726697 0 -5 -2 1 5 -26 -9 -3
1532262280755620 -2 -2 -2 -1 8 8 -1 -3
1532262280780548 2 3 5 7 3 -1 -2 2
1532262280802467 -2 -2 -1 0 -5 -24 6 -1
1532262280815460 2 0 -4 2 -6 -9 -5 -1
1532262280846373 -1 1 -3 -1 -5 -13 -3 1
1532262280883276 -3 -8 -5 -5 -3 20 5 -3
1532262280906191 -1 -1 1 1 2 -9 0 -1
1532262280943115 -3 -1 0 0 0 -27 -8 -2
1532262280966030 0 -2 -2 -1 5 7 -3 -2
1532262280981018 0 0 -1 -2 -3 11 -3 -2
1532262281012905 1 0 -1 0 -2 0 2 -2
1532262281047833 -1 1 -3 0 0 4 -1 -1
1532262281071774 -1 -1 0 -2 2 7 5 0
1532262281102664 0 -1 -1 -3 0 4 2 0
1532262281115659 0 -2 -1 -2 -2 11 -1 -3
1532262281146571 -3 -1 0 -1 -1 -5 -3 -2
1532262281183471 -2 -2 0 -2 -1 -2 -3 -1
1532262281213397 0 -1 -3 -3 -2 -7 -1 -2
1532262281244285 1 0 0 -2 0 -6 3 1
1532262281334069 -1 0 -2 -1 -1 -3 -1 2
1532262281407868 0 -1 -1 0 -1 -10 -1 0
1532262281490654 0 1 -1 -1 -3 1 -5 0
1532262281537524 -2 -2 -1 -1 -1 -3 -3 0
1532262281545501 0 0 0 0 2 7 1 0
1532262281566452 0 0 -1 0 -1 2 11 -1
1532262281613327 -2 -1 -1 -1 -4 -8 2 -2
1532262281633245 -1 -1 1 -1 -2 0 -1 2
1532262281652195 -2 -2 -2 -2 0 7 0 0
1532262281723006 2 -2 -6 -13 -10 -41 0 0
1532262281805784 -2 -3 -4 16 11 -1 1 -2
1532262281911522 -4 0 -1 -3 -14 -10 4 2
1532262281965380 16 -2 -3 1 3 9 11 1
1532262281994280 3 -3 -2 2 40 23 -4 2
1532262282056116 -12 -1 -3 -2 -4 3 -4 -3
1532262282069080 -9 -2 -2 0 -1 -2 5 13
1532262282091045 11 -4 0 1 12 10 11 -29
1532262282135928 -8 0 -2 -3 -5 -4 -2 -8
1532262282158853 6 -5 -3 -2 -1 -12 1 -4
1532262282202750 -2 0 0 0 5 5 -3 -26
1532262282248623 -6 -4 -4 -1 4 14 3 -2
1532262282286526 -6 -1 -1 -5 7 2 -11 -7
1532262282331401 -18 1 1 3 43 4 9 10
1532262282369277 2 0 0 4 64 -9 -7 -11
1532262282444101 -8 -3 1 2 21 -9 -5 -5
1532262282511896 13 3 1 -2 12 -4 -7 -10
1532262282562787 -11 -10 -5 -6 7 -1 -6 -6
1532262282645566 -2 -3 -2 -1 10 34 0 -1
1532262282682467 -1 0 4 5 9 -1 1 1
1532262282750258 -1 18 -9 -14 -13 -15 -3 -4
1532262282885923 4 -4 0 1 -1 -13 -2 8
1532262282911827 -1 3 -3 10 14 -24 18 5
1532262282930800 6 1 3 4 1 12 3 -10
1532262282977674 5 0 -5 -3 2 0 -2 -15
1532262283022530 -11 -3 -3 -1 9 3 -21 -14
1532262283045492 -1 1 -3 -7 6 15 3 14
1532262283067438 -10 -4 -1 0 22 20 0 -16
1532262283080403 -5 -8 -3 1 14 -2 -15 5
1532262283111315 4 3 -4 -12 16 6 2 -15
1532262283134232 -6 -5 -9 -21 2 -6 -31 2
1532262283179112 -11 -8 -4 -9 1 -3 -65 -74
1532262283230996 11 4 4 10 1 -10 -1 38
1532262283276873 -2 2 1 3 -2 10 -12 -3
1532262283375625 -3 -2 0 2 -1 -3 -1 -28
1532262283384590 -6 -5 -5 -6 -7 -19 50 4
1532262283456430 -3 5 -1 2 24 -3 -3 -6
1532262283487315 -1 0 -2 1 -1 -15 9 6
1532262283532195 3 20 -5 -5 4 -6 -6 -1
1532262283576050 -8 -20 -3 -2 4 -8 -14 -1
1532262283599016 -3 -28 -2 10 13 17 15 33
1532262283620930 -3 19 1 5 -15 7 1 6
1532262283694757 6 6 -4 -7 -19 10 12 10
1532262283808452 -3 -4 8 8 -4 -2 13 -3
1532262283931100 2 0 0 0 11 -6 7 -2
1532262283980968 -1 -5 1 -1 1 2 1 7
1532262284065741 5 8 1 0 -3 -2 -2 29
1532262284132585 0 5 0 0 -8 -7 -31 -14
1532262284146548 0 -6 -1 1 -2 -23 -5 -2
1532262284200403 0 0 1 3 4 1 31 6
1532262284244264 1 25 6 -7 0 -2 -16 2
1532262284274184 -2 2 4 6 -1 -11 11 12
1532262284311085 1 0 -19 -22 -7 5 -1 6
1532262284378925 -1 -3 -4 -18 6 5 -12 -2
1532262284478637 1 -3 1 7 0 -9 -10 7
1532262284536504 -2 -2 0 -2 0 1 4 13
1532262284596322 0 -2 -1 0 -4 -14 11 11
1532262284708046 -2 0 1 3 -2 -10 -2 0
1532262284754921 2 7 1 -3 2 4 19 17
1532262284776861 -1 -5 -6 2 -4 -2 -11 -24
1532262284798780 -1 -2 -7 15 7 5 -3 -3
1532262284821718 -4 -2 -4 -13 -2 5 3 -3
1532262284852636 -2 -1 0 9 14 -6 1 -5
1532262284895546 1 6 -6 -6 -3 2 -10 -5
1532262285018194 2 3 0 5 0 4 3 0
1532262285039144 1 7 2 0 -1 -5 -3 7
1532262285100974 0 -1 -1 -2 -1 -3 5 -3
1532262285173778 0 5 -2 -2 -2 -2 0 2
1532262285242617 3 0 -2 -2 0 -5 -8 -2
1532262285266544 -8 -5 -6 2 -2 -7 -3 -30
1532262285287489 -6 0 -1 -2 -6 -30 -4 -2
1532262285323377 0 -1 4 0 14 8 -5 -3
1532262285330387 1 -5 -2 -2 1 -11 6 0
1532262285346317 5 4 0 -2 -18 -20 -1 2
1532262285375262 -3 2 1 -1 -9 -30 -9 -5
1532262285429122 0 -6 -2 9 14 18 5 1
1532262285444078 -2 -1 -3 -9 -34 26 3 2
1532262285459038 0 -5 1 -4 -22 -43 0 0
1532262285487963 1 2 6 6 -28 8 0 1
1532262285518882 0 3 -2 -8 -35 -58 2 -2
1532262285564755 -6 -4 -7 -4 -25 -24 -8 -2
1532262285818077 1 -3 -1 -2 0 2 2 -3
1532262285835037 -1 -3 -1 -1 -2 -2 -3 -2
1532262285878893 -4 0 -3 -3 -1 0 0 0
1532262285938759 0 1 -1 0 -1 -1 -1 0
1532262285983633 0 -2 2 -1 0 -1 -6 -6
1532262285999569 1 -5 -2 -2 -3 -4 -5 -2
1532262286051462 -2 -2 -1 1 0 3 2 1
1532262286066418 -3 -2 -1 -1 -2 1 3 0
1532262286112268 -2 -3 2 2 0 -3 2 -3
1532262286141191 -3 -1 -2 -1 0 -1 0 4
1532262286179090 3 -4 -2 -2 -2 -3 -1 0
1532262286209030 -2 1 0 0 1 3 -2 -1
1532262286238929 -3 1 0 0 -1 -2 -1 -2
1532262286260894 -1 -1 -2 -1 0 6 -2 -2
1532262286291811 -4 0 0 0 0 -3 1 0
1532262286314757 0 0 0 -1 -1 -1 0 2
1532262286327692 0 2 -2 -2 -2 0 1 -3
1532262286373570 1 -4 -2 -2 0 -1 1 1
1532262286441388 -1 -4 -4 -2 -1 -3 -5 3
1532262286479313 -6 0 -1 0 -2 -7 -2 -5
1532262286493273 -10 1 1 1 1 1 -3 -13
1532262286539126 -1 -3 -1 2 -1 -4 -2 6
1532262286584007 7 -2 -1 -2 -3 -2 -1 3
1532262286604973 -1 -1 -2 0 -4 0 0 -5
1532262286629908 -1 0 -1 0 -1 2 -1 0
1532262286667810 -2 0 -1 0 -1 1 4 -3
1532262286688749 2 1 0 1 1 1 3 5
1532262286740588 -1 4 -2 0 1 1 -2 0
1532262286786488 -1 -1 -3 -2 -1 -2 -6 2
1532262286831373 1 -1 0 1 -1 -4 -7 -3
1532262286877222 2 -1 -1 -1 1 -2 3 5
1532262286898194 -1 0 0 0 -2 -1 1 0
1532262286921134 1 -1 -1 -2 -1 0 1 3
1532262286988946 2 0 1 1 0 -1 -2 0
1532262287017870 -1 -2 -1 0 -1 -2 2 3
1532262287048764 -3 -2 -2 0 -1 -1 1 1
1532262287062758 -2 -2 -2 1 1 1 -2 -4
1532262287102620 1 -1 -2 -2 -1 2 -2 -4
1532262287124588 -2 -1 -1 0 -1 -1 -6 -3
1532262287160465 0 1 -1 -1 -1 -2 -1 -4
1532262287176437 0 0 -3 -1 -1 2 2 4
1532262287198391 -2 -2 -1 -1 0 0 -4 -3
1532262287221333 -1 0 -2 1 0 -3 -3 -5
1532262287245245 -1 -2 0 0 -2 0 0 8
1532262287280172 -3 1 -1 -2 0 -1 -1 -4
1532262287303111 0 -1 -2 1 -1 0 0 1
1532262287339987 -1 -1 -1 0 -1 1 0 -4
1532262287354973 -2 -4 -1 -1 -3 -2 -1 -3
1532262287462684 0 0 0 0 -1 -3 -3 -2
1532262287520526 -4 -2 -2 0 0 -2 -4 0
1532262287649159 0 0 -2 0 -1 1 6 0
1532262287678105 -1 0 1 -1 0 4 -15 -6
1532262287770833 0 1 -2 -2 -2 -2 1 3
1532262287786790 -1 0 0 0 -1 -3 1 2
1532262287802748 0 -2 -3 -2 -2 1 -4 1
1532262287820699 -2 -2 1 -2 -2 -5 2 0
1532262287887547 -3 -2 -3 -1 -1 0 0 -3
1532262287920456 -2 -1 -2 -1 -3 -1 -3 0
1532262288033158 0 0 -1 1 1 -3 -2 -2

1532262288054076 -4 -2 2 0 -2 0 4 1
1532262288120925 -1 0 -2 -1 0 -3 0 1
1532262288172759 1 -1 -1 0 -1 -3 0 -1
1532262288203698 -1 -1 -3 -2 -3 -1 3 0
1532262288256534 -2 -2 -2 -2 0 0 -7 -3
1532262288346317 -1 0 -1 0 -1 2 0 -1
1532262288361277 0 0 -1 -1 -1 -4 -2 -2
1532262288384193 -2 0 0 -2 -1 -1 -1 -3
1532262288451042 -3 -1 -1 -1 1 0 -2 0
1532262288533815 0 -4 0 -2 0 -1 4 0
1532262288565742 1 0 -1 0 -2 0 -1 -1
1532262288602632 0 -1 -3 -2 -6 -4 -2 -1
1532262288623553 -3 -1 -3 -8 -2 -2 -2 -3
1532262288655468 0 -2 3 2 8 -10 -1 -1
1532262288668464 -1 -4 -6 -1 9 10 0 -2
1532262288683418 -2 1 4 8 -4 19 1 -1
1532262288729298 -1 1 6 7 15 29 4 0
1532262288765197 0 0 3 6 -19 -13 1 1
1532262288800108 -4 -3 -4 2 7 0 -5 -2
1532262288821024 2 1 -5 -3 -5 20 1 0
1532262288849970 0 1 6 -1 0 0 0 -1
1532262288877895 0 0 6 3 -8 -13 -6 -2
1532262288907813 -3 -4 -3 -1 2 14 0 -1
1532262288957682 0 1 -1 0 0 -2 -3 -2
1532262288978603 -1 -1 0 -2 0 2 -8 1
1532262289179090 0 0 -2 -1 -3 -10 2 -2
1532262289188072 0 3 -1 2 -1 -2 0 1
1532262289229954 -3 -1 -1 1 -3 -4 -1 -1
1532262289247895 -3 -1 -2 -4 -4 3 4 1
1532262289305763 1 -2 0 0 3 -4 1 0
1532262289319714 1 0 -1 -4 0 20 -3 -2
1532262289380551 -2 -1 0 -1 -7 2 0 0
1532262289422416 2 2 -1 0 -6 -10 1 0
1532262289440396 -4 -4 -1 1 -2 -12 1 -1
1532262289486273 2 5 1 -1 2 9 -3 0
1532262289509207 -2 0 -4 -5 -42 -8 -3 -1
1532262289545089 -3 0 -1 1 2 -20 -2 -6
1532262289571019 -4 -6 -2 1 8 6 5 2
1532262289644822 12 1 -3 -3 2 -17 -16 2
1532262289665789 -3 1 1 -1 2 0 -4 -2
1532262289743558 0 -2 -3 -2 0 -1 -2 -4
1532262289749564 0 1 -4 -5 -2 0 1 -8
1532262289762531 -1 -2 -2 -2 1 0 -2 -3
1532262289785473 -1 2 -2 -1 -1 -3 -2 0
1532262289809382 1 -2 -2 -3 -2 -2 0 0
1532262289831323 -3 -1 1 -2 -1 1 -1 -2
1532262289883184 -1 -2 1 -1 -1 -1 -1 0
1532262290021814 1 0 1 -1 -1 1 -2 3
1532262290033781 -1 -1 -1 0 0 0 0 -1
1532262290050766 0 -2 -1 -2 -2 -2 0 2
1532262290071681 0 0 -2 -1 0 -3 1 1
1532262290141517 -1 -1 -2 0 -1 0 0 0
1532262290147504 -2 -2 0 0 0 -1 -4 -2
1532262290170439 -2 0 -1 1 -1 -1 2 -6
1532262290183405 -1 -3 -1 -1 -1 0 0 1
1532262290298103 -1 -1 0 1 0 0 -2 2
1532262290319019 0 0 -1 -1 -1 0 0 1
1532262290348938 -1 0 -1 0 -1 -1 -1 -1
1532262290393842 0 -1 -1 -1 -2 -1 1 1
1532262290417782 -2 -1 -2 0 -1 -2 3 -1
1532262290422742 0 0 -1 -1 1 -3 -3 -1
1532262290445707 -1 -1 0 -1 -1 -1 -1 1
1532262290467649 -1 0 0 -2 -2 0 0 -1
1532262290560396 -2 -1 0 0 0 0 2 0
1532262290575357 -2 -2 -2 -1 -1 -1 0 -2
1532262290611258 0 -2 0 -2 0 1 -1 3
1532262290626245 0 -1 -2 -1 -4 -1 0 -1
1532262290679076 -1 -2 -1 1 0 0 -2 -2
1532262290694016 -1 -2 0 -1 0 0 2 0
1532262290737921 -1 0 -1 -1 0 1 -2 -3
1532262290814721 -1 -2 0 -1 1 0 -2 -3
1532262290837655 -1 -1 -1 0 -1 -1 0 -1
1532262290857604 -2 -2 -2 -1 -3 -1 0 0
1532262290888516 -1 -1 -1 -1 0 -1 2 -1
1532262290911457 -2 -1 -1 0 0 0 -3 0
1532262290949361 0 0 -2 -1 -1 -1 0 0
1532262290972300 -2 0 1 -2 1 0 -1 -3
1532262291024154 -1 0 -3 -1 -2 -2 -2 -1
1532262291112919 0 -1 0 0 -1 -1 -1 -2
1532262291129873 -2 -2 -1 -1 -1 -1 -2 -2
1532262291188693 0 1 -2 -2 -2 0 -1 -1
1532262291256512 -1 -2 0 -1 -3 -1 -2 -2
1532262291277456 -2 -1 -3 0 -2 -2 -1 1
1532262291327345 -1 0 0 -2 -2 -1 -1 0
1532262291408130 0 -1 -2 -2 0 0 -1 -2
1532262291430070 0 0 0 0 1 1 -2 -1
1532262291450992 0 -2 -2 -1 -1 0 0 -1
1532262291526812 -1 -5 0 0 -1 -1 -3 0
1532262291601616 0 -1 -2 -1 -1 -1 0 -4
1532262291647489 0 1 1 0 -2 0 -1 0
1532262291684395 -3 -1 -1 -2 -1 -2 -1 0
1532262291690379 -2 -2 0 -1 -2 -2 0 -1
1532262291714288 -1 -1 0 0 0 -1 -1 -1
1532262291736281 -1 -2 -4 -2 0 2 -1 0
1532262291805045 0 -1 -1 -2 0 0 -3 -3
1532262291824991 0 -2 1 -1 -1 -1 -1 1
1532262291902814 0 -2 -1 2 -2 -2 -2 -2
1532262291925722 0 -2 -2 -1 -2 -3 -1 -1
1532262291967639 0 0 -1 -1 0 0 -4 -3
1532262292013515 -2 -3 -1 1 -1 -3 1 -1
1532262292060385 -1 -2 -1 -3 -2 -2 -1 1
1532262292111250 -1 -2 -1 0 -2 -1 1 -1
1532262292179045 -2 -1 -1 0 0 -2 -1 -2
1532262292239882 -1 0 0 0 1 0 -1 -2
1532262292283785 0 -1 -1 0 -1 -1 0 0
1532262292360583 0 0 -1 -2 -3 -1 0 -3
1532262292427408 0 -1 -1 0 -2 -2 -1 0
1532262292480263 -1 0 -1 -2 -3 -3 0 -2
1532262292503207 -2 -2 -1 -1 0 -2 0 -1
1532262292517170 -1 -2 -1 0 0 1 -3 -1
1532262292537087 0 -2 -2 -3 0 -1 1 0
1532262292570022 -2 0 -1 -2 -1 -1 -1 -1
1532262292616874 -2 0 0 0 -1 -1 -3 -2
1532262292637841 -2 -1 -1 0 -1 0 0 -1
1532262292661755 -1 -2 0 -1 -1 -1 1 1
1532262292734582 0 -2 -2 0 1 -2 -3 1
1532262292756501 -2 -1 -1 -1 -3 -2 1 0
1532262292778465 -1 1 -1 -2 0 -2 -2 -1
1532262292839279 -1 -2 -1 -3 -1 -2 0 0
1532262292854263 0 -2 -2 -1 0 0 0 -2
1532262292891163 -2 -2 0 -2 0 0 0 0
1532262292936043 0 -2 -2 2 0 -1 0 -2
1532262292980927 1 -1 -2 -2 0 0 -3 0
1532262293034779 -2 -1 0 2 -1 2 -1 1
1532262293057718 -2 -1 -1 1 1 1 -3 -3
1532262293080657 -2 0 -1 0 0 0 -1 -1
1532262293116566 -1 -1 0 0 -2 -1 0 0
1532262293153463 -2 -1 -1 -1 1 0 0 -2
1532262293160443 -1 -2 -2 -1 -1 0 -2 0
1532262293216300 -1 0 -1 -1 0 -2 -2 -2
1532262293245216 0 -1 -1 -1 -1 -2 0 -1
1532262293260167 0 1 1 -2 0 -1 -1 -1
1532262293336949 -1 -3 -3 -1 -1 0 -1 -3
1532262293357915 -3 2 0 0 -2 -2 -2 5
1532262293378859 1 -1 -1 0 -1 -2 -2 -1
1532262293401798 0 1 -1 0 -1 -3 2 1
1532262293492555 -2 0 1 -2 -1 0 -1 2
1532262293512506 -2 -1 -1 0 1 0 -2 -2
1532262293576309 -1 -2 -1 -1 -2 1 -1 -3
1532262293590283 -1 -1 -1 0 0 -2 -1 -3
1532262293613243 2 -2 0 -2 0 1 -1 1
1532262293633179 -1 -2 -1 0 -2 -2 -1 -4
1532262293648144 -1 -1 -1 -1 -1 1 -1 1
1532262293681029 -2 -1 -2 -2 -1 0 0 -2
1532262293723936 0 -2 0 -1 0 0 -2 -2
1532262293746880 -1 -2 0 -3 -3 -3 -2 -1
1532262293791755 -2 -2 0 0 0 0 0 0
1532262293905451 -1 -1 0 -2 0 -1 0 -2
1532262293927392 -3 0 -1 0 -2 -1 1 0
1532262293935348 -2 -2 -1 -1 -1 1 -2 -1
1532262293966293 -1 1 -1 -1 0 0 -1 -3
1532262293980228 -2 -2 0 0 -1 -1 0 -5
1532262294030118 -2 -1 -1 -2 -2 -1 0 0
1532262294057040 1 -1 -1 0 0 -2 -1 0
1532262294168750 0 0 -1 0 0 0 -3 -5
1532262294183707 -1 0 -2 -2 -1 -3 -2 -1
1532262294219611 -1 -2 -2 -1 -1 0 0 -3
1532262294249535 -2 0 0 -2 -1 -1 -2 -2
1532262294265466 0 -2 -1 -2 -1 0 -3 4
1532262294309371 -1 1 0 1 0 0 -1 -5
1532262294400135 0 1 -1 0 -1 0 0 0
1532262294421076 -2 -2 -2 1 -1 -2 -2 -1
1532262294465957 1 -1 -1 0 -2 -3 -2 -5
1532262294481925 -1 -3 0 -1 -1 -3 -1 0
1532262294511807 -3 0 -2 -2 -1 -1 -3 -4
1532262294518812 -3 0 0 1 -2 -2 -1 -1
1532262294564688 0 0 0 -2 -2 0 0 -3
1532262294740197 0 0 -2 -1 -1 0 -3 0
1532262294746208 -1 -2 -2 -1 0 2 -1 -3
1532262294797066 0 -1 -1 -3 -2 -1 -1 -1
1532262294833945 -1 -1 -1 0 -1 0 0 -3
1532262295017477 -2 0 0 -1 -1 0 -1 -3
1532262295045380 0 0 -2 -1 -2 0 -1 -1
1532262295060364 1 -1 -2 -2 -1 -1 -1 -4
1532262295231904 -1 -2 0 0 -3 -1 0 -2
1532262295277759 0 -1 -1 -2 -2 0 -3 0
1532262295292742 -2 1 -1 -1 0 -2 -1 -1
1532262295324656 0 -1 -1 -1 -1 -2 2 -1
1532262295330638 -1 0 0 -1 1 0 -2 -5
1532262295366548 0 -3 -1 0 -1 -1 -1 1
1532262295389460 0 0 0 -1 -1 -2 -2 -1
1532262295413397 -1 0 0 -1 -1 -1 -2 -1
1532262295448303 0 -1 -1 0 -1 -1 0 2
1532262295570000 -1 -1 -2 -2 -2 -1 -2 1
1532262295590948 -3 -3 0 1 2 -3 -3 -2
1532262295667716 0 -1 -1 -1 6 5 2 0
1532262295689657 -5 -4 -2 1 1 -2 -1 -3
1532262295711599 0 1 -1 0 -4 0 5 1
1532262295742539 -1 -2 1 -2 3 24 3 -1
1532262295765455 -2 -3 -3 -3 -1 10 0 -1
1532262295809358 0 -2 0 3 -1 -24 -12 0
1532262295834271 -3 -1 -3 -6 -8 -2 3 -3
1532262295848249 1 5 1 -3 -4 3 -1 -1
1532262295884160 -1 0 -1 -2 -10 13 -2 1
1532262295906079 0 -4 0 1 11 31 1 -1
1532262295949985 3 5 -3 0 12 33 7 3
1532262295975891 -4 -6 -5 -2 -19 -7 4 0
1532262296018800 -1 -1 0 2 40 11 -6 -3
1532262296062687 -1 -1 0 0 -1 -9 -9 -1
1532262296140453 0 -2 -3 -5 -20 -24 -4 -1
1532262296157427 -1 -1 -2 3 13 -13 -4 -1
1532262296163411 -2 -4 -2 0 1 9 6 -2
1532262296184358 -4 -6 0 0 -1 18 -6 0
1532262296206275 -2 -7 -4 -3 -14 -4 -9 -2
1532262296251185 0 1 -1 -2 4 21 8 1
1532262296274117 2 1 1 -1 14 -2 6 0
1532262296289062 4 0 -3 -1 31 -10 -3 -1
1532262296312017 -2 -1 1 0 -6 10 -2 -2
1532262296339919 -1 1 0 -1 3 -10 -13 -3
1532262296356899 2 2 -2 -3 -24 26 2 -2
1532262296385796 -2 0 3 2 0 12 6 -2
1532262296445658 -2 -1 -1 -1 -4 4 2 0
1532262296468601 0 -1 -1 -2 4 -15 -3 -3
1532262296506482 -5 -3 0 0 3 -2 -2 -2
1532262296613210 -3 -2 -2 -2 5 6 -2 -1
1532262296635152 2 -2 -1 -3 1 -9 -3 -4
1532262296651087 -4 -2 1 -1 -7 -10 -2 -1
1532262296663082 0 -3 -5 -2 25 23 -4 -32
1532262296686020 4 -1 -3 -1 10 4 -2 5
1532262296723914 -2 -2 -1 -1 2 6 2 3
1532262296746859 2 1 -1 -1 -5 -4 -3 -3
1532262296791710 -1 -2 -2 -2 1 -1 -4 -4
1532262296806705 -4 -1 -1 1 2 12 -6 -2
1532262296845592 -4 -2 -1 -1 0 -2 3 5
1532262296890452 18 -2 -3 -3 -3 1 -1 11
1532262296933353 -2 -2 -1 -2 1 -7 -1 -1
1532262296964272 -6 -2 -2 0 -1 -4 1 -4
1532262297039049 -1 0 -2 -1 0 5 2 13
1532262297084926 0 -1 -2 -3 -3 -5 8 6
1532262297174709 5 -1 -2 -1 -3 -1 -6 -5
1532262297188676 -3 -3 -3 -1 -1 -7 -9 -5
1532262297203636 -3 0 0 0 1 -4 -1 -5
1532262297270453 -3 -2 -1 0 -2 -4 -2 -6
1532262297309348 -10 -2 -2 -1 -2 -3 -6 0
1532262297339245 -15 1 -2 -1 -1 1 -4 -12
1532262297400106 7 -2 -1 -1 -2 2 1 1
1532262297421054 4 0 1 0 0 -1 -8 7
1532262297444986 8 1 0 0 -1 -1 1 8
1532262297464937 5 -1 -1 -3 0 1 -1 2
1532262297490864 18 -1 -2 -1 0 3 2 4
1532262297586607 -6 1 -3 -2 -1 -5 -4 -12
1532262297638446 2 0 -3 -3 0 0 5 7
1532262297686340 2 -2 -1 -2 -2 -3 -6 -5
1532262297768127 0 0 0 -1 -1 -4 -1 0
1532262297892766 -2 -2 -1 -2 -3 -7 4 7
1532262298032415 0 0 -1 0 -1 1 0 1
1532262298052364 -4 -1 -1 -1 0 0 1 11
1532262298126165 1 0 1 -1 0 4 -1 -3
1532262298192991 -3 -2 0 -1 -2 15 4 -2
1532262298253801 1 -2 -4 -2 -3 -4 -3 -2
1532262298365525 -14 0 0 1 2 2 0 -4
1532262298388440 -8 0 -1 0 -2 -3 -1 -17
1532262298411400 2 -2 -2 0 -2 -7 -4 6
1532262298432347 0 -1 -1 0 -1 -3 -1 4
1532262298450275 -4 -2 -1 0 -1 0 -4 -5
1532262298607880 -4 -1 -1 0 -1 0 -1 1
1532262298628798 9 -1 -4 -2 -1 -1 -1 0
1532262298855220 -2 -2 -1 -2 -1 -3 -1 -2
1532262298950961 -10 -3 -1 0 0 1 -2 -7
1532262299111545 10 -1 -1 -2 -1 -1 4 17
1532262299133449 -7 -1 -2 -1 1 -3 2 6
1532262299235203 -1 0 0 -1 -2 0 -7 -4
1532262299289032 -4 1 -2 0 -1 -1 -2 -1
1532262299303992 4 0 -1 0 0 1 2 14
1532262299365830 -14 -1 -2 -1 -1 -8 -8 1
1532262299385773 1 -2 1 1 -2 -1 -1 -8
1532262299424670 2 -2 0 0 -1 -1 0 -3
1532262299453620 1 9 2 4 1 -1 0 0
1532262299559309 -6 -3 -8 -1 -16 24 -6 -4
1532262299626144 1 -1 4 5 20 20 2 1
1532262299692975 -1 0 3 1 -2 -7 1 2
1532262299777753 -1 -3 -4 -5 3 10 27 7
1532262299973219 20 -2 -2 -5 -7 -2 4 3
1532262300060991 6 -1 -2 -3 -2 7 -3 10
1532262300137785 1 -1 0 -3 -17 -3 6 -11
1532262300159704 1 1 0 0 19 0 -3 -20
1532262300175684 -4 -1 -1 1 -6 3 -9 2
1532262300196626 -11 -1 0 -3 0 -13 -1 -7
1532262300270435 1 0 0 2 12 27 -6 -4
1532262300330271 -3 -1 -3 -3 5 -17 -3 -24
1532262300385124 -2 -8 -8 -6 -10 -15 -7 6
1532262300519764 13 6 -3 -1 10 0 10 7
1532262300565641 14 -8 -1 0 3 2 9 10
1532262300610518 8 -1 -2 6 10 4 2 -1
1532262300685325 9 -4 14 1 3 -28 -2 0
1532262300692300 -2 3 0 -5 -5 67 -1 -5
1532262300775058 -2 -34 -3 6 -9 2 1 0
1532262300844872 -3 -15 -10 -8 4 2 -20 -13
1532262300863844 -1 -6 -2 -10 -8 1 -20 13
1532262300885785 5 7 1 3 -14 -6 -9 -20
1532262300937647 -6 0 0 1 20 6 25 45
1532262300977517 3 4 0 0 3 -4 -2 7
1532262301060325 -3 -3 4 10 4 14 -29 -24
1532262301083258 9 1 0 -10 -8 -3 2 -12
1532262301106173 -11 4 0 -12 -1 -25 -16 -27
1532262301132104 0 4 -1 3 11 -20 0 22
1532262301172025 -3 -2 1 -5 -9 5 12 2
1532262301215880 -1 -6 5 5 12 11 15 14
1532262301285703 -18 -51 1 -10 16 0 -25 12
1532262301358498 -1 -11 2 -5 2 -1 9 6
1532262301419360 -2 -8 1 1 12 8 4 -4
1532262301449255 4 -4 -2 -3 -21 8 17 30
1532262301493165 9 34 1 1 6 11 13 7
1532262301502135 3 1 -1 -2 -1 8 -10 -21
1532262301569960 -20 -5 3 -1 -47 12 33 9
1532262301590900 -2 -17 -4 -4 -7 -9 8 9
1532262301638776 2 2 -2 3 7 16 -18 7
1532262301682652 -6 -5 0 -11 -13 10 7 9
1532262301778375 10 5 21 6 4 4 -7 -27
1532262301860186 -5 1 -4 -1 -9 11 -3 25
1532262301915038 5 -4 5 5 -1 10 12 -7
1532262301938970 -4 0 1 0 3 9 -8 -4
1532262301982851 -4 -2 -1 0 -1 -12 -4 -22
1532262302017762 4 0 2 3 -1 -15 -29 7
1532262302050647 0 -1 -2 -6 -3 17 -3 -18
1532262302079570 -5 1 -2 -2 -3 -23 11 -2
1532262302185288 -8 -4 -3 -2 1 9 -8 -18
1532262302207229 -3 0 -4 -4 4 8 -6 6
1532262302221214 0 -5 2 3 1 -4 -4 -11
1532262302258093 2 0 -5 12 12 7 10 35
1532262302281054 -6 -5 -3 -7 -4 -20 -11 -4
1532262302317959 0 5 15 18 1 -9 6 3
1532262302348873 5 -2 -13 -21 -3 26 -3 -31
1532262302448584 -4 -5 -4 6 -20 -29 -8 4
1532262302491496 -2 2 -5 4 9 25 -4 29
1532262302590205 -1 0 -1 0 2 1 -25 -5
1532262302679987 0 0 -1 -2 2 -2 -4 4
1532262302702927 -3 -3 -4 1 -3 -16 7 2
1532262302739804 -1 -3 -3 0 1 -4 1 1
1532262302753793 0 -2 -1 0 -2 14 7 2
1532262302768751 -3 -2 -2 -2 -3 5 0 0
1532262302806639 2 -11 1 3 0 1 10 15
1532262302820588 6 0 2 3 1 -1 1 18
1532262302851528 0 3 -1 -1 1 22 9 -4
1532262302926329 -3 1 -3 -4 -7 -25 -4 -9
1532262302948247 -5 0 5 -3 5 23 -3 -6
1532262303003141 -3 -1 -3 -6 -15 -26 -11 -7
1532262303024068 -1 0 -13 -11 27 -15 3 -5
1532262303038030 -5 -6 1 5 74 74 16 0
1532262303097847 6 15 2 0 -7 -29 1 2
1532262303120786 5 4 8 2 25 -41 -13 -1
1532262303158695 -6 0 -4 -4 -68 1 -2 -21
1532262303180626 -2 -9 -5 2 5 -23 4 7
1532262303250461 -3 2 -1 -2 15 10 -1 3
1532262303302324 0 -1 -2 1 27 37 -2 -1
1532262303324242 1 0 0 0 2 6 0 3
1532262303383084 0 2 -1 -1 -7 -5 -1 -3
1532262303397074 0 -1 -2 -1 -4 -3 -1 0
1532262303557640 0 1 -2 -1 1 -3 -2 -2
1532262303595543 -2 -2 -1 -3 -2 -2 -1 5
1532262303660373 -1 -1 -2 0 -2 0 -8 -2
1532262303667352 -1 -1 -3 0 0 -2 3 1
1532262303744119 -1 -1 -1 0 -1 0 1 0
1532262303828892 -3 -1 -2 0 -2 -2 1 1
1532262303862828 0 0 -3 -2 -1 -1 0 3
1532262303999460 -1 2 -1 -1 1 0 1 0
1532262304020380 0 0 -3 -2 -1 -1 -1 -1
1532262304089195 -2 0 0 -2 -1 -1 -4 -1
1532262304104179 -1 -1 0 -1 0 1 -1 -2
1532262304149063 -3 -3 -1 0 -1 -4 -3 -5
1532262304199900 2 0 -1 -2 -2 -1 -2 1
1532262304259767 -2 1 1 -1 -1 -3 -2 -5
1532262304276695 -1 -1 -1 -1 0 -3 1 -1
1532262304344538 0 -2 -1 0 -1 0 -2 -2
1532262304428289 0 -2 -1 -3 -2 -6 0 1
1532262304434273 0 3 -2 -1 -1 -1 0 -3
1532262304574924 -3 -2 -1 -3 -2 -4 -4 0
1532262304636754 0 -1 -2 0 -3 -1 2 -1
1532262304644741 -2 -1 -1 -2 -2 -1 0 -2
1532262304748456 0 -1 2 -1 -1 -3 0 3
1532262304770397 0 0 -1 -1 -1 0 0 0
1532262304830214 0 0 -2 -3 0 -2 1 -1
1532262304869138 -2 -1 -2 -1 0 -2 -2 -1
1532262304914018 0 1 -2 0 -1 -2 -3 0
1532262304935958 -1 0 -2 -1 0 0 0 1
1532262305026716 -1 -2 -2 -2 0 -4 -1 -2
1532262305063622 0 0 0 -2 -2 -1 -1 0
1532262305125425 0 0 -1 0 -2 1 0 -1
1532262305131408 0 -4 -2 0 0 -1 -1 -2
1532262305200252 -2 0 -1 -1 -3 -1 -4 -4
1532262305243141 0 -1 -2 -3 -1 -3 0 0
1532262305311949 0 -1 -1 -2 -2 -3 -2 -1
1532262305362790 0 2 0 1 2 -1 -2 -3

1532262305500450 1 -1 -1 1 -1 2 -1 -1
1532262305520396 -1 -2 -2 -1 -1 -1 -1 0
1532262305589185 -3 -3 -1 0 -1 -3 1 0
1532262305611126 2 -1 0 -1 -1 -2 -2 -3
1532262305626087 -1 -1 -2 -2 -2 -2 1 3
1532262305648050 0 0 0 0 1 0 -1 -3
1532262305671964 -1 -2 0 -1 -1 -3 -1 1
1532262305812621 0 0 -1 0 1 -2 0 1
1532262305888385 0 -1 -2 -2 -1 0 0 -2
1532262305956204 -3 -1 -2 1 -1 -1 -3 -2
1532262305986151 0 -1 -1 -3 -2 1 0 0
1532262306010085 0 -2 -1 -1 1 3 -3 -1
1532262306053965 1 -1 -1 0 -2 0 -3 0
1532262306099844 -1 -3 -1 -3 -3 -1 -1 0
1532262306114807 -2 -1 -1 0 -1 -2 -1 -1
1532262306158662 -1 -1 -1 1 -1 -1 0 -2
1532262306164673 0 -2 0 -4 0 0 -1 -3
1532262306211544 -1 -2 -2 -1 1 1 -2 -2
1532262306249443 0 0 -3 -2 -2 -3 -1 1
1532262306331224 0 -2 -2 -1 -2 0 2 1
1532262306378098 -1 -3 -1 -3 1 0 0 -4
1532262306399046 -2 0 -2 -1 1 -2 -1 1
1532262306466838 1 -1 0 -2 -2 -4 0 -1
1532262306473819 0 -1 -1 -2 -3 -2 1 1
1532262306525704 -3 -1 -1 -1 -1 -1 -1 -3
1532262306601505 0 -2 0 -1 -2 -1 -3 0
1532262306638379 0 -1 -2 0 -1 1 0 0
1532262306675308 -1 -1 -2 -1 0 1 0 -2
1532262306714177 -2 -3 0 0 1 -1 -1 -1
1532262306728166 -2 -2 -1 0 -1 0 -1 -1
1532262306774017 1 2 -1 -2 -1 1 1 0
1532262306796956 -2 -1 -1 -2 3 0 -1 -2
1532262306820891 0 0 1 -2 -4 0 -1 0
1532262306842832 0 0 -1 -1 -1 1 -1 -1
1532262306862779 -2 1 -1 -1 -2 -3 -1 -1
1532262306939578 -1 0 -3 0 -2 0 -1 -2
1532262306954559 0 -3 0 -1 0 -1 0 -1
1532262306968496 -1 0 -2 -1 -3 -1 0 0
1532262306991458 -1 0 0 -1 -1 1 -1 -1
1532262307014374 0 -2 -3 -2 1 0 -1 -1
1532262307044321 -1 -2 -1 -1 0 -3 -1 -3
1532262307098177 0 0 -1 0 -2 0 -1 -1
1532262307156004 -1 -1 -1 -2 -1 -1 -2 1
1532262307179958 0 0 -1 -2 -2 0 -1 -1
1532262307184945 -2 -3 -1 0 0 0 1 -1
1532262307207880 0 -2 1 -1 -1 2 -2 -1
1532262307253760 -1 -3 0 -2 -2 -2 1 0
1532262307306593 -2 -1 -2 0 -1 -1 0 -3
1532262307373414 0 -1 -1 0 -1 -1 -2 -1
1532262307390369 -2 -2 -1 -3 -2 -1 0 -1
1532262307411335 -1 -1 0 -1 -1 -1 -1 -1
1532262307433277 0 1 -1 -2 -2 0 -2 -1
1532262307457214 0 -4 -1 0 -1 -2 0 0
1532262307479131 -1 1 -1 -1 0 -1 -1 -2
1532262307501095 -1 -1 -1 0 -2 -1 -1 -1
1532262307531020 -1 -3 -1 -1 2 -1 -3 -2
1532262307553931 -1 -1 -3 0 -2 -2 -1 0
1532262307583852 0 -1 -1 -2 -2 -1 0 -1
1532262307598838 0 -2 -1 -1 -1 0 -2 1
1532262307622746 -1 -1 -2 -2 -1 -1 -2 -1
1532262307675633 0 -1 -2 0 0 -1 -1 0
1532262307687574 1 1 1 -1 0 0 -2 -1
1532262307721483 -1 0 -2 -2 -1 0 0 0
1532262307735446 -1 -2 0 -1 0 -1 -2 0
1532262307763397 0 -1 -1 -1 -1 -1 -1 -1
1532262307779329 0 0 0 -1 -1 -1 0 0
1532262307801305 -2 -4 -1 -2 0 0 0 0
1532262307831221 -1 0 -2 0 -1 -1 2 2
1532262307898039 0 0 -1 -3 -1 -2 -2 -1
1532262307965857 1 -2 -2 1 0 0 -2 -1
1532262308012727 -1 -1 -2 -1 -1 -1 0 -1
1532262308093488 -3 -3 -1 -2 -1 0 -1 -2
1532262308154325 -2 -1 -1 -2 -3 0 -3 -1
1532262308274029 -3 -3 -4 -13 -3 -6 -2 -2
1532262308318889 -4 -7 -4 14 27 10 -1 -5
1532262308369749 -4 -2 1 -1 -2 -1 -15 -4
1532262308416651 3 -3 -8 -8 -9 -4 30 8
1532262308439565 0 -2 -3 -2 11 4 -2 -2
1532262308513393 1 1 -2 -1 15 3 4 1
1532262308575227 -1 0 -1 -16 -7 -9 -11 -6
1532262308644043 6 5 2 0 -4 8 -6 3
1532262308664980 -3 -1 -2 -5 -5 -31 1 -13
1532262308707868 7 0 -3 1 15 7 -2 -8
1532262308739759 4 -3 -2 0 9 9 -2 -17
1532262308778656 -13 2 0 -2 1 1 -5 -3
1532262308800626 0 -4 -3 -2 4 -4 -1 -9
1532262308868416 0 -3 -7 -10 -10 -11 1 7
1532262308918310 18 6 1 -6 -19 -27 -23 -1
1532262308986125 6 -56 -22 1 -14 -21 0 -57
1532262309075889 -19 -13 2 1 85 14 15 2
1532262309127723 4 6 0 -6 -1 3 -9 -5
1532262309188583 -2 -1 -1 0 -7 15 3 0
1532262309196566 7 15 3 0 -3 -1 2 15
1532262309255408 -5 1 2 -4 20 -21 1 -3
1532262309294300 -5 -17 -2 1 35 79 -2 -3
1532262309338160 4 17 13 21 5 -10 -17 1
1532262309445875 -5 -1 -3 -2 -16 -21 -17 -7
1532262309451879 -7 -18 -5 -5 -31 -23 -6 -7
1532262309496759 0 -10 1 2 -7 -2 12 14
1532262309505712 4 3 2 1 -3 -10 -7 -3
1532262309517706 6 0 0 -6 0 0 8 -6
1532262309541648 2 0 -1 4 1 -9 -4 -10
1532262309578517 5 -1 1 8 -28 23 19 5
1532262309617443 7 -1 -1 9 20 -19 -27 9
1532262309623427 0 -1 0 -11 -3 -18 -28 7
1532262309660299 -5 4 9 17 -2 -1 -31 -64
1532262309698220 -9 -4 -6 17 22 7 -29 -61
1532262309721162 6 1 -4 -10 12 3 -6 -12
1532262309736122 1 3 1 -9 -3 12 26 30
1532262309758062 -5 -6 -2 -4 4 5 11 32
1532262309781003 3 -1 -2 -9 -19 12 2 19
1532262309818874 -5 -11 1 4 34 10 9 -4
1532262309864752 -57 -67 2 -2 -6 -21 6 23
1532262309908657 21 19 -2 5 37 -6 3 -3
1532262310001386 24 11 3 4 -23 -14 4 3
1532262310023329 5 10 1 8 12 15 15 -25
1532262310044272 11 6 3 -2 -6 -24 12 21
1532262310066236 4 2 1 3 8 18 -18 -3
1532262310104135 -11 0 -2 -3 -4 10 -11 -39
1532262310126076 -1 0 -2 0 -3 2 -8 1
1532262310149019 7 1 0 -3 -4 -4 -1 -8
1532262310170960 3 2 0 -1 2 -2 -17 -10
1532262310193898 -4 -2 0 2 -13 -5 -8 1
1532262310263685 2 -1 -4 0 -5 -10 -7 12
1532262310283632 2 0 -2 -3 2 -9 22 7
1532262310320560 1 7 9 7 6 38 1 3
1532262310343496 -3 0 8 36 14 -6 -20 -2
1532262310383411 -1 0 9 25 2 -15 17 11
1532262310426250 -3 -1 5 2 0 -5 4 0
1532262310487114 -19 -3 -3 0 4 17 -4 -20
1532262310554929 4 2 2 2 12 39 -22 9
1532262310562907 4 -2 -3 1 -2 -2 2 -21
1532262310583853 0 2 3 5 6 14 -43 3
1532262310597815 -20 -3 -3 -3 -2 -2 34 -44
1532262310683584 -8 -2 -3 0 -4 -15 3 12
1532262310765371 -1 2 -1 -11 -3 40 20 18
1532262310785290 -15 1 -1 0 -3 -12 -4 1
1532262310824186 1 -5 0 -6 0 -3 1 0
1532262310854119 1 2 0 16 6 24 9 14
1532262310884053 2 0 6 6 6 -6 10 1
1532262310927932 -3 -10 -5 -3 -9 -11 -1 6
1532262310973800 2 1 8 1 0 1 -5 10
1532262311063546 5 0 2 6 0 -16 9 4
1532262311111441 8 -2 -4 1 1 5 -6 -30
1532262311177270 -2 -2 -2 0 -1 -16 -8 -6
1532262311214143 -3 -1 -1 -2 -2 1 -7 -3
1532262311236108 -2 -1 -3 -1 -2 6 -1 6
1532262311304923 -2 1 0 0 1 0 -1 1
1532262311342808 -2 -2 0 -12 -7 -40 1 -3
1532262311362755 -2 -5 -6 -11 -20 -30 -4 -1
1532262311399674 2 -1 -2 -1 -57 106 11 4
1532262311445549 18 -2 -4 -5 -2 -38 6 4
1532262311460506 -4 -2 8 -2 -11 -10 5 3
1532262311506367 -1 3 2 7 42 37 8 -1
1532262311574203 -5 6 -1 -5 7 11 -2 -3
1532262311627039 -2 6 -1 -2 2 11 -9 -9
1532262311685909 -6 0 0 0 45 27 -4 -7
1532262311723812 3 -3 -1 -1 -37 -5 5 7
1532262311768688 2 -1 0 -1 5 0 -1 3
1532262311843460 -1 -1 0 0 -2 -1 3 5
1532262311942220 0 -1 -1 2 -2 -3 -2 -5
1532262311986101 -1 -2 -1 0 -1 -3 -2 0
1532262312053918 -1 -3 -1 -1 -1 -1 0 -1
1532262312158645 -1 0 -2 -1 -1 -1 -3 -1
1532262312264362 -1 -1 -2 -2 -2 -2 2 0
1532262312324197 -2 -1 -1 -1 -1 -1 0 -1
1532262312429892 0 -1 -1 1 2 0 0 -1
1532262312451856 -3 -1 0 -1 -1 -2 -3 -1
1532262312496740 1 -1 -1 0 -1 0 -1 -1
1532262312526662 0 -1 -1 -3 0 0 -3 -1
1532262312548597 -1 -4 0 -2 -1 0 2 -1
1532262312601461 -1 -1 -1 -2 0 0 3 10
1532262312751063 4 -1 1 0 -1 -3 -1 -1
1532262312767018 -1 0 0 0 1 1 0 -1
1532262312825861 -1 -2 -2 1 -3 -1 -2 0
1532262312835833 -1 1 -1 -1 1 -1 0 -1
1532262312857748 0 -2 0 -2 0 -2 -1 -2
1532262312877717 -2 -1 -4 -2 -1 -1 -2 0
1532262312930580 -2 -2 -2 -3 -2 1 1 3
1532262312967455 -1 -2 1 -1 -1 -1 -3 -2
1532262313021337 -1 -4 -2 -1 -2 -3 2 12
1532262313126053 1 -2 -3 0 -3 2 1 1
1532262313147992 -2 -1 -1 -2 -2 1 -1 -6
1532262313208837 2 0 -2 0 8 6 -1 2
1532262313270667 -1 -1 -2 -1 0 4 0 1
1532262313304574 10 -2 1 -1 -38 -17 2 1
1532262313351455 -2 1 -2 -3 -19 7 1 -2
1532262313365414 -3 -6 -2 1 11 9 -4 -3
1532262313411288 3 -1 -2 -2 4 -16 -8 -10
1532262313449194 -3 2 -1 1 7 -3 5 13
1532262313493072 -1 -3 0 0 7 2 -2 -8
1532262313562863 -5 0 -2 -2 -12 -5 -1 -8
1532262313651649 -4 -3 -2 -2 3 8 5 -8
1532262313688553 -3 -1 0 0 0 1 -4 3
1532262313726453 -2 -1 -1 0 -3 0 -5 -4
1532262313763354 -4 0 -3 0 10 28 -3 -3
1532262313786292 2 -3 -2 -4 -13 -21 22 10
1532262313804253 -10 -1 0 1 -4 -4 -1 -6
1532262313827156 -3 -1 -2 -1 -8 -14 -9 4
1532262313863060 6 0 -2 -1 -1 -3 -9 -8

1532262313884004 -8 -3 1 0 1 2 -7 5
1532262313904948 0 -2 -1 1 2 2 1 1
1532262313936885 -10 -1 -1 -2 -1 -7 1 -3
1532262314003707 5 0 -3 -4 -12 -13 21 4
1532262314011686 -2 -4 0 -1 -4 6 -3 -1
1532262314102419 -2 -1 -3 -2 -6 -2 -5 -1
1532262314124392 7 -4 -3 -3 0 33 0 1
1532262314161285 -7 -1 -2 -2 1 4 12 -1
1532262314199183 -5 -1 2 1 -3 -9 -4 7
1532262314228107 18 -2 -2 -1 0 13 6 -6
1532262314272964 -5 0 0 -1 -1 -5 -6 7
1532262314334799 -4 -2 -4 -2 -5 -23 18 1
1532262314386694 4 0 -2 -2 2 5 -13 9
1532262314491402 1 -1 -2 1 0 2 -2 -1
1532262314536287 6 -2 -2 -1 -2 -10 4 0
1532262314559221 -1 -3 -3 -2 0 2 1 6
1532262314618068 -1 0 0 0 1 -9 2 -3
1532262314649982 -1 -1 2 1 -1 -1 -11 -3
1532262314709819 3 -1 -2 -3 -3 -2 -3 3
1532262314753678 -4 0 1 2 -1 6 0 -6
1532262314776644 1 -3 -4 -3 -3 -3 6 4
1532262314821496 -3 2 0 3 0 -7 1 -3
1532262314827508 0 -3 -3 -4 -2 -1 3 1
1532262314873359 1 -1 0 -1 -1 -4 2 0
1532262314912281 11 -2 -4 -3 -2 -4 5 6
1532262314949155 3 -1 -3 -2 -1 0 -1 -4
1532262314972094 1 -2 -1 -2 -3 -1 1 3
1532262314980100 -1 0 -2 -1 -2 -3 -2 1
1532262315030937 7 2 2 0 -1 -1 1 1
1532262315053875 -3 -4 -1 -2 0 0 0 0
1532262315187550 -4 1 0 0 0 -2 5 3
1532262315234420 0 -1 0 -2 -2 -3 -1 1
1532262315265334 2 1 -1 -1 -2 -3 -6 0
1532262315286275 -3 0 0 0 1 4 -2 8
1532262315307211 6 -3 -2 -3 -3 -1 0 -5
1532262315330164 -2 0 -1 1 1 1 -3 -2
1532262315356077 -2 -2 -1 -1 -1 -2 2 3
1532262315377037 -1 1 -1 0 0 1 -1 -5
1532262315405934 -1 -2 -1 -1 -3 0 -1 -1
1532262315453811 -1 -1 0 1 0 1 -1 -1
1532262315472756 -4 1 -1 -1 -3 -1 -1 -4
1532262315542591 -8 -3 -3 -4 -3 -1 -4 -7
1532262315547582 4 1 0 0 -1 1 -1 -8
1532262315579493 2 -1 -1 -2 0 -1 -3 -2
1532262315595427 -11 -2 -1 -1 -2 0 -1 2
1532262315625363 0 -1 -3 0 -1 1 -2 -1
1532262315714139 0 0 0 -1 -1 -4 -2 -3
1532262315728097 -2 -2 0 1 0 0 -1 -3
1532262315758016 -9 -2 -2 -1 -1 -2 0 -4
1532262315796894 -1 0 -1 0 -2 -1 -2 -8
1532262315895647 -1 -1 -1 -2 -1 -1 0 3
1532262315931551 1 -1 -1 -1 -2 -2 -2 -1
1532262315992366 -4 0 -1 -2 0 -2 2 -2
1532262316059210 -1 -2 1 0 -2 1 -2 0
1532262316155942 -1 -1 -2 -1 0 1 -3 -2
1532262316185876 -1 -2 0 -2 0 -1 4 3
1532262316282618 -1 -1 -2 0 0 -1 -1 -2
1532262316337443 -7 0 0 -1 -2 1 -2 1
1532262316352402 1 0 1 1 0 -2 -2 3
1532262316367390 -2 -1 -2 -2 -1 2 -5 -4
1532262316418227 2 -1 -2 -2 -2 -2 2 -5
1532262316433188 1 -1 0 -1 0 1 0 0
1532262316478093 0 0 0 -2 0 -2 -2 0
1532262316508984 2 -1 0 -1 -1 -1 0 2
1532262316569845 -4 1 10 2 5 12 -1 1
1532262316644645 6 4 -5 6 11 6 4 1
1532262316650628 -1 -2 0 -5 -7 -5 -4 -3
1532262316718456 4 1 -1 -1 26 13 22 10
1532262316825166 -2 -1 -1 -1 1 10 7 -1
1532262316892957 -42 -10 -7 -2 3 -1 -9 -4
1532262316958816 -1 -2 -2 3 7 4 9 -4
1532262317057540 -3 -4 -3 0 -5 4 2 -3
1532262317126357 -8 -7 -3 0 -1 1 6 11
1532262317178218 2 -14 -3 -3 -4 5 -3 -2
1532262317257981 -18 -13 -6 -2 7 34 15 20
1532262317364720 -21 -15 -6 -2 -2 -7 -5 -5
1532262317408579 -18 -7 0 -2 12 7 10 -10
1532262317468419 9 -5 1 1 18 3 -1 0
1532262317521305 -3 0 0 0 -1 -4 0 4
1532262317535264 -3 -1 0 -2 -2 1 -2 -2
1532262317641982 1 -54 -20 8 -43 -31 -10 -1
1532262317663919 -6 4 -6 -9 7 21 -1 -1
1532262317686862 -3 11 2 5 3 16 2 3
1532262317708776 -3 -2 1 -9 -5 -4 -38 -25
1532262317714760 4 2 -5 -7 8 8 7 18
1532262317770610 -4 9 0 -1 5 9 14 -9
1532262317783604 -1 8 0 -1 8 11 10 -3
1532262317821474 3 -10 -1 -2 -21 13 -15 -8
1532262317835464 0 12 1 1 9 -3 15 -1
1532262317881314 6 -2 0 -2 -13 -1 -10 2
1532262317904275 2 -2 0 -3 7 6 9 3
1532262317920211 1 -3 -5 -8 1 0 -23 12
1532262317941177 -4 -2 -3 0 14 -2 -14 -8
1532262317965125 -5 1 -2 11 -6 8 3 -6
1532262318009972 0 -2 -4 -5 -1 -6 23 5
1532262318015982 3 1 -2 5 -1 -6 8 19
1532262318061841 4 0 -2 -12 -9 -47 -7 0
1532262318106712 0 -1 0 13 -4 -10 3 4
1532262318128676 3 -8 3 3 34 -17 23 11
1532262318151592 -5 -2 0 -18 -20 -12 -7 -20
1532262318227417 0 -10 -4 -4 17 -4 3 -4
1532262318318169 0 22 1 0 -1 5 2 4
1532262318339090 14 -16 -3 -2 9 12 14 33
1532262318391949 -2 -1 -1 -1 -8 -4 2 -6
1532262318405912 -3 -1 3 1 -4 6 -7 -2
1532262318533570 -3 0 -2 -1 -5 1 -3 9
1532262318550537 -6 -1 -2 -2 -7 3 -30 -25
1532262318624328 -2 -4 2 2 -6 -17 6 13
1532262318654275 -5 -7 -2 0 2 -7 3 4
1532262318798861 2 4 13 20 0 -4 -19 -3
1532262318857726 -1 -7 -4 2 3 -3 12 12
1532262318880665 -2 1 -1 2 0 -9 -4 0
1532262318908595 2 -1 -1 -1 0 1 7 6
1532262318986383 -1 -1 -5 -4 0 2 -13 -1
1532262318997355 0 -2 -5 -3 -1 -1 0 -1
1532262319092077 2 -2 2 1 1 3 3 2
1532262319113048 -9 0 -2 1 -1 5 8 -14
1532262319134983 -2 4 -7 -14 -6 6 1 14
1532262319139953 1 4 9 58 18 -16 -1 1
1532262319186849 4 -2 -8 -39 9 10 17 3
1532262319209788 -6 -4 -2 7 26 3 -8 8
1532262319373325 0 -4 -2 -3 -20 -42 -11 -2
1532262319421197 1 -4 0 -2 -8 -2 12 0
1532262319443138 -2 -4 -3 -1 -4 23 3 2
1532262319465079 -4 -1 -4 -3 0 -4 -6 -6
1532262319494002 -3 -4 -3 -1 0 -4 -4 -11
1532262319514946 1 0 -1 0 1 15 -4 0
1532262319553842 8 -5 -5 -5 -13 -31 -4 -6
1532262319576781 0 -5 1 -2 -14 9 -2 2
1532262319605726 1 5 3 -3 -2 -3 8 -1
1532262319696488 0 -5 -5 -2 -42 -39 -7 -17
1532262319712446 -14 -2 -4 -2 28 72 7 -16
1532262319757298 15 -2 -4 -7 -17 -28 -12 -23
1532262319763282 34 -2 -5 2 21 16 -2 -41
1532262319875981 -1 0 -1 -3 4 -17 3 12
1532262319930836 -8 0 0 0 7 9 -19 -15
1532262319973719 6 1 0 -1 0 -6 1 15
1532262320002666 17 -1 -5 -3 -1 3 -3 23
1532262320026603 -15 0 2 1 0 2 -10 -72
1532262320062482 -1 -1 -1 -1 0 -1 3 12
1532262320093423 4 -3 0 1 0 3 5 19
1532262320154249 -2 3 1 -1 -1 1 -3 17
1532262320208093 -5 -3 1 -1 -2 -5 1 13
1532262320230068 8 -2 -1 1 2 5 4 7
1532262320266963 -16 0 0 -1 0 -2 -1 -4
1532262320317799 -3 -4 -1 0 -1 -2 -5 -48
1532262320385640 1 -2 -1 1 -1 -1 -2 2
1532262320416558 -5 -2 -1 -1 -1 1 -1 -10
1532262320508314 -11 1 1 -1 -1 -6 8 -6
1532262320520286 -8 -1 2 2 1 2 2 -6
1532262320545191 7 -3 -3 -1 -1 2 -7 35
1532262320602065 -2 0 1 0 -1 0 -3 19
1532262320641932 -4 -1 -2 -2 -1 0 -1 -23
1532262320740692 0 -1 0 0 -2 -4 1 -10
1532262320783577 -1 -1 -1 -2 -1 -1 -4 -5
1532262320851395 -11 -2 -2 -2 -2 0 -3 -5
1532262320874311 -15 -6 -1 0 1 -2 -6 -71
1532262320905267 -18 1 -2 -2 0 0 1 9
1532262320926196 4 -1 -1 -2 -1 -1 -1 35
1532262321002994 -10 0 0 -1 3 -3 -2 -37
1532262321033884 10 -2 -2 0 -1 -4 -1 18
1532262321100706 4 -1 -3 -2 -2 -1 5 22
1532262321151597 -6 -2 -2 -1 0 2 -1 -8
1532262321257310 0 0 1 1 1 -2 0 -6
1532262321293222 -1 0 1 1 0 1 -6 9
1532262321330120 2 -2 -1 -1 -4 -6 -1 1
1532262321397935 0 -1 -1 -4 -16 -11 -4 -16
1532262321428828 -4 -5 -5 -3 -1 3 1 -1
1532262321580423 -2 -4 -2 -5 -4 1 -1 -2
1532262321647274 4 -1 -1 -1 8 3 3 15
1532262321671207 4 -1 -1 2 3 2 1 5
1532262321730046 -3 -1 -3 -1 2 0 5 -3
1532262321753982 -4 -2 -1 0 1 -2 1 -5
1532262321764956 17 -2 -1 -1 -2 -5 -2 10
1532262321847708 -9 1 -2 -5 -10 -10 1 -4
1532262321874637 0 1 1 1 -1 3 -7 -2
1532262321932481 -3 4 1 1 2 0 -2 -19
1532262321953426 -8 -2 -4 -3 -1 -3 -1 -10
1532262321984371 1 -1 -4 0 -1 2 -2 11

1532262322028253 6 -2 1 1 4 5 -6 -4
1532262322081108 0 -2 -2 -1 0 -3 -1 6
1532262322210737 0 0 -1 -2 0 4 -2 -12
1532262322231709 -2 0 -1 0 1 4 -2 -18
1532262322284562 -1 -1 0 -1 -1 0 2 1
1532262322315457 -18 1 0 0 -2 -6 -3 11
1532262322327457 -3 0 -1 -2 -2 -5 0 7
1532262322360361 0 -1 -1 0 2 2 -1 1
1532262322383298 -9 1 -2 1 1 5 -7 7
1532262322449122 -7 0 0 -1 -2 -1 4 8
1532262322493980 -10 -2 -1 -1 0 -3 -5 -14
1532262322530908 4 -1 0 0 1 4 3 45
1532262322636628 -1 0 -1 -1 -1 1 -2 -14
1532262322644577 -3 -2 -1 -2 0 -2 -3 -8
1532262322665548 -4 -1 1 2 -1 0 -2 -11
1532262322751315 1 -1 -2 -4 -2 4 -9 2
1532262322764284 7 -1 -1 0 -4 -2 0 -1
1532262322816146 -2 -1 -1 0 -1 -4 0 0
1532262322868977 -1 -1 -1 -2 0 6 -9 -14
1532262322905878 -4 -1 2 0 1 -2 -4 4
1532262322937793 -11 -1 0 -1 -3 -1 -2 -10
1532262322983671 1 0 0 -1 0 -1 0 -2
1532262323003617 -3 -1 0 2 0 0 -4 -2
1532262323063481 3 -3 -2 -2 -2 -2 0 -3
1532262323078441 -3 -1 -1 -2 -1 1 -2 -8
1532262323124317 -2 0 -3 -1 1 1 -5 -17
1532262323145261 -3 -2 -1 -1 0 3 -4 -11
1532262323192135 -4 1 0 -2 -2 -1 -5 -6
1532262323274892 -3 -1 -1 -2 0 1 -2 4
1532262323311793 1 -1 -1 0 -1 -1 0 8
1532262323340736 0 -2 -1 -2 -1 -1 -1 -2
1532262323393574 -4 -1 -1 -1 0 1 0 13
1532262323415547 -4 0 0 -2 -1 1 1 10
1532262323445462 0 0 -2 0 0 3 -1 5
1532262323472388 -2 -2 0 -1 -1 -3 0 1
1532262323515273 -1 0 0 0 -1 -3 -2 3
1532262323560129 0 -1 -3 -1 -2 -1 2 1
1532262323583090 1 -2 -1 -1 -2 -2 -1 2
1532262323633931 0 0 -1 -2 -1 -1 1 0
1532262323678834 0 0 1 -2 -1 0 -2 -2
1532262323722694 0 0 -1 1 -2 -1 -2 0
1532262323791510 0 -1 -2 -3 0 -3 -3 -1
1532262323813479 0 -2 -1 -1 0 0 4 0
1532262323839383 -1 -2 -1 -1 -1 -2 -1 4
1532262323862344 -2 -2 -1 0 0 4 -2 -3
1532262323874289 4 -1 -2 -2 -2 -2 0 1
1532262323895233 -2 1 0 -2 -1 -1 1 22
1532262323926174 0 -1 -2 -2 -2 1 0 -3
1532262323956069 -2 0 -2 -1 -1 -1 -1 -4
1532262323979041 -3 -1 0 0 0 0 -1 -8
1532262324001948 6 -3 -4 -2 -3 -2 -3 -7
1532262324122626 -1 0 -1 -1 0 -2 1 4
1532262324146561 0 -2 2 0 -1 0 -2 -5
1532262324181491 -2 -1 -3 -1 -2 1 -2 1
1532262324195430 -14 -1 -3 -1 1 -1 0 1
1532262324399883 0 0 -2 -2 0 0 -5 -14
1532262324458726 -3 0 0 0 -1 -3 1 -4
1532262324563446 5 -1 -2 -2 -3 -2 -1 13
1532262324600374 3 0 -2 -1 0 0 1 13
1532262324673154 -2 0 -2 1 0 -1 -1 6
1532262324692129 -3 -1 -1 0 0 8 2 -3
1532262324706064 -5 -10 -5 -6 1 14 -4 3
1532262324757949 2 9 20 10 -6 10 -3 2
1532262324804823 8 2 -5 -2 1 -12 0 12
1532262324848711 -2 -1 -5 -9 1 -6 -1 4
1532262324946445 2 0 -4 -7 -1 1 8 2
1532262325021250 -13 6 8 5 -5 -8 -4 -20
1532262325089055 -9 0 2 0 4 26 10 -3
1532262325172836 -20 -1 0 -2 -3 -7 1 -8
1532262325195764 -1 -1 1 0 -3 -11 5 8
1532262325219712 -7 2 4 4 12 11 0 6
1532262325240637 0 -4 -2 -2 -6 -1 7 20
1532262325262592 3 4 3 -1 -12 -12 -9 1
1532262325299478 -1 -2 -2 -4 -1 -3 -7 -8
1532262325374306 1 -2 -2 -3 -12 11 -5 -6
1532262325436113 8 2 -2 1 2 -5 5 9
1532262325487003 -3 -8 -3 -2 -2 5 0 -23
1532262325563771 -9 1 -2 -3 -5 -5 7 7
1532262325681484 -2 -1 -2 -1 -1 -4 1 0
1532262325736310 4 1 2 0 2 0 -3 -4
1532262325818118 -1 -3 -1 -2 12 3 -5 -8
1532262325855016 -3 -2 -2 -3 -1 -5 -1 -6
1532262325869984 1 1 -2 -6 -5 38 0 -1
1532262325897909 10 6 1 -1 -6 -9 -7 -13
1532262325913848 -8 -9 -6 -4 -2 -11 -5 8
1532262326056454 1 0 11 22 0 -11 -43 -45
1532262326137238 15 6 -4 -20 10 1 37 15
1532262326237968 2 1 4 1 7 15 -33 7
1532262326267888 4 0 1 2 1 5 11 14
1532262326313766 -3 1 -1 -2 -1 -4 0 26
1532262326335707 -2 -2 -1 -1 -3 -2 5 -9
1532262326356650 0 -4 -2 1 1 7 -15 4
1532262326377618 2 3 1 -3 -12 -4 -1 -2
1532262326400557 4 2 10 26 5 7 8 7
1532262326423496 -1 0 -4 -11 0 1 -1 -4
1532262326453415 -1 -2 -1 -6 -6 -3 0 -1
1532262326476358 -2 0 -2 1 -2 -11 1 1
1532262326498302 2 0 -6 -6 -7 -13 -14 7
1532262326522231 0 -3 -13 -12 15 -19 -16 -2
1532262326545147 -2 -3 -6 5 3 5 -17 -3
1532262326613963 4 6 9 27 12 19 22 11
1532262326693749 16 -3 0 -4 1 18 14 -2
1532262326702725 -24 -19 -3 0 -3 -10 1 -68
1532262326776551 -6 50 1 -2 -13 -58 -14 -6
1532262326858332 -3 -20 -4 -5 -2 -7 -24 -20
1532262326883273 0 -14 0 -1 -8 4 -7 2
1532262326904214 1 1 -10 3 1 -7 33 14
1532262326934106 -2 -3 -1 -3 -2 0 6 -2
1532262326956066 -4 6 -3 -5 -1 30 -16 -12
1532262326985991 -3 3 -2 -1 -3 8 17 22
1532262327008906 7 15 -13 -7 1 -5 -5 0
1532262327143569 -4 -14 -4 7 -4 -15 -15 1
1532262327167510 3 12 5 15 4 -4 16 6
1532262327205408 0 -2 0 -1 -5 -32 -11 0
1532262327273200 2 4 0 0 2 -13 4 10
1532262327287189 0 0 -3 -2 -1 5 11 2
1532262327309131 -2 -7 -3 -2 -2 28 0 18
1532262327338053 -8 -24 -4 -2 0 -47 7 -23
1532262327407840 0 -2 0 -7 -5 -9 25 17
1532262327466711 2 1 -5 -1 -2 19 30 6
1532262327511598 -2 1 0 3 -4 3 -9 3
1532262327564446 -1 -1 1 0 7 -19 -11 -3
1532262327588373 0 -6 -3 -5 -13 20 -9 1
1532262327722000 -2 -1 -1 -1 -26 -18 -9 -3
1532262327802783 3 11 -7 -9 -14 -46 -16 -5
1532262327856640 -5 3 -1 1 -4 12 2 2
1532262327932461 -1 1 1 1 -9 1 -2 -2
1532262328015243 -1 1 -2 -2 -2 1 0 -1
1532262328066079 -2 -1 -2 -1 -2 5 -7 -2
1532262328089018 -2 2 -3 -2 -2 0 -6 -2
1532262328112977 -2 -4 0 1 -2 6 3 -1
1532262328239615 1 2 -1 -3 0 11 -1 -1
1532262328299480 0 0 -1 0 -1 -10 -2 -1
1532262328487975 -3 -1 -1 0 4 5 2 2
1532262328510898 2 2 -1 -1 0 -3 -5 -3
1532262328531857 -3 -4 0 0 -3 -3 -3 -2
1532262328553775 -4 -1 -2 -3 -3 0 1 0
1532262328605658 0 -1 -1 -2 -1 -2 2 0
1532262328651536 -1 -2 -1 -2 -2 2 4 -3
1532262328689412 -1 -2 -2 0 -2 -5 -1 -1
1532262328726342 0 -3 -1 -1 -3 -2 -1 0
1532262328788171 -1 1 -2 0 1 0 0 -2
1532262328810116 -1 -1 0 1 -1 -2 -5 -2
1532262328904864 -1 -2 -2 0 2 -1 2 -2
1532262328951734 -1 1 -1 -2 -3 -2 -4 -1
1532262329011551 0 0 0 -1 0 -5 -5 -1
1532262329047483 -2 -4 0 -1 1 -5 5 2
1532262329124272 -1 -1 -3 -3 -3 -3 -6 0
1532262329175114 -2 -1 -1 0 -1 -1 3 -1
1532262329250940 -2 -2 -2 0 0 1 0 -2
1532262329312768 -1 -1 0 0 -1 -1 -5 0
1532262329400538 1 -1 1 -1 0 -1 -2 0
1532262329445418 -2 0 0 0 0 0 0 -1
1532262329530187 0 -2 1 0 0 1 1 0
1532262329597013 -2 -4 -2 -3 -3 -2 -1 -2
1532262329687766 -1 -2 0 0 0 -2 -1 -2
1532262329703701 0 0 -2 -1 0 0 -4 -3
1532262329731649 -2 -1 0 0 -1 0 3 -2
1532262329776524 0 -1 -1 1 -1 0 -1 -5
1532262329844347 -2 -2 1 0 -1 1 -1 -1
1532262329971008 0 1 0 -1 0 2 -1 -1

1532262330007888 0 -1 -1 1 -1 0 0 -2
1532262330053787 -2 -2 -1 -1 -2 1 0 0
1532262330098672 -1 0 -1 -2 0 1 -2 -1
1532262330121583 -1 -1 -1 -1 -1 -1 -3 -3
1532262330174441 0 -2 -2 -1 0 -2 0 0
1532262330199375 0 -1 -3 0 0 -1 0 2
1532262330221341 -3 -1 -1 -1 -2 -2 0 0
1532262330257269 1 -1 -1 -1 -1 0 -1 0
1532262330293151 -3 0 0 0 -1 -2 -2 -4
1532262330353982 -2 0 0 -1 0 6 0 -4
1532262330386874 1 -1 -3 -1 0 -4 0 0
1532262330452720 -1 -2 -2 1 -2 -1 0 -2
1532262330475663 -2 0 -1 0 -1 -1 0 0
1532262330496580 -2 -1 0 -1 -3 0 0 -1
1532262330579358 -2 -1 -1 -2 1 -1 -2 -2
1532262330600328 0 0 -2 0 -1 0 0 2
1532262330632242 -1 -1 -2 -1 -2 0 1 -3
1532262330752922 1 -1 -1 -1 -1 -1 0 0
1532262330775834 0 -3 -4 -3 -1 -3 -1 0
1532262330798799 -1 -2 -3 -2 -1 1 0 0
1532262330855641 0 -2 -1 1 0 2 -4 -3
1532262330869608 1 -1 -1 -1 -2 -2 0 1
1532262330909498 -1 -1 -2 -2 -1 1 -3 -2
1532262330917478 0 1 0 0 0 0 -1 1
1532262330984276 -1 -1 -1 -1 0 -2 0 -2
1532262331006217 1 -1 -1 -2 -3 -1 -1 0
1532262331029156 -1 0 0 -2 -2 -1 -1 -1
1532262331036165 -1 -1 0 -1 -2 0 -1 0
1532262331058103 -3 0 -1 1 0 -1 0 -2
1532262331096000 -1 -1 -2 -1 -2 -2 -2 1
1532262331109940 -3 -3 -2 -1 0 0 -2 -2
1532262331132879 -1 1 2 0 -1 0 0 -1
1532262331155817 -2 -1 -1 -1 0 0 -1 -4
1532262331179781 -1 -2 -2 0 -1 -2 -1 0
1532262331240590 -1 0 -2 -1 0 1 0 -1
1532262331284474 -1 -2 0 0 1 -3 -2 -1
1532262331354286 0 0 -3 -2 -2 -3 2 0
1532262331367252 0 -2 0 -2 -1 1 -1 0
1532262331396174 -3 -2 -1 1 -1 0 -3 -3
1532262331419140 0 1 -1 -1 -1 -1 1 -2
1532262331492916 -1 -1 -1 -1 -1 -1 0 -1
1532262331515855 -1 -2 -1 -1 0 -2 -1 0
1532262331537822 0 -2 -1 -1 -1 -1 0 -1
1532262331585691 -1 0 0 0 -3 -1 0 0
1532262331612616 -3 -2 -1 0 -1 -1 -1 -1
1532262331695397 -1 0 -1 -1 -2 -1 -1 0
1532262331719334 -3 -2 -3 0 -1 -1 0 0
1532262331773166 -1 -2 -1 -1 -2 -3 1 1
1532262331803087 -3 0 0 0 1 0 -3 -3
1532262331860965 0 0 -2 0 0 -2 -4 -2
1532262331885881 -1 -2 -1 -2 -4 0 -2 0
1532262331935769 1 0 -1 1 -1 -3 -1 0
1532262332003574 -1 -2 -1 -2 1 0 -1 -3
1532262332040468 -2 -1 -1 0 -2 -3 -3 -2
1532262332160154 -1 -1 -1 -1 -2 0 3 0
1532262332172100 -1 0 0 -2 -1 -1 1 -1
1532262332220968 -1 -2 -2 -1 -1 -1 -1 -1
1532262332258891 0 -1 -1 0 -1 0 -2 -1
1532262332341670 -2 -1 -1 0 -1 -1 -4 -1
1532262332440410 -1 -1 0 1 0 -1 -3 -2
1532262332499225 0 -2 0 0 -2 -4 0 -3
1532262332536126 0 0 -1 0 0 -1 -2 0
1532262332559087 -1 -1 -1 0 1 -1 -1 -1
1532262332581034 -1 -2 0 -1 -2 -1 0 1
1532262332618905 -3 -2 0 0 0 1 -2 -1
1532262332741613 -1 1 -2 -1 0 -1 -2 0
1532262332753566 -1 0 -2 -2 -1 -1 -2 0
1532262332798459 -1 0 -1 -2 -3 1 -1 -2
1532262332861261 -1 0 -2 1 -1 0 -2 -1
1532262332905162 0 0 -1 -2 -1 0 -2 1
1532262332934090 0 -1 -2 -2 -2 -1 -1 0
1532262332973956 -1 -1 1 -2 -1 0 -1 -2
1532262332993902 -3 -1 -2 0 -1 0 -1 0
1532262333033823 -2 -1 -1 -2 -2 0 -1 0
1532262333039780 -2 0 -1 0 -2 -3 -2 3
1532262333061741 2 -2 0 -1 -1 -1 0 -2
1532262333128542 -2 -2 0 -1 0 0 -3 -2
1532262333151503 2 0 -1 -2 1 2 -2 2
1532262333196388 -3 -1 -2 0 0 -1 -1 0
1532262333279160 -1 -1 1 1 -2 -1 -1 -1
1532262333312052 1 0 -3 -2 0 -1 -1 -1
1532262333344963 -2 0 -1 0 -1 0 0 0
1532262333391838 -1 -2 -3 1 -2 -1 -1 0
1532262333428757 0 -2 -2 0 0 -3 -2 0
1532262333488579 -5 0 -2 -2 -1 -2 -2 -2
1532262333528473 -2 0 0 -3 -3 -1 -3 -4
1532262333550440 0 0 0 -1 -1 -1 1 -1
1532262333572383 0 -1 -1 -1 0 -2 -1 3
1532262333586346 -2 -2 -1 0 -1 -1 -2 0
1532262333631198 -1 -2 1 -2 -2 -1 -1 -1
1532262333667102 -2 0 -1 -1 1 2 -1 -4
1532262333685082 -1 -1 0 -1 -1 -1 -1 0
1532262333709018 -1 -2 -1 -1 -1 -1 -1 0
1532262333734944 0 -1 1 -2 -1 -2 -1 -3
1532262333783790 0 0 -1 -1 -3 -1 -1 -2
1532262333827695 -1 0 -2 -1 -1 -1 0 0
1532262333842660 -1 -1 -2 -3 -1 -1 -1 -1
1532262333901502 -1 4 -1 2 9 11 0 0
1532262333962335 -1 -3 -2 7 -2 19 3 2
1532262333992233 0 2 3 -3 15 23 -2 -1
1532262334038133 -2 -3 -6 -8 -4 -15 3 0
1532262334083013 -3 -2 -1 4 -13 0 5 -2
1532262334105928 -2 1 6 9 -14 -9 -41 -11
1532262334186735 -6 -1 -2 0 8 -10 -11 0
1532262334208676 6 3 2 1 3 1 -10 -5
1532262334246579 -16 -2 -2 0 -1 -6 -6 -33
1532262334307420 8 1 0 0 7 9 8 25
1532262334350275 11 -2 -2 -3 -6 -4 15 8
1532262334398171 -4 -4 -4 -5 -1 2 -5 28
1532262334449026 -1 -3 -2 -3 -6 0 -5 14
1532262334500900 -23 2 -2 1 -4 2 -1 -39
1532262334568718 -11 -3 0 0 -4 -5 -4 13
1532262334631531 -3 -1 -3 -4 -6 -26 -16 9
1532262334674416 3 -1 -2 1 8 -13 -5 -9
1532262334696366 -6 18 13 12 6 -11 -1 -10
1532262334719298 -23 37 12 -6 5 3 -40 9
1532262334824008 -22 19 11 6 14 -2 11 -14
1532262334891856 8 7 4 -1 3 -14 3 3
1532262334975603 -1 2 0 -2 -1 -8 2 3
1532262335014524 -3 -3 -3 -4 0 -29 -2 -2
1532262335058381 0 -10 -3 -3 -6 2 -1 0
1532262335087332 0 -2 10 4 -3 12 -20 -2
1532262335169085 1 3 0 6 2 -8 18 17
1532262335210000 0 4 1 -1 -2 -7 1 -6
1532262335228925 0 7 0 -3 2 1 21 -1
1532262335251890 -4 -8 -4 -8 -7 -18 -94 -30
1532262335264853 -1 -4 4 13 6 2 30 -14
1532262335296772 -4 4 5 15 24 9 37 -19
1532262335303752 0 -2 -2 -2 -9 -3 -13 -32
1532262335324693 2 -10 0 -2 1 -3 27 18
1532262335342622 1 -1 -1 -7 -1 -10 13 20
1532262335373554 1 0 -2 -3 -5 -9 -1 -13
1532262335401464 9 29 5 4 -9 -13 -47 -3
1532262335423405 -2 -8 -7 -15 -7 -17 -3 -41
1532262335438392 -6 -7 -8 -11 -12 21 -2 -2
1532262335484294 -3 -2 -2 -6 -6 2 2 0
1532262335498205 -2 -7 1 5 16 -5 21 18
1532262335529123 -3 -8 -6 -10 -3 -4 4 3
1532262335559042 0 1 -8 -11 -10 -7 1 -10
1532262335580984 -1 3 1 -2 -10 8 -16 1
1532262335617885 0 1 -1 -7 -6 -17 7 8
1532262335654807 -2 -1 1 -1 -2 1 1 12
1532262335807379 -4 0 1 2 3 -1 -6 -19
1532262335814384 2 0 -1 -2 0 11 19 9
1532262335828322 -2 1 1 -3 -1 10 6 -6
1532262335889159 -2 -2 -3 0 0 1 26 -1
1532262335912126 -1 -1 -4 -1 -9 11 1 -8
1532262335935064 1 2 -1 2 2 5 9 -27
1532262335985928 0 -2 -4 0 5 -8 6 -7
1532262336002880 -4 -1 -2 7 3 -2 -17 8
1532262336031802 -1 -1 -2 -7 -15 -5 -31 1
1532262336052749 -3 -3 -6 -5 -5 -5 5 8
1532262336091639 4 3 2 14 10 22 13 13
1532262336128546 -1 -3 -4 1 4 -5 -1 -2
1532262336151481 0 3 9 9 2 0 3 4
1532262336157443 -1 -1 1 2 1 6 0 -7
1532262336212296 0 -6 -6 -21 -17 -27 1 0
1532262336271165 1 -5 -7 -2 2 -2 3 1
1532262336302078 -2 1 1 -3 -5 -15 1 -1
1532262336317040 0 -1 3 1 -2 3 1 -2
1532262336382862 -3 0 1 0 0 -1 -5 -24
1532262336424753 -1 -1 1 -2 -3 -14 10 6
1532262336438691 -1 0 -1 1 2 2 5 6
1532262336450687 0 0 -2 -1 0 -2 -1 4
1532262336464621 0 1 1 2 -12 1 -23 0
1532262336495564 -2 -1 -1 2 -2 1 -4 1
1532262336558379 0 -1 -3 -1 1 0 9 2
1532262336580334 -2 -4 -5 -8 -8 -8 -6 -4
1532262336602281 -1 1 -1 -9 -7 -26 4 1
1532262336615251 0 -4 -5 0 2 -18 -3 1
1532262336661096 -3 -2 -3 -4 -2 30 0 -5
1532262336735918 2 5 4 4 9 11 9 -1
1532262336766836 -2 0 -6 3 -2 6 -3 -4
1532262336790776 -1 0 8 -4 -5 5 -7 -2
1532262336811693 -2 -3 -9 0 0 -3 -5 -1
1532262336857570 0 0 -4 5 10 -1 7 0
1532262336895494 -1 -1 -7 -3 3 4 2 -1
1532262336917434 -1 0 3 2 -9 -10 -6 -2
1532262336931400 1 -2 -1 -6 -8 -7 -3 0
1532262336962314 3 0 0 -1 -2 6 -8 -1
1532262337052051 2 -1 -1 0 2 10 2 0
1532262337112887 2 -2 -4 -2 -2 -1 -4 -1
1532262337135832 -1 -2 -1 9 10 9 6 -8
1532262337150786 0 2 3 2 0 5 0 3
1532262337171730 -1 -1 -3 -6 -4 -2 -7 0
1532262337194691 -1 1 -2 -5 -4 -2 -6 -4
1532262337223625 -1 -1 -1 -1 0 4 -10 -2
1532262337231594 -2 -4 -1 -9 -6 15 4 0
1532262337253511 0 0 -2 -2 -3 -8 -4 -3
1532262337368232 -2 -1 0 5 8 18 5 3
1532262337450013 0 -2 1 6 -1 -29 0 -2
1532262337473946 1 4 -3 5 13 8 -2 -1
1532262337590637 3 0 3 6 -37 -8 -2 2
1532262337613577 -3 0 2 -6 -11 -9 5 10
1532262337673388 -11 1 -3 -5 -34 -17 -1 -9
1532262337707326 -7 -3 -2 -4 1 20 -1 6
1532262337719269 5 2 -1 -3 -21 -18 -2 -2
1532262337793096 -2 -3 -1 -3 -4 -4 -1 -1
1532262337816036 -1 -2 0 -1 3 1 -1 0
1532262337875847 0 -3 -2 -3 -1 -4 -1 1
1532262337920727 -2 -1 -2 -1 -3 -3 0 -2
1532262337996549 -2 -1 -1 -1 -1 0 -2 -2
1532262338027465 0 0 0 -1 -1 1 0 0
1532262338124184 0 -1 0 0 -1 -2 2 1
1532262338199981 0 0 -3 -1 -2 0 -3 -1
1532262338281784 0 0 -3 0 0 -1 -1 0
1532262338318663 -2 -2 -1 -2 -1 0 -3 -5
1532262338378526 0 -2 -1 0 1 0 -2 0
1532262338461304 0 -1 -1 0 1 -3 3 1
1532262338609905 -4 -1 -1 -2 -1 1 1 -1
1532262338663764 -3 -3 -4 -1 -1 -2 0 -1
1532262338723580 -3 0 -1 -1 -1 -9 -3 -1
1532262338761501 -1 0 -1 -1 0 -2 -6 -2
1532262338783443 0 -2 0 0 0 2 -1 1
1532262338837300 -1 -1 -1 2 -1 2 0 -2
1532262338896147 0 2 -2 -5 -2 -4 -7 -1
1532262338955958 -1 1 1 -1 1 -3 6 0
1532262339120541 1 0 -3 -2 -2 1 2 -1
1532262339173408 0 -1 -2 -1 -3 -7 1 0
1532262339264164 -1 -1 3 5 2 -4 -6 -2
1532262339399802 0 -1 0 -1 -3 -1 0 -1
1532262339458615 -2 -1 0 -3 -4 -3 1 -1
1532262339511473 -2 -1 -2 -1 -1 -1 -2 -2
1532262339587271 -3 -3 -2 -1 -1 1 1 -1
1532262339630183 1 -2 -2 -2 -1 -1 -3 0
1532262339692988 -1 -1 0 0 0 -1 -3 -1
1532262339727918 -2 -1 -1 -1 -1 -2 -2 -2
1532262339757815 -2 -3 -1 0 -2 -3 -2 0
1532262339790754 -1 2 1 -2 -1 0 -5 0
1532262339856551 0 -1 -2 -1 -1 -1 4 -1

1532262339972264 0 -2 -1 0 -1 -2 -1 0
1532262339990197 -2 -3 -3 -4 -4 0 0 0
1532262340022135 -2 1 0 0 -1 -1 -2 -3
1532262340102892 -1 0 -1 -2 1 1 -2 -1
1532262340207635 0 0 -1 -4 -1 2 -1 -1
1532262340233543 -1 -2 -2 -1 0 3 1 -2
1532262340244512 -1 -2 -2 -3 0 -2 3 -1
1532262340269474 1 0 0 0 -1 -2 -1 -1
1532262340298392 -2 -2 -1 1 -1 0 0 -2
1532262340351251 -1 -2 -1 0 -1 -3 -2 -2
1532262340380150 -2 -1 -1 -1 -1 0 -1 -2
1532262340412082 -1 1 -1 -2 1 1 1 -2
1532262340493870 -2 -2 0 -2 -2 -4 -3 0
1532262340526758 -2 -2 -3 -2 -2 -2 5 3
1532262340561687 0 -1 -2 0 0 -2 -1 1
1532262340598594 1 -1 -1 -1 -3 -2 3 -1
1532262340621532 -2 -2 0 -1 0 0 -2 0
1532262340644471 0 0 -2 -1 -2 -1 -1 1
1532262340695331 0 -1 -2 -1 -1 -3 -2 -1
1532262340704284 -1 -1 -1 -2 0 0 0 1
1532262340785091 1 -1 -1 0 -1 -3 2 0
1532262340804040 -2 -1 -2 -2 -1 -2 0 -1
1532262340844936 0 0 0 -1 2 -2 -1 0
1532262340883827 -3 -2 -2 -1 -3 -1 1 0
1532262340950648 -2 -2 0 2 -2 1 -2 -1
1532262340989522 -1 -3 -1 -2 -2 -2 -2 -1
1532262341027427 -1 -1 -1 -1 -1 -1 -3 0
1532262341040385 0 -2 -2 -1 -2 1 0 -1
1532262341085290 -1 -1 -2 0 0 -3 -2 -2
1532262341124183 -1 -1 0 -1 -2 -3 -2 0
1532262341167071 0 -2 -1 -3 0 0 0 -1
1532262341298695 -2 -2 0 0 -1 0 0 0
1532262341320658 -1 0 -2 0 1 0 -2 -1
1532262341342604 -1 0 -1 -1 0 -1 0 -2
1532262341356540 -2 -1 0 -1 -2 1 1 1
1532262341386471 0 -1 1 -1 -2 1 2 -1
1532262341424385 -1 -2 -2 0 -2 0 0 -2
1532262341437351 -1 -2 -1 -3 -2 -1 -2 -1
1532262341491205 0 0 -2 -1 -1 -1 -2 2
1532262341635811 -4 -1 -1 0 -1 -3 -1 0
1532262341642796 0 -3 -3 -1 -2 0 0 -1
1532262341686684 -1 -1 -1 -1 0 -1 -3 -1
1532262341701640 -1 -2 -1 0 0 -2 -2 0
1532262341762476 -1 -3 -1 -2 -1 1 0 0
1532262341776416 0 -2 -1 -3 0 -1 0 -2
1532262341820299 -2 0 -2 -2 -2 0 0 0
1532262341874182 0 -2 -1 0 0 -1 -1 -1
1532262341941004 0 -1 1 -2 -1 1 1 -1
1532262341963940 1 0 -1 0 0 -2 -2 -2
1532262342047718 -1 -1 -3 -2 0 -1 0 -1
1532262342100573 -1 -2 -1 0 -1 1 -2 -3
1532262342191331 -1 0 -2 -1 -2 -1 -1 -1
1532262342226214 -1 0 -2 1 0 -1 1 -2
1532262342240192 0 -1 1 -1 -3 0 0 0
1532262342264135 0 0 -1 -2 -1 -2 -2 1
1532262342347889 -1 0 -1 -1 0 2 2 -2
1532262342399779 -1 -3 -1 -2 0 1 0 0
1532262342452632 -1 -2 -1 -1 2 -1 -2 -2
1532262342579270 -1 -3 -3 4 -1 6 -3 -1
1532262342632129 1 2 7 42 18 -21 2 1
1532262342728897 2 1 2 0 1 -15 1 -1
1532262342758790 -3 -3 -5 2 19 28 12 -2
1532262342804666 0 -2 -3 1 0 -27 6 2
1532262342858524 3 -1 1 2 -8 -18 -6 -2
1532262342931333 2 0 0 -4 -15 24 16 5
1532262342985212 -15 -4 0 1 -12 -40 10 -24
1532262343000171 -2 -1 -1 -1 7 0 -1 16
1532262343075942 -2 3 1 -4 -8 10 0 -1
1532262343102897 9 0 -2 2 10 -18 -20 0
1532262343164704 11 4 2 3 20 -1 3 4
1532262343216593 19 -6 4 4 -37 -24 -1 30
1532262343301366 -10 5 6 -4 -8 21 -4 21
1532262343342258 -13 10 3 1 -6 10 5 1
1532262343402100 -4 5 -1 -1 3 3 0 0
1532262343470913 0 4 -3 -2 -1 -1 0 -1
1532262343500829 7 16 3 2 2 0 1 -2
1532262343538728 1 -6 -5 -9 -7 -6 0 1
1532262343559676 -4 -1 -6 1 0 -15 1 -1
1532262343606522 3 22 10 14 -1 33 4 4
1532262343651425 -4 14 -8 -9 3 -4 5 -7
1532262343788064 11 7 6 19 39 8 25 34
1532262343811973 3 4 0 4 33 4 37 17
1532262343854886 -1 3 2 1 -13 15 21 17
1532262343878795 2 1 -1 -6 1 -15 4 6
1532262343891787 -1 3 0 -2 9 1 11 19
1532262343938635 -1 -3 1 5 -7 23 25 3
1532262343951625 -2 -2 -3 -1 24 -14 4 3
1532262343981543 4 2 3 -4 0 18 1 4
1532262343995508 -2 0 -4 3 -53 -9 -10 -7
1532262344052331 4 1 2 12 37 10 8 3
1532262344073275 -7 -2 -6 -17 6 0 7 -10
1532262344096245 -1 2 0 6 15 -2 -5 4
1532262344133135 -1 -1 -1 -10 11 8 -17 11
1532262344171023 -2 -5 -5 -3 0 21 -1 -5
1532262344182981 -2 -4 -1 -1 -1 0 -2 -3
1532262344243842 -10 0 -2 -3 1 -1 1 7
1532262344318646 -10 9 -4 -3 0 -5 -10 -24
1532262344373485 3 -6 -3 -3 12 -5 7 10
1532262344393419 2 -4 -1 0 -11 -12 -22 -26
1532262344412389 -2 1 1 11 -11 -6 9 2
1532262344445280 -5 -10 -1 -9 -11 -13 6 -2
1532262344491180 3 0 -2 -2 -2 6 -2 7
1532262344529078 -2 -3 -2 -8 -3 10 -6 0
1532262344626795 -8 -6 -6 36 1 16 29 -4
1532262344687655 -5 -13 -12 -16 -15 -23 -14 -14
1532262344738519 -8 -4 6 3 1 5 11 0
1532262344807312 16 -8 -6 -10 -7 -14 -1 -12
1532262344859195 -6 0 -3 -1 -6 -11 -7 18
1532262344905073 -3 1 3 3 -1 -11 -31 -10
1532262344948933 -3 -4 3 -3 -1 -5 -2 2
1532262344964913 -1 -6 0 14 -1 -15 5 -19
1532262344971916 1 3 3 -5 -5 -34 -5 9
1532262345015754 -1 2 -6 10 9 65 -12 -8
1532262345038693 1 -4 -7 -18 -1 -13 1 5
1532262345092577 -3 0 0 -10 -5 -76 -7 -14
1532262345114514 1 -3 -1 -18 -13 5 -11 -6
1532262345160367 -3 -1 2 -1 -11 -16 0 -2
1532262345203304 -2 -3 -6 -3 -4 -6 -14 -4
1532262345237163 3 1 -2 -7 -8 21 -2 -4
1532262345294037 2 2 -3 -3 -1 0 16 14
1532262345332933 2 -3 -2 -2 0 16 -3 3
1532262345338914 0 3 -2 -3 -7 -14 -1 1
1532262345393770 -1 -4 -3 -3 -1 -2 -25 -8
1532262345413714 -1 15 4 -1 -1 -23 13 8
1532262345438637 -3 -8 -2 2 2 37 24 3
1532262345460594 2 -6 6 4 5 -2 11 1
1532262345503473 -2 -5 -7 -7 -2 2 -6 5
1532262345522429 2 -6 -1 2 2 2 -7 0
1532262345555311 -1 -2 -6 -14 -9 -57 11 2
1532262345570304 -1 2 9 0 8 12 7 3
1532262345632106 -2 -1 10 4 2 -2 13 -2
1532262345654071 -1 0 -1 11 2 -15 -8 1
1532262345736826 -1 3 2 4 -1 1 -4 -2
1532262345765773 -2 -1 5 15 -4 -33 -25 3
1532262345799659 0 0 0 1 -2 6 -5 -4
1532262345908390 0 0 -1 -2 0 2 -9 11
1532262345918356 -6 0 -1 -3 0 -12 -2 0
1532262345978229 1 3 -1 -2 0 1 1 1
1532262346014085 -4 1 -1 0 0 16 7 -3
1532262346075919 0 -2 -4 -1 2 -1 -3 -3
1532262346096863 -3 -1 6 20 3 -65 -5 -1
1532262346117807 -2 -2 -3 6 16 -11 -5 -3
1532262346169696 5 5 9 12 18 64 15 7
1532262346193628 -6 -2 9 3 69 57 -4 -7
1532262346307329 3 2 -9 4 -7 9 -1 1
1532262346343205 -2 -6 0 0 5 -19 -5 -3
1532262346419026 1 0 0 -4 5 -6 3 2
1532262346432988 1 1 -1 0 1 -3 2 -1
1532262346456904 -1 -1 -3 0 -2 -4 3 1
1532262346492805 -2 -1 2 2 -1 -4 -6 -4
1532262346517737 0 -2 -3 -2 2 2 0 1
1532262346538705 0 -2 0 0 0 1 -1 -3
1532262346636444 -1 1 -1 -2 -1 -2 0 0
1532262346659383 0 0 -1 -1 -2 0 0 0
1532262346718229 0 0 -2 -1 1 -1 -1 0
1532262346756115 0 0 1 2 0 -4 0 -1
1532262346779039 -1 -2 -1 -2 -1 0 -1 0
1532262346839876 0 -2 -1 -2 -5 -2 -4 -1
1532262346875801 0 -3 0 0 -2 -1 -1 -1
1532262346958559 -3 -2 -1 -2 -1 -1 -1 -2
1532262346972522 0 -1 -1 -2 1 1 -3 -3
1532262347057295 -1 -2 0 -4 -2 -1 -3 -1
1532262347078267 -3 0 0 -2 -1 -1 -1 -3
1532262347117163 -4 -3 -1 0 -2 -1 -1 0
1532262347206929 -2 0 2 -1 0 -1 -3 -3
1532262347281715 0 -2 -2 -1 -1 0 -2 -2
1532262347350536 -1 0 -2 -3 -3 -2 -2 1
1532262347392399 0 0 -1 -1 -1 -4 -2 1
1532262347439273 -2 -2 -2 -3 -1 -1 -2 -2
1532262347521055 0 0 -2 -2 0 -2 -1 0
1532262347536038 0 -2 0 0 0 0 1 1
1532262347595882 0 -1 -1 -2 -1 -2 -1 -1
1532262347634751 0 -2 -2 -1 0 -1 -2 -1
1532262348121472 -2 -2 -1 0 0 -1 0 0
1532262348143418 0 -2 -2 -3 -1 -2 1 0
1532262348159376 0 1 -1 -1 -1 0 -2 -1
1532262348189267 -1 0 -1 -1 1 3 -13 -2
1532262348234168 0 -4 -3 -2 -2 -2 0 0
1532262348286042 -2 -2 -1 0 1 0 -4 -2
1532262348331888 -1 -2 -1 1 0 -1 -4 -1
1532262348361829 0 -1 -3 -1 -1 3 -6 1
1532262348415663 -1 0 -2 -3 -3 -2 3 -3
1532262348423642 -2 -1 0 -1 0 1 -5 -2
1532262348442619 0 -2 -1 -1 0 0 -2 -1
1532262348469519 -1 -1 0 1 -1 -1 -3 -2
1532262348520383 -2 -3 -3 -3 -4 -12 -7 -5

1532262348558285 -2 -1 0 0 0 5 -2 -4
1532262348601194 2 0 0 2 -3 -4 1 0
1532262348631109 -4 -4 -1 -2 -3 -1 0 -2
1532262348683968 -1 -5 -7 -6 -2 -3 0 -1
1532262348772714 0 -3 0 -6 -9 -45 0 -1
1532262348795674 0 1 1 0 -4 -16 -2 2
1532262348809624 -2 -2 -1 2 31 25 2 -1
1532262348902384 0 -1 2 0 2 -8 -1 6
1532262348924325 5 2 -2 -5 -12 -10 -1 10
1532262348954245 -1 -1 2 1 3 11 6 4
1532262349014085 -2 -1 0 -3 -8 -1 2 0
1532262349031018 -3 0 0 -2 -9 -21 0 -1
1532262349057973 5 -10 -2 -4 2 12 -5 -5
1532262349111823 -4 -3 -1 3 10 5 1 -5
1532262349126761 -3 3 1 -2 -5 12 -9 -1
1532262349177625 -2 0 -3 -3 5 -2 7 -2
1532262349208565 2 0 -4 -3 -3 -17 -2 0
1532262349246464 0 -3 -2 -1 6 -4 13 -2
1532262349291344 -4 -4 -4 -1 -13 -7 -7 -4
1532262349336229 4 -3 -1 -1 -4 -33 -7 3
1532262349374124 2 -2 -2 -2 -7 -7 -15 -4
1532262349380104 -13 -2 -1 0 4 -3 2 -2
1532262349404042 -15 0 -2 -1 7 5 16 28
1532262349439924 4 -3 -1 0 5 -1 -2 -8
1532262349463860 6 0 3 -1 -1 -1 1 -3
1532262349523700 -1 6 -2 0 6 0 -1 -4
1532262349553642 4 13 9 0 -2 -6 -2 -3
1532262349644400 -1 -3 -3 0 10 4 0 1
1532262349726181 6 0 0 -1 -17 -10 0 -5
1532262349808959 0 -5 -4 1 1 8 -6 4
1532262349823921 -4 0 -5 -3 -2 -8 20 0
1532262349877776 7 0 4 1 4 9 -7 -3
1532262349914681 -2 -4 -2 -3 -9 -19 -14 -6
1532262349960554 6 -2 -2 0 -4 6 -4 8
1532262349982501 -6 0 0 0 -6 -7 -4 18
1532262349996449 -3 0 2 -2 3 7 9 -8
1532262350040319 5 11 0 -1 8 25 5 2
1532262350198921 1 -7 0 1 -2 9 -11 -3
1532262350238788 0 1 2 2 -7 6 -5 -4
1532262350267738 12 3 -2 -2 15 9 8 8
1532262350275717 1 0 -1 1 -4 -13 -4 -5
1532262350498094 -1 2 -1 -3 32 7 -1 0
1532262350516047 1 -2 -3 -5 -15 -17 7 1
1532262350537014 -2 9 5 3 2 -6 -24 13
1532262350558932 -4 2 0 2 -10 -9 5 -9
1532262350596854 4 -1 -3 -3 -10 -1 3 -6
1532262350663676 -3 6 9 2 17 11 -1 -1
1532262350755429 -32 -14 -9 -1 -14 -9 -22 -60
1532262350777348 -2 0 -1 -1 29 -5 -12 -13
1532262350814276 -2 -8 -3 -2 -6 -1 -3 3
1532262350835193 -12 0 0 -1 -2 -5 -13 -15
1532262350898047 -13 -1 0 -1 -7 -11 12 -6
1532262350919988 -8 -1 -2 -4 -39 -10 -2 -4
1532262350988804 11 -2 -3 -2 -8 2 -2 11
1532262351055604 -12 13 3 1 14 -4 -5 -8
1532262351076572 -26 17 7 0 4 2 -6 -72
1532262351107493 2 -3 0 1 5 -3 14 17
1532262351175306 -13 0 2 1 7 6 5 -5
1532262351243124 -11 -4 -4 -2 -9 2 4 11
1532262351264069 14 1 0 1 11 5 -8 -1
1532262351333882 8 0 -2 -3 -16 -31 -3 -10
1532262351421647 25 3 5 5 10 21 25 26
1532262351452569 -16 -3 -3 -4 -3 -21 -3 4
1532262351519363 -14 -2 -2 2 1 -7 -1 -3
1532262351588180 -7 -2 -2 -2 -2 -5 -1 -4
1532262351625104 -4 -2 -3 -4 0 0 -3 -1
1532262351635054 14 -4 -5 -2 2 -4 -5 -14
1532262351683923 -14 -4 0 0 3 0 -3 -37
1532262351795647 -7 -3 0 0 -5 2 -13 -6
1532262351820567 -13 -3 -1 -1 -3 -3 0 7
1532262351842499 1 0 -2 -1 -2 -7 -15 -12
1532262351916326 -8 0 0 0 0 -1 -4 -9
1532262351954223 -3 23 0 0 9 -2 3 -8
1532262351984143 -2 -10 1 0 4 -2 3 2
1532262352052959 -9 -2 1 1 14 1 12 -13
1532262352141721 -2 -5 0 0 1 6 -4 7
1532262352156682 -7 -2 -4 0 3 -1 5 41
1532262352193583 11 6 -1 -3 -2 -2 3 25
1532262352230462 -25 -5 0 0 2 -2 2 -22
1532262352284341 5 4 1 -2 -1 -13 0 -11
1532262352329220 1 0 -3 0 2 -1 4 13
1532262352358120 -2 2 -3 -3 -1 -11 -6 -4
1532262352411007 -6 0 -3 -6 -22 -15 -3 0
1532262352456862 -2 1 -2 -4 -2 2 -6 -7
1532262352470842 -3 -1 -1 -1 -7 -12 -7 -1
1532262352515699 0 2 3 1 -35 -15 -2 -4
1532262352567588 2 -33 -5 -2 10 15 6 46
1532262352592496 5 2 -3 -1 6 18 0 -8
1532262352613466 1 2 -2 1 22 -1 -6 17
1532262352650361 3 9 -3 0 -6 -4 1 -16
1532262352698211 0 -2 1 -2 -2 -5 -4 -9
1532262352733140 0 -2 -3 -5 -1 -7 -7 -47
1532262352756056 2 -4 -4 -2 11 -7 -9 -17
1532262352808920 0 -4 0 1 1 -5 0 1
1532262352876773 1 -8 -4 -3 -7 -3 -3 -6
1532262352906654 1 -2 -2 -1 3 -1 0 1
1532262352951533 0 -6 -7 -1 2 39 2 4
1532262353056254 -4 -1 -2 0 7 2 1 -12
1532262353093175 -3 -2 -1 -1 -10 -9 -2 11
1532262353139032 -5 -2 -3 -2 -3 1 9 13
1532262353160974 -1 6 4 3 -25 -12 -3 -18
1532262353200867 -13 -1 -1 0 4 4 -1 -7
1532262353221837 -3 1 -1 -2 8 -3 -4 -1
1532262353250764 10 1 0 -1 -4 -3 0 -5
1532262353273673 -4 -2 1 -1 12 4 0 12
1532262353296611 10 -1 -1 -5 -7 0 -3 3
1532262353333534 2 -4 -2 0 11 12 -6 -7
1532262353356453 1 -1 -3 -2 -2 -4 -2 2
1532262353370443 -2 2 1 2 16 10 1 18
1532262353393376 -6 1 1 0 -5 -2 5 12
1532262353432273 5 2 -3 -3 -10 -6 -1 -1
1532262353462194 -9 0 -1 -4 -6 -2 3 1
1532262353485154 0 -7 -1 0 -2 -3 1 -8
1532262353530009 -8 0 -1 1 -4 0 0 0
1532262353552953 -9 1 -3 -1 -2 0 0 0
1532262353566911 3 -1 -2 -2 0 1 0 -4
1532262353596835 5 3 1 0 0 -1 -2 3
1532262353609800 -3 1 -5 0 -4 0 -2 -6
1532262353632736 -3 -4 0 -1 -3 -3 -1 -3
1532262353655650 -2 1 -2 -2 0 0 -1 -4
1532262353678616 -2 4 -2 -2 -1 0 -1 -2
1532262353701528 0 -2 -1 0 3 0 0 -3
1532262353768349 -2 -2 0 0 -2 1 -3 -2
1532262353845166 -2 0 -1 -1 -3 -2 -2 0
1532262353851148 -13 -1 0 0 1 0 -5 -18
1532262353874091 -1 0 1 0 -1 0 -3 1
1532262353904009 -2 -2 -1 1 0 -3 4 9
1532262353909992 -2 0 0 -1 0 -2 -13 -5
1532262353934913 -1 0 0 0 -2 1 0 -3
1532262353971833 -1 0 -1 -1 -2 -3 2 2
1532262353993747 -1 -3 -3 -3 -2 -2 -5 12
1532262354023666 -5 1 -1 -3 -2 -1 0 -11
1532262354045608 8 0 -2 -1 0 2 7 6
1532262354076553 -4 -1 0 -1 0 0 0 -4
1532262354106487 0 0 -1 -1 -1 -1 -3 -3
1532262354136371 5 -2 0 -1 -1 0 -6 4
1532262354159327 -8 -2 -2 -3 -3 -3 -2 -51
1532262354173267 3 0 -1 1 0 0 2 5
1532262354204206 -9 0 0 0 -1 0 -2 10
1532262354226125 2 -1 0 1 -2 -2 1 10
1532262354258040 -2 -3 1 -1 2 3 0 -7
1532262354301945 10 -1 -1 -1 -2 -2 0 11
1532262354353807 5 0 -1 -1 -1 -1 -3 13
1532262354363757 -4 -2 -1 0 0 1 1 -9
1532262354451546 -1 0 1 -1 -1 -2 1 -4
1532262354548290 -2 -1 -2 0 0 -1 -2 -1
1532262354610125 5 -1 -2 -2 -2 -4 0 4
1532262354641016 2 -1 -1 -2 -2 -1 -6 -1
1532262354653008 -1 -2 -1 -1 -2 1 -5 -16
1532262354728803 1 2 3 2 0 -17 0 2
1532262354848488 0 -5 -21 -18 0 -1 14 5
1532262354894365 1 1 7 0 -13 -3 -14 -2
1532262354922291 -1 -1 -5 -5 -25 -19 -5 -2
1532262354978137 0 -4 -4 0 9 12 5 0
1532262355023016 2 1 1 -1 -6 -7 -7 -1
1532262355061890 -3 -4 -1 -4 -6 -13 0 -5
1532262355083832 -3 -1 1 2 3 14 -1 7
1532262355125742 -16 -5 -4 -5 -10 -3 -3 -14
1532262355150653 10 -1 0 -1 0 -5 -7 10
1532262355217501 11 1 0 3 8 2 0 6
1532262355241410 -15 -1 2 3 7 7 7 14
1532262355298258 2 -3 0 -1 -14 -14 -5 4
1532262355312221 -1 -1 -2 -2 8 7 -2 -8
1532262355380039 -10 2 4 1 -1 5 7 18
1532262355426942 19 4 1 4 -7 -27 -4 3
1532262355472794 -1 -1 -2 7 5 19 3 -15
1532262355487776 7 -1 1 1 20 22 3 13
1532262355508695 8 0 -1 0 27 18 -7 -6
1532262355561554 14 1 -1 4 -2 8 11 26
1532262355575554 -29 32 15 1 -4 6 -1 -14
1532262355630379 -12 -10 -3 -4 -10 -8 -3 4
1532262355661288 -7 2 1 3 11 7 8 17
1532262355779970 -4 -3 -4 -4 -5 -6 -4 -9
1532262355786951 -1 -1 2 2 -8 -15 -8 2
1532262355823875 5 34 1 9 6 -42 2 -1
1532262355868760 4 -16 -2 -4 -2 48 19 11
1532262355884713 -1 3 4 10 -5 -3 -4 -2
1532262356005367 1 2 5 9 -13 3 -2 1
1532262356019330 1 -2 1 3 6 1 10 22
1532262356065230 7 9 3 6 12 7 20 28
1532262356070222 -2 -2 -4 -4 20 -20 -11 7
1532262356086151 3 0 -1 -1 2 -8 -16 14
1532262356110110 -3 -14 -7 -11 0 -5 -15 12
1532262356237769 -3 1 3 3 0 -21 -22 -4
1532262356244752 3 3 5 6 -4 -9 21 14
1532262356310551 0 -1 0 6 -33 -23 -20 10
1532262356344460 -1 1 2 -10 14 3 9 12
1532262356366402 1 0 4 13 10 9 9 15
1532262356426264 1 -2 -2 -1 5 7 -2 -4
1532262356529965 -16 -13 -1 -4 5 -5 4 22
1532262356558908 2 2 -1 1 1 -10 7 21
1532262356620744 -7 -1 -1 -1 -2 -4 4 2
1532262356627703 -11 -3 1 -3 -2 7 -16 -17
1532262356647650 -6 13 2 2 0 -17 -1 -12
1532262356677570 0 -2 -2 -6 -5 -11 -4 4
1532262356731453 -1 0 1 10 6 -23 -10 0
1532262356763340 0 -3 -4 -4 -2 -17 7 -4
1532262356858087 -1 2 8 9 25 32 1 2
1532262356897980 -1 -3 -10 -11 -17 -2 -12 -1
1532262356934908 -3 0 4 8 -4 -11 -7 -15
1532262356958818 -2 -5 1 3 -1 -10 2 -6
1532262357002726 3 -2 -6 -2 -4 -3 45 4
1532262357061566 2 -1 -5 -3 0 17 -20 0
1532262357107449 -1 2 -4 0 1 -8 -9 -18
1532262357135346 -1 -1 -1 9 14 17 2 -1
1532262357178231 14 0 -1 -2 -4 19 8 14
1532262357183234 -5 1 1 -3 0 6 2 6
1532262357204185 -5 -3 -4 0 2 1 0 5
1532262357226103 -7 -4 -3 2 -8 0 6 -12
1532262357249041 -1 -4 -3 -3 1 -24 2 6
1532262357270011 0 12 6 6 5 2 2 -7
1532262357287956 -2 0 -6 -11 -2 7 -2 -12
1532262357308881 4 -2 4 -9 -1 -17 3 4
1532262357346780 -2 -1 1 -8 -10 -16 -6 6
1532262357368744 3 3 4 -5 -5 40 5 4
1532262357422578 2 -1 -4 -1 0 3 0 2
1532262357442524 1 0 2 12 9 -34 -3 9
1532262357512360 34 -2 -1 1 5 -17 -60 -53
1532262357586162 -7 0 -5 -3 -10 -5 -10 9
1532262357623042 8 2 -1 2 2 1 5 12
1532262357649997 -4 -4 0 0 -3 -9 13 1
1532262357693859 -2 -2 0 0 1 -8 7 10
1532262357714820 -5 0 1 2 2 4 -5 4
1532262357742742 -5 -2 -1 -1 -2 -10 1 -3
1532262357773639 2 2 -1 -2 -1 2 -2 -6
1532262357819515 0 2 -5 -13 -11 -19 1 -5
1532262357848454 3 5 5 8 13 -29 2 1
1532262357877384 1 -3 1 2 -1 2 3 -1
1532262357917281 -2 -9 -1 -20 -12 54 3 1
1532262358066855 3 8 3 0 -8 -28 -7 -12
1532262358088828 -17 -21 1 -12 -46 12 -2 -5
1532262358133699 1 5 1 0 -36 -11 1 12
1532262358201518 0 3 2 5 23 -26 -13 -8
1532262358238418 1 0 -4 -3 -5 -4 -1 -10
1532262358342141 -6 0 0 0 1 6 -2 -5
1532262358389016 5 -2 0 0 3 -2 0 7
1532262358501719 -3 -1 0 1 1 -1 -1 -7
1532262358547599 0 -1 -2 -2 -1 -2 -2 -8
1532262358591452 4 0 -1 -2 -2 1 -2 3
1532262358608430 7 0 -1 -2 0 2 2 20
1532262358756024 1 0 1 2 2 1 -1 44
1532262358823830 -2 -1 0 -1 2 3 -1 -3
1532262358974450 2 -2 -1 -2 0 -1 0 0
1532262359086156 0 1 0 -1 1 -1 -1 3
1532262359169932 1 1 -2 -2 1 0 1 1
1532262359250709 -3 -2 -1 -1 -2 2 -1 -3
1532262359567868 5 0 0 0 -1 -1 0 -5
1532262359790278 -3 1 0 2 1 0 0 -6
1532262359866043 2 -2 0 -1 2 3 -8 -3
1532262359912948 1 -1 -2 0 -1 1 -4 0
1532262359933885 5 -5 -1 -2 1 2 -7 -3
1532262359947825 -3 2 0 -1 -4 -3 0 -8
1532262359970790 -3 0 -2 0 0 -3 7 0
1532262359993730 -2 -1 -1 0 -1 -1 -2 0
1532262360030603 -1 0 0 -2 -3 0 1 2
1532262360061520 2 -2 -3 -3 1 -1 -4 -5
1532262360083485 1 -1 -2 -3 -1 1 1 -3
1532262360121385 -8 -2 0 -1 0 0 3 5
1532262360152303 -1 1 -1 0 -1 -2 -1 0
1532262360190201 -2 -1 -2 -2 -3 -2 1 0
1532262360211121 -4 0 0 -3 -1 -2 1 0
1532262360256000 -4 -1 -2 -2 -1 -1 3 11
1532262360270960 0 -3 0 -1 0 1 -1 0
1532262360293926 0 -1 -3 -2 -1 0 -1 2
1532262360322822 -2 -1 0 -3 -3 12 -2 -2

1532262360397646 -7 15 0 1 -3 -39 -2 4
1532262360423562 -9 2 -1 -4 1 10 -1 -5
1532262360445499 2 -6 0 3 -1 4 0 -1
1532262360487382 2 -2 -2 6 -2 -9 -3 -1
1532262360510343 1 -1 0 12 3 9 -1 -1
1532262360533286 -1 33 5 -11 2 -4 -5 -1
1532262360624017 2 -4 2 3 13 9 9 2
1532262360631018 3 16 16 3 -3 -2 3 -1
1532262360699814 -4 -1 11 -1 -6 0 2 -2
1532262360714802 0 -6 -1 10 12 -16 2 -1
1532262360735746 2 -6 -3 -3 -8 1 -2 -12
1532262360781617 -5 28 5 -2 -24 -36 2 -2
1532262360803536 -6 -42 -12 -7 -17 -9 -4 5
1532262360841435 -3 -7 -10 -7 -1 -26 -9 2
1532262360863398 -21 -16 -2 3 36 3 -6 -24
1532262360962139 7 -2 -2 -4 -14 12 -1 3
1532262361052893 4 7 8 7 10 11 24 17
1532262361072817 -4 -5 -8 -11 16 13 8 12
1532262361096753 3 3 3 13 0 -15 -16 -7
1532262361119716 -1 -4 -4 -21 12 27 0 -3
1532262361140635 2 -4 -5 -11 44 26 -10 -7
1532262361167585 4 17 2 -8 9 18 -2 -3
1532262361195488 -3 -7 -13 -22 -87 -5 0 -11
1532262361262330 -2 -5 -2 5 39 47 9 3
1532262361353095 -5 -25 -5 0 51 -18 5 0
1532262361420885 -7 14 2 -2 -12 -23 10 9
1532262361444845 1 -6 1 11 -30 1 15 20
1532262361463790 -3 -4 -7 -6 -10 -23 6 -4
1532262361469779 0 -8 -2 -5 -8 -22 4 -17
1532262361516656 -3 3 -1 0 17 26 13 6
1532262361561533 -4 2 2 11 7 5 -4 -1
1532262361630348 2 -6 -1 -8 2 12 -3 -11
1532262361652267 -8 0 -1 -1 8 -1 -23 -6
1532262361676223 -1 0 3 3 -54 -9 6 -5
1532262361698173 -4 -1 -2 -1 40 -17 -7 -1
1532262361720106 -2 -1 -3 -1 -10 1 14 -1
1532262361788902 2 -3 -3 -5 -4 -6 -4 -2
1532262361839783 -9 -3 0 -2 3 -16 3 -4
1532262361854748 -1 -3 -1 1 -1 2 -8 -7
1532262361877688 -13 -2 0 -2 -1 3 9 -2
1532262361922544 -1 -9 -6 0 2 -15 3 -3
1532262361938528 2 -3 -3 -5 -4 -4 -4 -5
1532262361960443 0 6 -1 7 19 30 5 -2
1532262361987395 -7 1 2 -2 -8 -45 -5 -6
1532262362018312 2 5 -3 7 -6 3 1 -3
1532262362063190 -2 -3 0 -6 -5 -8 -2 -3
1532262362103084 -2 2 0 -8 -55 24 -5 0
1532262362124029 -2 -5 -1 3 -15 -13 -4 0
1532262362138965 -3 -4 -2 -2 -4 12 4 -1
1532262362176887 0 -3 -3 -2 -8 15 3 -2
1532262362198828 -5 -6 -3 0 -10 -9 -1 -3
1532262362212795 -9 -2 -2 -2 -4 -1 -4 2
1532262362236726 -1 -2 -2 -1 -3 3 0 -6
1532262362266627 1 -1 -2 -2 -6 10 -3 -2
1532262362288588 -1 0 -3 -3 -5 6 1 -1
1532262362319507 -2 -4 -2 -2 -3 15 0 -4
1532262362357405 -1 0 -2 -3 -6 -5 -1 1
1532262362379350 2 -1 0 -2 -4 -14 -3 0
1532262362424231 -3 -1 -2 -1 -1 4 4 -1
1532262362476087 -2 0 0 -3 -2 -5 -2 -2
1532262362499002 -2 -1 -3 -3 -1 10 -10 -3
1532262362521968 1 -1 1 1 -1 -2 7 1
1532262362559860 -2 -3 0 4 1 4 3 -2
1532262362580807 0 -1 -2 -1 1 3 -2 -2
1532262362665580 2 -2 4 2 4 6 2 0
1532262362687521 -2 1 1 -1 -2 -4 -9 -2
1532262362709441 0 1 -2 -4 3 1 -1 -1
1532262362723424 -3 -6 -7 -7 -1 36 4 -2
1532262362761301 1 5 -2 1 -9 -18 -4 0
1532262362775286 -3 -6 1 9 4 -11 -6 -3
1532262362784253 0 0 1 1 1 23 -1 -1
1532262362828122 -2 0 1 -2 0 -10 -5 0
1532262362852085 -4 -4 -2 2 9 -3 2 -2
1532262362895968 0 -1 -1 1 1 3 1 -1
1532262362920875 2 -1 -1 -1 4 -4 0 -1
1532262362964757 -1 -1 -1 -3 0 5 2 -1
1532262362987696 -1 -1 -2 -2 1 -8 -3 -2
1532262363008660 -1 -2 -1 -1 -1 -6 -1 1
1532262363038559 0 -2 -2 -2 0 -2 -1 0
1532262363068481 0 -1 -2 -1 0 5 1 -1
1532262363084461 -2 -1 -2 0 0 -2 -1 -1
1532262363098426 -1 0 0 0 4 3 1 -3
1532262363129340 -1 -1 -1 0 2 4 1 0
1532262363150261 0 -1 -2 0 -3 -1 0 -1
1532262363172202 -1 -2 2 -2 -1 0 0 1
1532262363189170 -1 -2 0 0 0 0 -1 0
1532262363213093 -2 -1 -1 -2 -3 -1 -2 0
1532262363241042 1 -2 -3 0 -2 0 -2 0
1532262363255005 2 0 0 1 -1 -3 0 -2
1532262363301883 -1 0 0 1 -1 -2 -3 -2
1532262363314849 -2 0 0 -1 -2 -1 -2 1
1532262363338757 -1 -2 -1 -2 -1 1 0 -2
1532262363361696 -2 -3 -1 -2 0 -2 0 -1
1532262363383637 -4 0 0 -2 -9 -14 -1 -2
1532262363428540 0 0 0 -2 -5 -5 1 0
1532262363451478 0 -1 -1 -1 -1 -1 -1 -3
1532262363465445 -1 -3 -2 0 -3 1 -1 -1
1532262363520294 -1 -1 -1 -1 5 5 -2 -2
1532262363549194 0 0 1 -2 0 -5 0 -2
1532262363601056 -2 -2 0 -2 -2 -1 -3 2
1532262363646932 -2 2 0 2 -1 -3 -1 0
1532262363684854 -1 -2 -2 -2 -4 -2 -4 -3
1532262363698821 -1 -2 -2 -2 -2 0 2 -1
1532262363721755 1 -2 1 -1 1 3 1 0
1532262363751675 0 0 -2 -3 -2 0 -1 -1
1532262363788554 -2 0 -1 -1 -1 -2 -3 -1
1532262363811520 0 0 0 1 -1 -2 -2 -1
1532262363841437 -1 -3 0 -1 -1 -1 -2 -1
1532262363864379 -3 -4 -3 -1 4 2 -2 -3
1532262363878314 -2 0 -1 -1 18 -2 -1 -2
1532262363901252 -1 1 0 0 -49 -5 1 1
1532262363937184 2 -3 -4 -3 0 1 0 3
1532262363961115 -5 -7 -7 -9 4 -16 -9 -5
1532262364007968 -1 2 2 4 -1 -30 -3 -4
1532262364013955 -1 0 4 1 -2 -1 0 -1
1532262364051873 -3 -4 -7 -13 4 8 -2 -2
1532262364081770 2 3 2 -1 11 3 12 5
1532262364141637 -4 -5 -7 0 5 13 0 -2
1532262364215436 16 -3 0 2 14 15 -7 19
1532262364261290 4 3 2 -3 -10 -7 -14 -7
1532262364367031 2 2 3 0 -6 -6 -1 -10
1532262364441835 -8 -10 0 0 -2 -4 -6 9
1532262364486714 7 8 0 -1 -30 -11 -8 20
1532262364585447 3 -2 1 1 18 -13 -8 8
1532262364653286 14 2 -1 4 9 24 7 9
1532262364725050 19 20 6 1 -12 10 -2 25
1532262364786898 -18 0 1 -6 -2 -7 11 -20
1532262364816828 -2 -1 2 0 -22 -3 -20 -11
1532262364862682 -14 -13 -1 -4 -4 -4 -11 -8
1532262364980367 2 1 -1 0 -5 -8 -4 -5
1532262365004326 1 -6 -8 4 8 1 0 3
1532262365072122 -2 2 -11 -17 -6 -23 -7 -1
1532262365145925 3 7 13 8 4 29 -10 -5
