1532256321001091 0 -1 -1 -2 -19 -19 0 0
1532256321060923 -2 6 -2 -6 -10 -14 -2 -3
1532256321087851 -3 -9 5 1 5 17 -6 -4
1532256321129739 -3 -5 -2 -3 -3 10 0 -1
1532256321143701 -3 -7 7 -2 3 -12 -1 -1
1532256321159659 -3 -2 -4 1 12 -10 1 -1
1532256321203542 -2 -1 -2 1 -7 -4 0 0
1532256321226480 -2 1 -4 -4 5 -11 5 -2
1532256321256400 1 -2 -6 -5 22 10 -1 2
1532256321317246 1 -6 -8 -8 5 -10 1 -2
1532256321369099 -1 1 -4 -8 12 -12 0 0
1532256321428939 -1 -5 -6 -3 14 7 0 1
1532256321495786 0 -1 1 -5 5 2 0 -1
1532256321541677 -1 -2 -4 3 -1 -13 3 -1
1532256321586557 -2 0 -3 -2 -4 -8 -6 -4
1532256321616477 0 -1 3 3 -1 12 -6 -3
1532256321653378 2 -3 -9 3 -13 13 13 3
1532256321668338 2 0 4 -1 1 -9 1 4
1532256321706237 -2 -2 -3 -1 18 -13 24 2
1532256321825916 -3 -4 -5 0 -14 -32 -19 -3
1532256321855837 -3 0 -5 -1 -7 -23 2 -3
1532256321886761 -1 0 -4 -3 -3 -4 -5 -1
1532256321923655 -1 1 -1 0 -4 -7 0 1
1532256321976514 0 2 -2 0 16 29 5 -1
1532256322006434 -1 1 2 -1 -1 3 8 1
1532256322036354 1 1 -2 2 -3 -10 7 1
1532256322058295 -2 -2 -3 0 0 0 -4 -1
1532256322103182 0 0 -2 -3 -1 -3 5 -2
1532256322172997 0 -2 -3 -1 -1 0 -11 -1
1532256322275721 -1 -1 1 0 -2 2 -2 0
1532256322328596 -4 0 0 2 -2 -3 -1 -3
1532256322358516 -1 0 -5 -4 -3 -2 2 -2
1532256322418356 0 -3 -2 0 -1 2 9 2
1532256322516094 2 0 -2 0 -1 -2 -1 0
1532256322553993 -1 -1 -1 -1 -1 0 4 -3
1532256322607849 1 -2 -1 0 -2 -12 4 -1
1532256322635774 -2 1 -3 -2 0 1 -6 -2
1532256322666692 0 0 -2 -1 0 2 -6 -3
1532256322696611 0 -2 1 -1 -2 -11 0 -1
1532256322741491 -2 -1 -3 -1 0 3 -2 -2
1532256322793353 -3 -1 -1 -4 -6 5 -3 -2
1532256322825268 -1 -2 -2 -8 9 8 -1 -1
1532256322853193 0 0 -1 -4 -8 -8 -5 0
1532256322869150 0 -3 -3 -3 -26 -30 0 0
1532256322884110 -2 -3 -4 -1 -18 -42 -10 -3
1532256322906052 0 1 1 1 -5 -5 1 -1
1532256322928990 -1 -2 -2 -4 -8 16 0 -2
1532256322958909 -1 -1 -2 -7 -8 -5 1 2
1532256322995811 -1 0 2 12 -6 -1 -9 -9
1532256323048670 0 0 -1 0 -1 -4 -5 2
1532256323071609 -1 -1 4 12 33 15 -16 -4
1532256323116489 -1 -9 -5 0 0 -5 -14 1
1532256323168350 -5 4 -3 -6 -7 -4 0 -4
1532256323198271 -3 2 0 -1 -3 26 18 1
1532256323236169 -18 -1 0 -6 -7 -13 -28 -6
1532256323259107 -6 -1 -2 2 -14 -7 0 3
1532256323303987 17 -6 -1 -1 17 15 -8 3
1532256323363827 -12 -2 -3 -3 9 14 33 0
1532256323385769 0 0 -5 0 0 8 -8 5
1532256323415689 3 -1 0 -4 2 -35 2 9
1532256323446606 -28 -7 -3 -7 -5 -3 -9 -2
1532256323498467 -4 -1 4 5 2 -14 2 -4
1532256323581246 6 0 2 -3 -11 -6 17 1
1532256323611166 1 -1 -5 -9 -18 6 -8 -5
1532256323664025 2 -1 0 -2 1 -19 -4 1
1532256323678985 1 2 4 6 -4 1 -11 -3
1532256323693944 0 2 4 11 -14 15 25 4
1532256323760766 -3 -3 -6 0 -14 17 9 -3
1532256323798665 -2 1 1 4 2 -16 3 2
1532256323821603 -2 -1 -1 1 14 15 26 -1
1532256323866483 0 3 1 0 3 7 4 0
1532256323881443 11 -4 1 -1 -3 -29 16 7
1532256323911363 3 5 2 1 -20 -31 -70 -12
1532256323941284 -1 0 -2 -1 28 75 48 4
1532256323979187 -4 -1 -2 -1 -9 -13 -11 -5
1532256324024062 -7 -2 -4 -6 2 17 19 -2
1532256324128782 2 -4 -4 -6 -6 -1 3 -2
1532256324143742 -1 -1 -2 -3 -20 -7 8 -1
1532256324203582 -1 4 -1 -2 -18 -29 -25 -7
1532256324241480 0 -2 -1 -2 0 15 3 -2
1532256324263422 -5 0 -1 -1 -1 -19 1 1
1532256324286361 3 0 1 -1 -1 24 0 -1
1532256324353182 8 -1 -5 -3 7 18 4 -1
1532256324406040 0 0 5 25 43 -8 -15 1
1532256324458899 -2 2 3 8 1 4 1 -1
1532256324556654 5 -3 -1 -3 0 15 6 -3
1532256324578579 3 2 -3 0 -10 -2 11 0
1532256324668342 -5 -5 2 3 7 -4 -30 4
1532256324774056 0 5 0 9 -9 -12 -5 -4
1532256324803976 -14 0 0 -15 -35 26 12 0
1532256324818936 -2 -3 -1 14 16 -61 16 -9
1532256324833896 9 14 21 5 43 3 -1 -3
1532256324855838 -23 13 -17 -4 -2 -12 -6 -15
1532256324885758 -9 -23 0 -2 10 18 10 -10
1532256324931653 2 -4 2 6 7 21 81 -10
1532256324968536 -5 2 18 0 0 32 7 -9
1532256324991475 -9 11 0 -9 -18 11 8 -4
1532256325015411 9 2 5 -3 -33 -23 -2 5
1532256325037367 -21 -5 -6 5 16 21 -14 -3
1532256325073256 -11 3 0 -5 2 0 15 -2
1532256325104174 10 4 6 6 5 -11 -7 -1
1532256325134094 1 4 11 3 0 -16 -5 3
1532256325164014 4 2 4 0 -7 15 2 2
1532256325193934 2 0 -3 -4 32 23 17 5
1532256325217870 1 1 5 25 25 -4 17 7
1532256325230834 -1 1 3 -11 1 48 21 3
1532256325283693 -1 1 1 -6 -1 -5 -30 -10
1532256325306632 1 0 -3 14 19 39 -2 0
1532256325328574 -5 -4 -12 -5 -4 -15 -10 -3
1532256325359491 -2 -9 -4 -4 -24 -16 13 3
1532256325373453 -3 0 0 -12 -37 0 -15 -9
1532256325388413 1 -2 -1 -7 -11 5 11 2
1532256325464212 2 1 9 6 -6 -10 -16 -3
1532256325516072 -1 0 1 1 -12 3 -2 -1
1532256325590872 -3 -12 -15 0 11 0 2 0
1532256325613810 0 11 23 11 14 9 0 1
1532256325635752 -2 7 -12 -6 2 -2 -8 0
1532256325666669 3 4 5 4 -2 -29 -5 0
1532256325688610 -15 -5 -4 -7 -7 -19 -7 -6
1532256325733491 -6 -12 -16 -2 -4 5 0 -3
1532256325748451 4 -5 6 -2 6 35 2 1
1532256325771389 0 -4 0 -5 -3 -25 -2 0
1532256325801319 -3 -2 3 6 -2 -8 0 0
1532256325831229 -2 -3 -2 -5 13 15 -1 -3
1532256325854167 0 2 3 -2 -6 -16 0 -1
1532256325868131 0 0 -1 0 -3 1 1 0
1532256325899047 1 -1 -2 -3 7 -6 2 2
1532256325920988 0 -4 -3 -2 8 34 0 -1
1532256325943927 -3 5 -3 -1 -3 -2 -1 -1
1532256325958888 -8 4 1 -3 -6 -19 -2 -5
1532256325988808 -18 -12 6 2 -2 -20 -10 -13
1532256326048648 3 3 3 0 -3 -12 -10 -2
1532256326071587 -4 1 -1 1 4 -4 -1 0
1532256326108488 -3 -5 -4 3 1 2 -9 -5
1532256326146386 2 1 1 2 2 0 4 3
1532256326183288 -4 1 -1 -3 -7 -3 -4 -4
1532256326221187 1 -1 -2 -1 -1 -1 0 7
1532256326251106 0 2 0 -6 -10 -4 -1 -1
1532256326304970 -3 -2 -4 -5 -11 3 -1 -1
1532256326325906 -1 -3 -1 0 -1 13 3 -1
1532256326340866 1 1 -1 -2 -18 -19 -16 -5
1532256326363805 -2 -3 -5 -2 2 -4 -1 -2
1532256326400706 -1 1 4 13 16 10 4 0
1532256326438605 -1 -3 -7 -12 -28 49 -1 1
1532256326476504 1 3 5 1 4 20 7 3
1532256326491464 -4 2 5 -8 -16 -28 0 -2
1532256326528365 -4 -3 -1 2 6 -10 5 -4
1532256326581224 1 0 -4 2 14 20 0 -3
1532256326649042 1 -5 9 -1 -4 23 -6 0

1532256326738802 1 4 -5 -1 -5 -10 -2 0
1532256326753762 -1 -1 -3 -2 4 29 -10 -1
1532256326791687 0 0 -2 -2 -10 -16 9 1
1532256326813628 -2 -3 -2 -1 7 -6 -6 0
1532256326836566 -2 0 -1 -3 4 -4 -8 -1
1532256326866487 1 -3 0 0 6 5 -5 -1
1532256326903388 -1 -1 -1 1 8 14 -4 -1
1532256326994145 -3 -1 -1 -3 -15 -45 -6 -2
1532256327016086 -2 -1 -2 -2 2 3 -2 -3
1532256327046007 2 -2 -1 0 -8 -13 1 -1
1532256327075927 -3 -3 -2 0 0 1 -1 -3
1532256327090886 0 0 -2 -1 -1 1 -2 -2
1532256327120807 -2 -2 -1 -2 -1 -1 -2 -2
1532256327166684 -2 1 0 2 -1 -9 1 1
1532256327211563 -1 -1 -1 -2 -2 1 -6 -2
1532256327241484 0 0 -2 1 5 6 3 0
1532256327256444 -1 1 -1 -1 3 0 0 -1
1532256327308305 0 -2 -1 -2 -7 -12 0 1
1532256327331244 1 -1 -1 2 1 -10 1 -1
1532256327399077 -2 -2 -2 -1 -2 -10 -5 -2
1532256327436961 -3 0 -1 0 -2 -10 1 0
1532256327473862 0 -3 0 -2 -7 -20 0 0
1532256327510764 0 0 -1 -1 1 14 -1 -2
1532256327540685 -1 2 -3 0 -14 -44 -5 -3
1532256327563622 0 0 0 -2 -6 -8 0 0
1532256327593542 0 -3 0 -4 -3 1 -2 1
1532256327653382 -3 -4 -1 4 14 -14 -3 -2
1532256327691281 -2 1 3 -2 -1 18 4 0
1532256327721201 2 3 -7 -2 -2 -12 1 3
1532256327789020 -1 -4 0 -2 -16 -15 -2 -1
1532256327810961 -8 -9 -3 0 1 10 -4 -3
1532256327848860 0 -7 6 -6 -13 -15 -5 -1
1532256327885761 1 4 0 -1 -4 3 8 3
1532256327931638 1 0 1 1 9 4 -1 -1
1532256328021398 -1 -2 -3 3 19 9 -15 -3
1532256328149057 -1 -1 -3 -1 -3 -1 3 0
1532256328215878 -1 0 -3 0 0 3 1 0
1532256328283696 -2 -1 -1 -1 -1 -1 -3 -1
1532256328321596 -2 0 -1 -1 -2 -5 -3 0
1532256328411356 -1 1 -1 1 -2 -6 -3 -2
1532256328478177 -1 -1 -2 -4 -3 2 6 -1
1532256328568934 1 0 -1 -1 0 1 -2 0
1532256328605835 -1 -1 1 0 -1 -2 0 0
1532256328635756 0 -1 0 -2 -2 -3 -6 -3
1532256328718534 1 0 0 0 -2 0 1 0
1532256328778374 -3 0 -1 -2 -1 -3 -2 -1
1532256328823254 -3 -3 -2 -1 -1 -1 2 1
1532256328885099 -2 0 0 -1 -1 -2 0 -5
1532256328908028 1 0 -1 -1 0 -2 -2 0
1532256328935953 0 -2 -2 -1 0 -2 -2 2
1532256328965873 1 0 -2 -2 0 -3 1 1
1532256328995793 -1 -1 -1 -1 -3 0 -7 -2
1532256329025713 0 2 0 0 0 0 -3 -1
1532256329048651 -2 -1 -3 -2 -2 -1 -2 -1
1532256329072588 1 -1 1 0 -2 -1 -1 1
1532256329108492 1 0 -1 1 0 -3 -2 -1
1532256329131430 -2 1 -1 -4 -2 0 1 1
1532256329146390 -3 -1 0 0 -2 -2 -4 -3
1532256329161350 1 -1 -2 -1 -1 0 -2 -1
1532256329198251 -4 -2 -2 -1 -2 -1 0 0
1532256329236150 1 -1 -4 -1 -3 -3 -3 -3
1532256329266070 -1 -2 -1 -1 0 -3 -4 0
1532256329318943 -2 0 -1 -1 1 -1 -1 0
1532256329333903 1 -1 -2 1 1 0 3 1
1532256329348848 -1 -1 -1 -1 -2 -2 -1 -1
1532256329400710 0 0 -1 0 -1 -2 -3 0
1532256329425643 1 -1 0 0 -1 -1 -3 -2
1532256329447584 -3 -2 -1 0 -1 -2 -2 -2
1532256329468529 -3 0 -2 1 -1 -3 -1 0
1532256329528369 1 0 -2 0 -2 -5 -2 0
1532256329551319 0 -2 1 -2 -2 -7 0 -2
1532256329588209 -1 -1 -2 0 3 3 0 -2
1532256329658022 0 -3 0 -2 -13 -4 -1 -2
1532256329670987 0 -2 -2 0 14 9 -1 1
1532256329715867 2 3 2 12 26 16 3 1
1532256329806638 0 -1 -1 -8 -19 -11 2 2
1532256329843526 -2 -1 1 8 21 -2 -5 -3
1532256329881424 -9 -3 -2 -3 -2 -12 -10 -4
1532256329896384 1 -2 -3 0 1 8 15 3
1532256329933286 6 3 -3 4 9 17 1 4
1532256329963206 -1 -2 -3 -1 -4 -8 -5 -1
1532256329994122 2 -3 -3 -1 6 16 19 11
1532256330039003 -6 0 -3 -5 -3 -5 -28 -2
1532256330060944 -10 1 3 2 -3 -12 -11 6
1532256330098843 -6 -7 0 1 -13 1 0 -4
1532256330113803 13 3 -1 -2 -23 -20 -19 0
1532256330158683 1 -3 0 0 -5 8 2 6
1532256330173643 6 -3 0 -2 20 0 -18 0
1532256330188603 -2 0 1 -1 -9 -6 12 2
1532256330226516 1 0 -2 -2 -3 4 15 0
1532256330256422 -4 0 2 -2 -15 -9 -2 -4
1532256330271382 -15 -2 0 1 8 -10 -39 -9
1532256330308283 -4 -2 -2 -2 -2 -1 -7 0
1532256330346181 -7 -1 -2 -4 -8 7 17 -5
1532256330376101 0 -3 -2 -1 8 7 -14 -7
1532256330414000 0 1 -1 -4 -14 0 4 0
1532256330510741 1 0 -1 1 1 -28 -4 1
1532256330533680 -1 -1 -1 0 37 13 -2 -2
1532256330586539 1 2 3 3 11 -9 -27 6
1532256330623440 -2 -3 -3 -8 16 -12 -18 -13
1532256330683280 -1 -2 -1 -6 -36 -33 15 -6
1532256330706219 -2 -2 -3 3 27 36 -14 -3
1532256330788998 -2 -3 -3 -5 2 -4 -6 -4
1532256330803957 -6 -4 -2 -6 -11 18 -16 -1
1532256330825899 -4 1 1 1 2 -5 17 1
1532256330863797 1 1 -1 2 -26 2 -11 1
1532256330908677 -7 -1 -4 1 23 1 -23 -10
1532256330938597 -3 -4 -5 0 8 -3 4 -2
1532256330953558 9 -3 -2 -4 -10 8 19 -1
1532256331021375 -4 -3 -3 -5 -14 8 1 -2
1532256331036345 -4 0 -3 -7 -6 -2 -8 -6
1532256331066256 -2 -3 -4 -8 -7 15 12 -4
1532256331096176 0 -1 1 -1 13 -1 -4 -1
1532256331119115 0 -2 -3 -1 -8 -16 4 1
1532256331170976 -5 -1 -1 1 -7 -12 -16 -4
1532256331253755 -3 -1 -2 -6 -15 -9 3 0
1532256331306627 -3 -2 -2 -5 -4 -3 -3 -1
1532256331381413 -1 -2 -1 0 1 -6 -2 -2
1532256331494111 2 4 1 2 0 3 11 1
1532256331583871 2 -10 4 24 29 26 6 3
1532256331620773 5 -16 -5 -11 -18 -33 2 0
1532256331681611 1 2 3 -4 -3 -11 -5 0
1532256331703552 -2 -3 -6 -4 -8 -2 2 -1
1532256331726490 -5 -4 -3 -3 6 -22 2 -2
1532256331741450 0 -2 -3 -5 -6 -14 -3 0
1532256331771371 -3 -4 -5 -9 -11 17 -2 -2
1532256331793312 -2 -9 -11 -6 6 -12 8 -2
1532256331823231 -2 0 0 8 5 -4 0 0
1532256331838192 0 -1 7 1 0 -4 -7 -4
1532256331869109 4 -1 -2 0 -36 -24 13 5
1532256331906010 -3 -6 -3 -8 -47 11 -25 -8
1532256331920970 -2 0 -1 -8 -16 -21 4 3
1532256331943909 -3 -3 -6 2 5 2 -3 0
1532256331980810 -1 0 1 -3 -15 2 -9 -1
1532256332003749 -1 0 -11 -9 -21 -49 -1 -3
1532256332025691 -3 -3 1 7 6 6 8 -2
1532256332063589 3 2 -1 2 -16 -6 4 2
1532256332086528 -2 0 0 -2 17 -4 -5 -1
1532256332138389 -1 0 0 -1 -1 -9 -8 -3
1532256332153349 -2 -2 -1 2 0 0 0 1
1532256332198229 4 3 1 8 41 3 31 8
1532256332221168 -1 -1 1 0 14 13 7 -5
1532256332244106 0 -1 -6 1 6 27 4 1
1532256332259066 0 1 0 -1 -15 5 -9 -1
1532256332281008 -2 -1 -3 -1 0 39 -5 -3
1532256332318907 0 1 3 1 -7 -25 -1 0
1532256332363786 -2 -3 -2 -6 7 -1 -1 -2
1532256332416645 -2 2 0 6 -15 -77 -4 -2
1532256332461524 -2 0 -6 -4 7 16 9 0
1532256332483466 -1 0 -1 -1 -24 -22 -16 -3
1532256332507402 0 -2 -6 -5 0 -2 5 -2
1532256332589198 -2 -2 -6 3 14 27 -4 0
1532256332604143 -3 -3 0 -6 -17 0 -7 -3
1532256332619104 2 -2 -1 -5 -27 -15 0 -2
1532256332634066 -1 2 1 -2 -27 -1 -2 0
1532256332656004 -1 -3 1 -1 5 18 -7 1
1532256332693904 -3 -2 -12 -3 -26 -23 -9 -5
1532256332730805 -1 7 2 -1 11 -17 -2 -3
1532256332753744 2 1 0 0 -3 -9 -6 1
1532256332791642 -1 2 5 0 -3 -10 0 0
1532256332806602 0 -1 1 0 3 32 5 -1
1532256332843503 -3 -3 -4 3 5 2 -4 -1
1532256332858463 0 -2 -2 0 -1 -20 -5 3
1532256332873424 0 1 2 -2 4 15 -2 -2
1532256332896361 1 -2 -3 -3 -2 -4 1 -3
1532256332911321 -1 -3 -2 -1 -2 -10 0 0
1532256332933263 -2 -1 1 1 3 0 -5 -3
1532256332949220 0 -1 2 -3 -5 -10 -7 0
1532256332979142 -1 -1 -2 -1 1 2 -5 -3
1532256333009061 -1 3 1 1 5 -5 0 1
1532256333060922 -24 -5 2 -12 -23 -13 -6 -17
1532256333113781 -5 -12 9 -6 -4 -3 -5 -6
1532256333158661 -3 3 18 -4 -8 -1 -5 -1
1532256333188581 7 -3 -9 -2 -3 1 -8 -2
1532256333218501 0 -19 -18 -11 -7 -4 -5 5
1532256333241439 2 -18 -20 -5 -6 -2 -5 -1
1532256333278341 1 -6 -1 1 3 1 3 -1
1532256333323221 1 1 -2 -4 -10 0 1 2
1532256333361119 -1 -4 -2 4 6 1 -1 -5
1532256333384058 -2 -3 -5 -6 -5 3 -1 -2
1532256333399017 0 -4 -5 -3 4 19 2 -2
1532256333420960 0 0 -11 1 6 2 -3 0
1532256333435919 0 -2 1 -1 -7 16 10 0
1532256333450896 0 2 -3 -2 10 -8 7 0
1532256333480799 -1 2 3 11 14 14 -3 0
1532256333510719 0 4 2 0 5 -26 -3 3
1532256333526691 2 1 3 -1 -2 -4 -9 0
1532256333541637 -9 -2 -3 4 -7 -12 -2 -1
1532256333601476 1 1 -2 -1 -18 -33 12 3
1532256333631397 -2 -9 3 -2 0 -63 13 0
1532256333691237 1 2 -1 -5 0 14 2 -1
1532256333728137 2 -2 -2 7 -12 1 1 1
1532256333804932 0 0 3 0 -7 -15 -4 2

1532256333818895 -1 -3 -1 3 6 7 2 -1
1532256333840836 -2 -3 -3 -4 2 19 7 -1
1532256333863775 -1 -1 -1 2 11 -9 -7 -1
1532256333900687 -1 -1 -4 -4 -6 -9 -2 -2
1532256333923615 0 3 0 -3 -38 -21 -2 -2
1532256333983455 -1 -1 0 -2 -12 -22 -1 -1
1532256334006394 -2 -3 2 -1 1 2 -1 -1
1532256334043295 0 -1 -1 -1 2 -6 -3 -1
1532256334096153 0 -1 -2 -1 -1 -2 -2 0
1532256334134053 1 0 0 -1 0 5 5 -1
1532256334178932 -1 -1 -1 -2 0 3 -1 -1
1532256334208852 -1 0 -4 0 1 2 6 -1
1532256334238772 -1 1 0 1 0 0 1 0
1532256334276672 0 -1 -3 -2 -1 0 -3 -1
1532256334313572 0 0 -1 -1 2 7 -1 -3
1532256334358470 -3 -1 0 -2 -2 -4 -2 -1
1532256334403333 -1 1 -2 0 -1 -1 -2 0
1532256334464187 0 -2 0 -1 0 -2 -5 -1
1532256334524009 2 0 0 -1 -1 -3 -8 -2
1532256334538969 -1 -2 -3 -1 -1 -3 -5 -1
1532256334590871 -2 -1 -1 -1 -1 1 -1 -1
1532256334620791 -2 -1 0 -2 -1 -1 0 -2
1532256334673650 -1 0 0 -1 1 0 -5 1
1532256334741468 0 0 0 -1 1 -2 -2 -1
1532256334980828 0 -1 -1 -1 -2 1 6 1
1532256335116465 0 0 1 -1 0 0 1 -2
1532256335176305 -1 -2 -1 -1 -1 -1 -4 -1
1532256335221185 -2 -1 -2 0 0 -4 -10 0
1532256335251105 -1 0 0 2 1 2 -1 1
1532256335274044 -1 -1 0 1 0 -2 1 1
1532256335318923 1 3 -5 -2 -7 3 4 1
1532256335333884 3 3 6 11 9 5 -6 -1
1532256335363804 -2 1 0 4 -13 -30 -1 -2
1532256335385746 -2 -1 -9 -13 -1 -32 -13 -2
1532256335408683 -1 -6 -9 -12 -7 36 30 1
1532256335453564 -1 -6 -1 -2 6 9 -4 -2
1532256335485479 0 2 -5 2 -4 20 -5 -3
1532256335521382 -1 5 18 -1 13 6 -4 0
1532256335581223 0 3 -9 -4 -3 9 -7 0
1532256335619122 -2 -3 2 -1 -5 -26 2 1
1532256335798641 1 -1 2 -3 -4 -13 0 -2
1532256335926299 0 -1 -1 0 -2 -3 0 1
1532256335986140 -2 -3 -2 0 -1 -2 5 2
1532256336031020 -1 0 -2 -1 1 1 -3 -1
1532256336083878 -1 -2 -2 -1 -1 -3 -2 -1
1532256336105820 0 0 -2 0 0 -5 -2 0
1532256336120780 -1 -1 0 0 -2 -2 0 0
1532256336135740 0 -3 0 -1 2 4 -2 -2
1532256336173638 0 -1 0 -1 1 1 -1 -2
1532256336218519 0 1 -2 0 -4 -2 -4 0
1532256336286337 -1 -1 -3 -2 -2 0 2 0
1532256336354161 0 -4 -2 -3 -3 0 2 2
1532256336413995 -1 -1 0 -1 -1 -2 -2 0
1532256336450897 0 0 0 -1 1 -1 -1 -3
1532256336465857 -3 -1 0 2 -1 0 -5 -2
1532256336503755 -2 -2 0 -2 0 -1 -5 -2
1532256336534673 -2 0 -2 -2 0 1 2 -1
1532256336571574 1 -2 -1 -1 0 -2 -2 -1
1532256336617458 0 1 -2 -1 -2 -3 -7 -4
1532256336655350 -1 -2 -1 -2 -3 1 -2 -3
1532256336713196 -4 -2 -2 -1 -2 -2 -14 -3
1532256336781014 1 -1 -1 1 -2 -3 -4 -1
1532256336795973 -1 1 -3 0 -1 1 0 -1
1532256336840881 -3 -1 -2 -1 -1 2 0 0
1532256336900696 -2 -1 -2 0 7 28 -1 -2
1532256336931612 -2 -1 -3 -3 1 13 0 -2
1532256337013393 -1 -2 -2 -3 1 17 -2 -1
1532256337058273 -1 0 0 -6 -3 0 -5 -3
1532256337135068 1 1 -1 -2 0 7 1 -4
1532256337163989 -4 -4 -4 -4 -5 3 1 -3
1532256337200891 -2 -1 -2 -2 -3 -4 -4 2
1532256337223830 0 -2 -2 -1 2 11 -34 -2
1532256337245771 -1 -5 -3 -7 2 3 10 -5
1532256337268710 13 -4 -1 1 18 6 3 7
1532256337313589 -6 -2 -1 -3 -4 -2 -8 -3
1532256337343520 16 2 -2 -2 -7 -2 4 -2
1532256337373430 -12 -7 -3 2 5 2 -8 0
1532256337411329 -9 2 1 -2 -10 -6 2 -1
1532256337449227 -1 -1 0 1 12 15 -4 -2
1532256337501088 1 2 -1 -4 -5 5 -5 -9
1532256337545969 -3 2 0 3 12 21 3 -4
1532256337590848 -4 7 2 -1 -8 0 -4 -4
1532256337628748 6 2 0 1 0 -10 -6 0
1532256337658667 -1 -3 -2 -4 2 -2 -10 -7
1532256337681606 3 -8 -6 -4 4 5 -14 -15
1532256337786325 8 6 5 14 -6 -2 -6 1
1532256337816246 3 -1 0 -3 -1 12 3 4
1532256337838187 -1 -2 -2 -1 -1 30 3 -3
1532256337876086 -1 -1 0 -3 -1 -17 6 2
1532256337913985 -1 -3 -4 -7 13 -23 -17 -4
1532256337950886 -4 -2 -1 -4 -22 -42 -11 -4
1532256337980806 -11 0 0 -2 -6 -28 -47 -11
1532256338018704 0 2 0 2 7 -7 -18 -2
1532256338048625 -6 -1 2 5 -14 17 -44 -9
1532256338078544 -5 0 -1 11 21 9 19 -2
1532256338093504 2 -3 -3 -7 -16 -2 -6 0
1532256338108465 -6 -3 -2 -4 -16 -30 -26 -10
1532256338131402 0 1 2 7 14 -10 28 5
1532256338168304 -1 -3 -5 -12 -7 22 12 -2
1532256338206203 -2 0 -1 -6 14 9 17 -3
1532256338244102 5 -3 0 1 -3 11 -7 -2
1532256338259062 0 0 0 8 -9 -2 -10 -2
1532256338333878 1 1 -1 1 -13 -31 -5 2
1532256338431600 -7 1 -2 3 -11 20 5 -3
1532256338513382 -2 0 -4 -3 0 11 -12 -2
1532256338528342 -7 0 -1 0 4 -10 -9 -5
1532256338581200 -1 -4 -2 -1 1 0 -2 0
1532256338604139 -1 -1 -2 -1 9 14 6 -1
1532256338619098 0 -3 -1 -3 -9 6 -1 -2
1532256338634059 0 -2 -1 1 -2 5 2 1
1532256338670960 -1 -2 -3 1 2 7 0 0
1532256338723819 2 -2 -1 -3 -8 -70 -1 -1
1532256338760720 -1 -1 1 -5 -4 -4 -3 -1
1532256338843499 1 -1 -2 -1 -19 -11 5 -2
1532256338956197 -4 0 -1 -1 -1 -2 6 -3
1532256339075877 0 -1 -1 -2 -1 0 6 0
1532256339113776 2 3 2 3 -3 7 -1 0
1532256339173617 5 2 5 -3 16 12 2 3
1532256339203536 -1 1 -3 0 1 22 18 -1
1532256339226476 -2 -1 -1 -2 -5 -8 -3 -1
1532256339248416 -1 -4 0 3 2 58 13 -2
1532256339271355 -2 0 0 4 3 -15 -25 -2
1532256339293296 0 0 -11 -7 -14 -29 -2 3
1532256339354149 -2 -4 2 -6 -61 10 -6 0
1532256339391034 -2 3 2 1 2 11 -2 -1
1532256339420955 -4 2 0 5 5 11 -2 0
1532256339450875 -2 -2 11 1 -13 -11 2 -13
1532256339465836 4 9 -3 -3 -7 5 16 -1
1532256339495755 0 -19 -20 -2 8 21 -7 -1
1532256339510715 -5 2 1 2 -4 -33 9 -2
1532256339541632 -2 -2 4 -4 -8 -6 -7 -1
1532256339563573 -1 13 8 4 1 0 -1 -7
1532256339593494 -8 1 9 -1 -6 -1 -22 0
1532256339623413 4 -3 0 1 15 21 5 1
1532256339638373 -1 4 2 -3 -6 -18 7 2
1532256339691232 -1 -1 7 -2 0 3 1 2
1532256339706192 -12 -2 0 6 6 -4 1 -2
1532256339736112 8 0 -4 1 -22 -22 25 -1
1532256339774011 5 3 -2 -2 11 -6 -2 -3
1532256339810912 4 1 -2 2 -7 0 5 4
1532256339871757 -2 -2 0 2 8 29 -23 -19
1532256339900683 3 3 5 -8 2 5 7 9
1532256339946549 3 2 3 12 21 8 4 3
1532256339969501 -3 0 -4 0 -7 -27 0 0
1532256340006389 1 2 0 -2 -27 -2 1 1
1532256340036309 1 -1 1 -4 -19 -4 5 2
1532256340066229 -1 1 2 -3 -18 -6 -8 -6
1532256340088171 -3 -6 -2 -6 -5 -17 -5 -7
1532256340119088 -1 2 4 3 8 4 5 3
1532256340142026 -2 -3 -4 -7 -21 14 3 -1
1532256340223808 -2 -2 -5 -6 -5 0 -3 2
1532256340238768 -2 -3 -3 -2 3 11 -5 -3
1532256340283648 0 1 -2 -2 4 -13 3 -1
1532256340336506 -1 1 1 -3 14 54 6 -2
1532256340388367 0 -4 -4 -1 -4 23 0 0
1532256340426267 -15 -4 -7 -1 -10 -12 -1 -4
1532256340449205 1 -1 2 1 -7 -5 -3 0
1532256340464165 -3 -15 -30 -2 7 14 7 -1
1532256340501067 -1 8 6 8 12 -6 -1 -1
1532256340524005 -19 1 12 5 4 16 -6 -3
1532256340538965 2 10 16 1 -18 18 -4 -1
1532256340560906 -1 2 4 -1 7 -24 -5 0
1532256340583845 0 -6 -15 -1 8 -6 -2 -4
1532256340613765 -13 6 16 -3 -12 -6 -2 -2
1532256340650666 4 1 1 -5 -7 -30 -1 0
1532256340673605 -1 0 -3 -3 -10 -6 6 -1
1532256340688565 4 2 4 3 -6 15 -1 -3
1532256340741424 -1 4 1 1 -10 -17 -2 0
1532256340756384 -1 -2 1 1 -17 -8 -6 -2
1532256340801264 0 0 -1 -7 -18 -39 9 1
1532256340854121 -1 1 1 0 -2 -6 1 -1
1532256340869083 -1 -3 -3 -5 -3 27 -1 -2
1532256340891024 -1 -1 2 0 -5 -22 -2 2
1532256340920943 3 -2 -1 1 -2 -32 -8 -1
1532256340973802 2 1 2 5 -3 1 0 0
1532256340988762 -1 -16 -4 -3 -9 -13 -6 -7
1532256341018682 8 107 3 0 -5 -6 -4 -4
1532256341063561 -7 -32 0 1 4 -1 10 5
1532256341093482 0 23 -2 -2 -4 -1 -9 1
1532256341131380 -2 -46 0 -4 -5 -4 2 -2
1532256341161301 0 -24 -3 -1 0 0 -3 0
1532256341191221 2 -7 3 20 10 -1 -1 1
1532256341206182 -1 -25 3 -2 10 1 4 -2
1532256341259039 -4 -11 -5 -10 -13 -52 -4 -3
1532256341295941 0 0 -1 9 9 34 4 2
1532256341340820 -5 -5 -6 -5 -3 -6 1 -1
1532256341370741 -1 -3 -3 -7 -6 -18 -7 1
1532256341393679 0 1 2 -4 -5 -38 -10 0
1532256341461498 0 -3 2 -9 -11 -45 -7 -2
1532256341483439 -3 1 -1 4 7 9 3 -1
1532256341521338 -2 -7 -1 -2 -9 -3 0 -1
1532256341581178 -1 0 -12 -1 1 -6 -6 -2
1532256341619076 0 1 5 0 11 29 -1 0
1532256341643013 -3 2 -5 -3 -2 -2 5 -1

1532256341708836 -2 -4 -6 -3 6 42 15 1
1532256341791621 1 -1 -2 -2 -1 -3 -4 -2
1532256341828522 -1 -1 1 -2 4 0 1 -1
1532256341888395 -1 0 1 -2 -5 -13 1 1
1532256341903357 -5 -1 0 -2 -3 24 -1 -4
1532256341948237 -2 -1 -1 -1 5 9 0 0
1532256341979155 1 -1 1 -1 0 -5 -1 0
1532256342053980 1 -1 -2 1 -1 0 -2 2
1532256342083905 -1 -1 0 -1 1 -5 0 -1
1532256342122801 0 -1 -1 -1 0 -1 -3 -1
1532256342150733 -1 -2 0 0 0 11 -1 -2
1532256342173665 -2 -1 -1 -1 2 13 0 -1
1532256342218548 0 -1 -1 -1 -3 -4 -1 -3
1532256342233505 0 0 -1 -1 -1 -7 -2 0
1532256342301355 0 -1 1 -2 -2 -3 1 1
1532256342346234 0 -1 0 -1 -2 -6 -2 -2
1532256342406074 -2 0 -1 -2 1 -4 -1 -1
1532256342533733 -1 0 -1 -2 1 -2 0 -1
1532256342616510 1 -1 -1 -2 0 -2 0 0
1532256342730214 -2 0 -2 -2 -2 -1 2 -2
1532256342833929 -2 -2 -1 -2 -1 0 -1 -4
1532256342848889 -2 -1 -3 -2 -2 -3 1 1
1532256342893770 -3 -1 -1 2 0 3 -1 -2
1532256342968570 2 0 -1 -3 -2 -2 0 3
1532256343021428 -3 -2 0 0 -1 1 -3 -1
1532256343073290 0 -2 -1 -1 -2 3 -2 -1
1532256343111188 -2 1 -2 0 -1 -1 -2 -1
1532256343149087 -2 -1 -2 -2 -1 -1 1 0
1532256343245828 -1 -1 0 -2 1 0 0 -1
1532256343366506 -1 0 0 1 -2 0 0 0
1532256343426346 -13 -3 -2 -1 -2 -2 -1 -11
1532256343456265 -11 -5 0 -7 -8 -14 -11 -14
1532256343471225 -19 -1 -5 -3 -8 -18 -18 -9
1532256343531065 0 0 0 -2 -10 -51 -13 -9
1532256343575945 4 0 -2 0 9 23 -5 -1
1532256343590906 -2 1 -1 1 2 6 -3 -1
1532256343613844 0 -1 -1 0 1 9 -6 -2
1532256343665705 1 0 -1 -3 0 3 0 3
1532256343696623 -2 -1 -3 -1 -2 2 -3 -1
1532256343726542 0 -2 -1 -1 -1 -1 1 -3
1532256343756463 -2 -3 -3 -2 -1 1 -8 -2
1532256343778404 0 -1 1 0 1 1 -1 -2
1532256343793364 -6 -1 0 -1 0 -2 -1 -3
1532256343869161 -1 -1 -1 -1 -1 -2 -3 -1
1532256343943961 1 1 0 -1 1 0 0 0
1532256343973881 1 -3 -3 -1 -2 -1 -8 -2
1532256344003801 -4 -1 -2 1 0 -2 -2 -1
1532256344033721 -2 0 -1 -1 1 -1 -6 -2
1532256344071620 0 0 -1 0 -2 -1 -1 -2
1532256344162377 0 -2 -2 0 0 1 2 0
1532256344192298 -11 -2 -1 -2 0 -3 2 -1
1532256344206260 2 -3 -1 0 1 -2 -2 1
1532256344229199 1 -1 -2 -1 0 -2 -5 -1
1532256344251141 6 -2 -1 0 -2 1 2 -1
1532256344266100 -1 -1 -2 -1 -2 -3 -4 3
1532256344318959 -12 -2 0 1 -2 0 2 -1
1532256344363839 3 1 -1 -1 0 0 1 -3
1532256344453599 -5 0 -1 0 -3 -1 0 -2
1532256344491497 -6 -2 -1 -3 0 -1 3 2
1532256344506457 -7 2 1 -1 0 -1 -4 -4
1532256344611177 -7 -2 -1 0 -1 -4 -7 -4
1532256344649076 15 0 0 -1 -2 0 -1 -2
1532256344730858 -2 0 1 1 8 21 -9 -3
1532256344760778 -1 -1 0 -9 17 5 8 -1
1532256344783716 -2 -1 4 17 18 10 0 0
1532256344813636 -2 -1 -4 0 -3 6 0 -1
1532256344843556 6 -3 -3 -4 -17 -38 -7 0
1532256344911374 3 -1 -1 -4 -2 -14 -1 4
1532256344957267 -2 1 1 -1 6 0 4 1
1532256344986174 -4 -4 -3 -5 -29 17 19 -2
1532256345031054 -3 -2 -1 4 11 14 5 -2
1532256345053993 -9 -7 -2 6 8 29 -10 -2
1532256345083913 -16 5 -2 -3 -3 -18 4 -5
1532256345113833 -2 3 0 -1 15 38 3 1
1532256345128793 -3 2 0 1 9 -3 -3 -2
1532256345181652 8 0 -1 -6 -14 -18 1 -1
1532256345226532 6 0 -1 -1 2 -1 1 3
1532256345241492 23 1 -1 0 5 11 8 1
1532256345286372 -6 0 -4 -6 0 -10 -33 -7
1532256345331251 -5 -4 -2 -6 15 3 7 -19
1532256345369157 -10 2 -3 -5 -3 16 12 -1
1532256345391091 3 -1 1 -3 -9 -13 -16 9
1532256345414030 7 2 -3 5 -5 -18 -8 -9
1532256345465892 -1 -5 -1 -3 11 0 9 3
1532256345495812 11 1 5 3 -3 5 11 3
1532256345556649 -3 1 -3 -1 0 -5 28 7
1532256345608510 -4 -3 -3 -1 2 24 -8 1
1532256345646409 -1 1 4 8 -8 -27 -11 1
1532256345781049 1 2 1 -3 -17 -21 -5 0
1532256345825929 0 0 -3 -7 -7 2 7 3
1532256345863828 -1 1 4 3 -20 15 -13 2
1532256345938628 -4 -1 -2 -2 -11 -12 -5 -1
1532256345976525 -4 -5 -6 -8 -8 -1 1 -3
1532256346028387 0 2 3 8 -6 -6 -8 -3
1532256346088227 -17 -2 -1 2 5 10 -3 2
1532256346200936 0 -2 -2 -5 9 0 -9 -4
1532256346306660 0 -1 0 -1 2 1 2 0
1532256346367481 0 2 -1 -2 0 -3 -2 -1
1532256346418346 -2 1 -1 -1 -1 2 4 -2
1532256346471209 -1 0 0 2 1 2 -1 1
1532256346605849 8 -1 -3 -1 0 1 1 7
1532256346628788 -9 -2 2 7 7 5 10 -4
1532256346643747 3 -4 -8 3 -5 -27 4 3
1532256346748468 -10 -5 -5 -5 10 5 -19 -2
1532256346823268 0 -6 -11 1 9 4 5 1
1532256346869145 -19 -2 -5 -3 3 23 2 7
1532256346922004 7 -10 -5 0 6 -14 -38 3
1532256346995807 -6 0 1 -4 -7 26 3 1
1532256347048665 -19 1 0 1 -24 -10 -59 -6
1532256347063625 6 2 -1 -2 13 48 -11 3
1532256347078585 0 -1 -12 -5 -4 -8 16 -7
1532256347161364 -6 -1 1 -13 0 -5 -7 6
1532256347198265 4 1 5 4 4 -19 -11 -1
1532256347251124 -2 -4 -2 -7 -12 -10 -11 0
1532256347289023 0 -2 7 35 -11 -2 8 -1
1532256347340884 -1 -3 -1 15 9 41 5 2
1532256347370804 -4 -4 0 -7 -8 -32 -5 -8
1532256347385764 -5 -5 -7 -5 13 30 -4 -7
1532256347408702 4 2 1 12 8 -9 19 10
1532256347431641 -1 -2 -3 -5 -2 -27 -8 0
1532256347446601 0 -1 1 1 17 25 -5 -3
1532256347500457 -3 -1 0 0 -8 33 -12 -6
1532256347641081 1 0 -1 -2 -8 33 12 2
1532256347671000 0 3 4 -2 -37 -28 -32 -3
1532256347790681 -10 -3 -11 0 -6 6 -3 -4
1532256347813620 9 12 4 -3 -4 -24 -6 3
1532256347843539 -8 -1 10 0 8 10 -5 -4
1532256347873460 -2 -4 -4 1 3 5 -4 1
1532256347918339 -1 -4 0 -4 7 2 -2 -1
1532256347948259 0 -1 -1 -1 -4 3 7 2
1532256347979176 -3 -2 -6 -5 -6 -3 -6 -2
1532256347995148 -3 -3 -5 -4 -18 -6 -6 -1
1532256348045998 -1 1 0 0 2 5 -4 -4
1532256348062953 2 3 1 12 1 -29 0 3
1532256348083897 -1 -1 -1 0 13 24 0 0
1532256348120799 1 3 -5 0 6 5 4 1
1532256348173657 -1 -1 -3 0 -1 4 -9 -2
1532256348211556 -4 -10 -5 -2 3 2 3 -3
1532256348263417 -2 -2 -3 -2 -1 10 -1 4
1532256348317274 2 5 4 0 3 -4 -1 1
1532256348331243 -1 -11 3 4 1 -6 -3 -1
1532256348346195 -1 -1 -1 6 -17 -3 -5 0
1532256348361155 -1 2 -1 -5 0 -1 1 -4
1532256348399054 1 -1 -4 -5 5 -2 -1 -1
1532256348420995 -2 1 6 -1 -2 -3 -2 -2
1532256348480835 -2 -1 -2 -5 2 7 1 -2
1532256348518734 -1 -1 -3 0 0 -2 -2 -2
1532256348563614 1 -4 -6 4 -11 -62 -2 2
1532256348586553 6 9 17 46 30 8 13 7
1532256348623454 -2 -1 -5 -4 -4 -20 -27 -3
1532256348653374 -4 1 8 -3 -8 -10 -1 -3
1532256348676313 -3 -1 -5 4 4 13 9 0
1532256348751113 -2 -4 -2 -4 -3 4 1 -1
1532256348781032 -3 -8 2 -9 -5 -3 0 -2
1532256348803971 -2 -2 -44 -22 5 -5 -2 -2
1532256348825913 -2 -8 5 16 -4 -4 -2 2

1532256348893731 0 20 19 -9 -11 -11 -21 -15
1532256348916687 1 -4 10 18 24 8 6 6
1532256348961550 -2 -3 4 -11 -1 -3 10 -2
1532256349118374 -7 -5 -28 -43 -38 -78 -19 -9
1532256349216113 2 2 3 1 1 -8 -16 -2
1532256349328812 -15 -5 1 5 -2 12 -15 -6
1532256349396629 -2 -4 -1 0 -18 -21 1 4
1532256349441510 1 0 -4 -8 -6 3 7 -3
1532256349516309 -3 2 -1 -6 18 25 11 4
1532256349621030 1 3 0 -2 -28 -32 2 2
1532256349793569 -20 -2 -8 -7 10 35 11 -3
1532256349891307 4 4 2 -2 4 -2 -1 -2
1532256350004019 -3 -3 -3 0 -9 3 -3 2
1532256350100760 1 1 0 0 6 12 -2 0
1532256350251376 -9 -1 -3 -2 -4 0 -9 2
1532256350423897 -1 0 -1 3 -6 -18 -2 -1
1532256350460798 -1 2 9 8 18 -12 -5 -3
1532256350505678 0 4 -2 5 1 -29 3 3
1532256350528617 1 2 1 -10 -22 3 -2 0
1532256350618377 0 6 6 8 28 46 -5 1
1532256350694173 -2 -2 2 2 -3 12 0 -1
1532256350724094 -1 -2 -3 -4 -9 -23 6 1
1532256350805875 -1 -2 -1 -4 -9 -47 -2 0
1532256350843773 0 -1 1 -2 -8 -19 -3 0
1532256350918574 -1 0 -2 -1 0 -1 -1 0
1532256350948494 -4 0 -2 -1 7 29 2 -1
1532256350971432 -2 -3 0 -1 0 -4 -5 -3
1532256350993374 -1 -2 -1 0 -1 -5 1 1
1532256351016312 1 0 -1 -2 -4 -8 -4 -1
1532256351031272 1 0 -2 -2 -2 -3 2 1
1532256351046233 -4 -1 -2 0 -1 -4 -2 -1
1532256351076152 0 -1 -2 -3 -1 -1 -1 -1
1532256351106072 -1 -1 -2 0 -4 2 -8 -1
1532256351165912 -1 -1 1 0 0 -2 -2 0
1532256351188850 -2 -2 0 -1 0 2 5 0
1532256351218771 1 -2 -3 -2 -2 -2 -5 2
1532256351233731 1 -1 -2 1 -1 0 -1 0
1532256351256671 1 -1 0 -2 1 0 -1 -2
1532256351293571 0 -1 -1 -1 -1 -3 -1 -3
1532256351353411 -2 0 -2 0 -1 -3 0 -2
1532256351398291 0 -1 -1 -2 -2 0 3 -1
1532256351413251 -1 -1 0 1 0 0 1 -2
1532256351451157 -1 -2 0 0 -1 1 6 -1
1532256351474088 -2 -1 0 -1 -3 2 0 -1
1532256351504008 0 0 0 -1 -1 0 1 -2
1532256351525950 0 0 -2 -1 1 -1 0 0
1532256351563848 0 -1 -2 -2 2 -2 1 2
1532256351585790 -3 -1 0 -2 -1 -2 2 -1
1532256351609726 -1 -1 0 -1 -2 -1 -3 -1
1532256351661587 0 0 -2 -1 -3 0 5 0
1532256351691507 1 -1 -2 0 -1 -1 -2 -1
1532256351713448 -2 -1 -2 -3 -3 -3 -1 -1
1532256351736388 -1 -3 0 1 -3 -1 -2 -3
1532256351781267 0 0 -2 -1 1 -1 1 0
1532256351819165 -2 0 -2 -1 0 0 1 -2
1532256351834125 -2 -3 -2 -1 -1 0 0 0
1532256351856067 1 1 -2 -1 0 -1 0 -2
1532256351885987 0 -2 -1 -2 -1 1 0 -1
1532256351915907 1 -1 -3 -1 -1 -1 -1 -2
1532256351945827 -2 -4 -1 -3 14 1 -2 -2
1532256351968765 1 -1 0 -3 -12 4 -4 -1
1532256351983726 2 1 0 3 -1 -6 6 1
1532256352021624 -1 -1 0 1 3 -38 -8 -1
1532256352043565 0 -1 -3 7 48 24 3 0
1532256352058525 -2 1 2 -2 -1 -3 -1 0
1532256352081463 -2 -2 -1 -3 8 -11 -7 -4
1532256352096424 0 -2 -2 -2 -4 23 -3 0
1532256352118366 0 0 1 6 10 -5 0 0
1532256352156264 -1 0 -1 7 10 0 -1 1
1532256352209123 -1 -2 -2 -1 -10 -8 4 1
1532256352246024 -1 0 -1 -8 -8 -9 3 -1
1532256352268962 -1 1 0 -3 -10 -23 31 2
1532256352313842 -5 -2 -1 -2 -6 7 -10 -7
1532256352343763 3 -1 -2 -2 6 34 3 0
1532256352396621 -5 0 0 -1 -8 27 -6 -7
1532256352433522 14 2 0 -4 -4 -9 -9 -2
1532256352448483 -11 4 -2 -3 -8 14 47 6
1532256352471421 4 0 -3 -6 -23 -44 -26 -3
1532256352493363 -19 -6 0 -2 3 23 25 2
1532256352516301 -5 1 -5 -4 -18 -18 -27 -6
1532256352546220 9 -2 0 5 7 10 12 5
1532256352561181 1 -2 -5 -5 -2 7 24 2
1532256352599080 4 2 3 -9 5 -2 2 -1
1532256352621021 -8 0 7 -1 -9 9 -11 1
1532256352635981 9 -5 -2 2 -6 -3 16 5
1532256352680861 5 1 0 1 19 14 38 5
1532256352741706 -3 -3 -3 -1 13 8 12 4
1532256352771618 3 3 8 13 11 5 6 4
1532256352786579 -4 -6 -8 -11 12 10 -8 -5
1532256352838440 -2 -2 -6 -3 16 50 47 7
1532256352853400 0 2 2 1 -18 -53 -10 -4
1532256352891298 -2 -4 -6 -11 7 17 -3 -4
1532256352913240 -3 -4 -2 -5 -12 -33 6 -4
1532256352951139 -1 -1 0 -4 -16 -60 21 0
1532256353010978 -4 -4 -4 -5 12 3 2 -4
1532256353078797 3 -2 -5 -4 -25 -48 -18 -3
1532256353115698 1 -6 -3 -7 -19 10 1 1
1532256353168558 -2 -3 -1 3 24 21 2 -1
1532256353191496 -3 -1 -4 -7 -20 -27 -7 -5
1532256353228397 -2 0 -1 3 -9 3 -3 -2
1532256353273277 3 -2 0 1 0 8 3 0
1532256353296227 -6 0 1 2 15 10 4 -2
1532256353311176 -11 -5 -2 2 -2 -15 -29 -4
1532256353341096 -28 1 -2 4 -2 -16 -4 -14
1532256353364034 10 -4 -6 -7 11 0 -1 -6
1532256353378994 3 -1 2 6 0 -16 7 1
1532256353393955 -5 -1 -3 0 0 5 8 1
1532256353408914 14 -2 -1 1 -5 -13 2 2
1532256353430856 4 0 0 -2 4 -6 -3 1
1532256353453794 -1 -4 -3 -2 -2 -3 2 -1
1532256353491692 5 0 1 -1 -4 0 3 0
1532256353506653 -1 -1 0 0 -2 23 -1 -3
1532256353521613 6 0 -1 -1 6 -5 5 0
1532256353558515 -7 -1 0 -2 -2 -5 4 0
1532256353573474 -4 0 1 4 -14 -17 -10 -3
1532256353626333 2 3 -1 -7 8 -4 -2 1
1532256353693155 0 -2 -1 3 -1 -14 -5 0
1532256353799869 6 2 3 -2 -7 -3 -1 -5
1532256353850733 -13 -3 -5 -2 -3 -3 -5 -5
1532256353888631 -2 -1 -2 4 -4 -7 0 -1
1532256353926530 -2 -7 -3 -2 -18 13 8 -3
1532256353948471 -2 11 2 3 19 17 16 -8
1532256353971411 2 -4 0 -7 -4 22 0 0
1532256353993351 -2 -3 5 5 -17 -29 5 1
1532256354046210 -4 0 0 -5 2 -8 -11 -1
1532256354076130 5 9 6 10 -7 -2 16 1
1532256354099068 -6 -6 -4 9 35 -1 1 -1
1532256354114029 6 -3 3 3 -9 4 9 -2
1532256354150930 -1 -1 3 0 -1 5 9 4
1532256354210770 -2 -5 -8 -1 16 22 12 -3
1532256354248669 -10 -2 -1 -8 -15 -22 -5 -2
1532256354309506 -4 -1 2 -3 10 -5 3 -4
1532256354323469 0 -2 -3 -6 -15 38 0 -2
1532256354362365 1 -1 1 -2 16 -16 1 1
1532256354398269 2 -1 3 11 4 -16 18 4
1532256354474066 1 1 0 -7 2 16 13 8
1532256354518946 -1 -3 2 8 17 3 -1 -1
1532256354563825 0 0 -4 -6 -12 -7 -3 1
1532256354608706 -2 -5 -3 2 6 -4 2 2
1532256354668546 -2 0 0 -3 -9 -12 -4 0
1532256354692494 -1 -1 2 2 6 11 10 2
1532256354758306 -4 1 0 -3 -11 -23 -10 -1
1532256354796204 -16 -2 0 -1 4 -9 3 -1
1532256354819143 -9 -1 5 -1 -1 -15 -1 2
1532256354835101 4 1 10 -2 5 7 3 -3
1532256354878983 -1 1 -6 -4 -3 -16 -10 -3
1532256354975725 3 -1 -9 2 -3 19 1 0
1532256354999660 0 -9 -7 -5 -1 5 -3 -4
1532256355028590 9 -3 0 0 2 -7 6 3
1532256355043543 -2 1 -3 0 1 -6 -4 -1
1532256355081441 -2 -2 -2 -2 -3 -4 -1 -1
1532256355097399 1 -4 -1 -1 1 1 0 1
1532256355156242 4 -3 -5 0 1 1 1 0
1532256355186161 -8 -6 -1 -6 -7 -3 -3 -2
1532256355209100 -6 2 0 -2 -7 -13 -8 -5
1532256355260962 2 7 4 2 3 -1 -8 2
1532256355290882 3 0 -4 0 -1 -1 -4 2
1532256355335762 -6 -1 1 -4 -7 -4 -8 -9
1532256355403580 -2 -4 -11 -20 -15 -1 0 10
1532256355463420 0 -3 -3 -2 -34 -2 3 9
1532256355486359 -1 -1 -2 1 6 -5 -2 -3
1532256355523260 0 -2 -2 7 7 8 -4 -3
1532256355569137 -1 1 -7 -3 -31 -56 -5 0
1532256355635959 -1 0 3 -1 -12 0 -10 -3

1532256355756636 -1 1 2 -1 -7 -42 -6 -2
1532256355778578 0 -3 -3 -6 3 31 -2 2
1532256355853377 0 -2 -1 1 1 -2 -5 0
1532256355906236 2 2 5 19 0 -2 -8 -1
1532256355921196 -3 -7 12 -5 11 -5 -4 -3
1532256355989015 0 -1 -4 -4 1 28 0 0
1532256356019951 -2 -3 -6 0 -1 20 1 -2
1532256356213433 0 -2 -1 -4 -2 -12 -1 -1
1532256356243353 -1 -1 -3 -6 -10 8 -3 -1
1532256356266291 -1 -1 -2 -7 13 10 4 1
1532256356288233 -1 0 0 -2 -9 -6 0 0
1532256356303193 -3 -3 -2 1 -5 -1 0 -1
1532256356356052 0 -2 -2 -7 -6 -1 0 -1
1532256356393950 0 -1 -1 1 2 -2 -1 -1
1532256356483711 -1 -2 -1 0 -2 1 -1 1
1532256356528593 0 -1 -1 -6 9 5 0 -1
1532256356633310 -1 -1 -1 -1 -1 -1 -1 -1
1532256356709108 -1 -1 0 -3 -15 -2 -1 -2
1532256356746009 -1 0 -2 -4 -2 1 -1 -2
1532256356805849 0 0 0 -8 -24 3 1 0
1532256356858707 -3 -1 0 2 0 7 0 0
1532256356919545 2 5 10 6 -10 -1 -7 -3
1532256356986366 0 -1 -1 -6 -5 -2 0 -1
1532256357188825 -2 -4 -3 -3 -8 7 7 0
1532256357428185 -4 0 0 -2 -3 -1 -2 -2
1532256357555843 -1 -1 0 -2 2 0 -2 -2
1532256357631641 -2 -1 -2 -1 -2 -1 -2 -3
1532256357653581 -1 -3 1 -2 -1 -2 -1 -1
1532256357668542 0 -2 0 -2 0 -2 -2 0
1532256357683503 -1 -1 -3 0 -2 -1 -1 -2
1532256357721401 0 -2 0 -3 -2 -2 -1 1
1532256357743342 -1 -2 1 -1 0 1 -3 0
1532256357773262 -1 0 -1 -1 -2 -1 -4 -1
1532256357811161 -1 -1 1 -1 0 0 0 -1
1532256357841080 0 1 -2 -2 1 1 -3 -4
1532256357885961 0 -1 -2 0 -1 -1 -2 0
1532256357923859 -1 -1 0 0 3 -1 -1 2
1532256357975720 0 0 -2 -1 -2 0 -1 0
1532256357990681 -2 3 0 0 1 0 -3 1
1532256358013620 -2 -1 -3 0 0 -1 0 0
1532256358043539 -3 -3 0 -1 0 0 -1 -2
1532256358058499 -2 -2 -2 1 -1 0 1 -1
1532256358088419 -1 2 -2 -2 0 0 0 -2
1532256358103379 1 -2 -2 0 -2 -2 -1 -2
1532256358133299 -1 -2 -1 -2 0 -2 0 -1
1532256358171198 -2 -2 -2 -1 -3 1 -3 0
1532256358224056 -1 0 -2 -1 -1 1 -2 -3
1532256358246995 0 -2 -1 1 0 -1 0 -1
1532256358275918 0 -1 -1 -2 -1 -1 -2 1
1532256358298856 -1 -2 0 -3 -1 -1 -3 -1
1532256358328777 0 -1 -2 0 0 0 0 -1
1532256358350723 -2 0 1 0 0 -2 -1 -1
1532256358373656 -3 -2 0 -2 -1 -2 -1 -1
1532256358388616 0 -2 -1 -1 -2 -2 -1 -2
1532256358403577 -2 0 0 -3 -1 1 -2 -1
1532256358426515 1 0 -3 -6 -1 0 -3 0
1532256358471395 -1 -2 -4 -8 -4 -2 -2 -1
1532256358531235 0 1 -3 0 -6 -3 -1 -2
1532256358554175 0 -1 -1 1 1 -8 0 -2
1532256358599053 1 0 0 -1 0 -3 -1 -1
1532256358614014 -2 -4 -1 2 0 10 -3 -1
1532256358635954 -2 -3 -3 -1 -6 -23 -1 -2
1532256358665875 -1 -1 -2 -1 -6 -11 -6 -2
1532256358695795 3 -1 0 2 -12 -4 0 1
1532256358710755 -3 2 -1 5 2 8 -2 -1
1532256358725715 -2 1 0 -2 0 5 -1 -1
1532256358756632 0 -2 1 4 -6 -18 -2 -2
1532256358778573 0 -2 1 -5 1 0 1 -1
1532256358801512 -2 -1 -4 -6 -8 -19 -3 0
1532256358816472 -2 0 -1 -1 5 30 0 -2
1532256358838413 -2 0 -4 -5 -7 -24 -3 -2
1532256358868333 0 7 -1 2 2 -2 -3 -1
1532256358891272 1 0 2 1 4 2 2 7
1532256358913214 -4 -4 -3 -3 -6 0 1 -8
1532256358951113 2 1 0 -1 1 4 -1 -3
1532256358966072 -2 -2 0 -2 1 -1 -2 -4
1532256359003971 -1 -1 -1 -2 1 3 1 3
1532256359070792 0 -1 -3 -4 -2 4 -1 0
1532256359131629 -1 -3 -1 0 -2 -2 2 1
1532256359206430 0 -4 -1 4 8 3 5 0
1532256359236350 2 -2 0 -1 -3 5 6 1
1532256359296189 0 -1 -2 1 -3 -8 7 2
1532256359334088 8 2 -1 -3 14 14 2 3
1532256359393928 -8 0 -2 3 -3 -3 2 -3
1532256359445790 6 1 3 2 2 -11 -22 -2
1532256359521586 -5 -4 -14 -31 -14 -8 -4 2
1532256359573448 -1 6 7 4 9 73 15 -1
1532256359618327 -2 0 1 5 -20 8 -15 1
1532256359731027 4 0 3 0 -14 -13 1 3
1532256359775907 0 0 2 4 -21 11 7 -2
1532256359805838 -7 0 -3 -1 15 39 6 0
1532256359850706 2 -1 -1 -3 1 -15 -4 -2
1532256359881624 1 -3 0 -2 -1 -1 -22 -3
1532256359963405 -1 -5 -3 -3 -2 21 19 2
1532256360001304 -24 -1 3 5 -4 -13 23 1
1532256360076103 -1 -3 0 -3 -11 -8 0 0
1532256360106024 6 0 -3 -5 -7 -4 -13 -4
1532256360128963 -2 -6 -6 0 8 1 -8 2
1532256360165864 2 5 1 2 -3 -3 -2 -2
1532256360195783 4 -4 1 -1 -9 -6 -7 1
1532256360218723 0 -1 -1 2 10 11 6 1
1532256360240663 8 -2 -1 -2 1 1 -2 2
1532256360263603 -2 -3 0 3 4 4 1 0
1532256360301501 0 1 0 4 1 2 -3 -1
1532256360323443 0 0 -2 -2 -1 2 1 -1
1532256360346381 -3 0 1 1 0 -4 0 -1
1532256360368322 0 0 -1 -1 -7 -2 1 -2
1532256360393256 2 2 0 0 4 0 0 1
1532256360414200 0 -3 -3 -3 -10 -7 6 -1
1532256360436141 -2 -3 -2 0 1 -1 0 -1
1532256360489000 0 -1 -2 -5 -2 2 -5 0
1532256360570781 -2 2 2 13 10 1 0 0
1532256360698439 -1 -5 -1 -10 -4 -35 1 1
1532256360773240 -7 4 -7 0 -5 6 -1 -4
1532256360804156 -3 -13 2 -4 10 10 -2 -7
1532256360849037 2 1 7 -1 1 14 -9 1
1532256360885938 -9 8 -4 -7 -7 0 -17 -8
1532256360908877 1 4 -1 -1 13 26 -6 -1
1532256360953757 -9 -2 -7 -12 -15 -17 -10 -2
1532256360983677 -11 -4 -1 6 6 -2 -6 2
1532256361006616 -5 0 -13 2 7 13 -24 0
1532256361028557 -1 5 19 -4 -8 -10 1 3
1532256361058477 -4 -12 -4 -6 1 11 3 2
1532256361073437 -2 4 19 3 -13 -25 -21 -3
1532256361111336 1 -3 3 1 8 12 5 2
1532256361163197 -2 -7 -2 -1 8 -23 0 -3
1532256361194114 -3 -2 -2 2 -13 5 -5 -5
1532256361260937 -1 -2 -1 -1 -10 -17 -2 1
1532256361283875 0 0 -1 -9 -11 -43 -8 -3
1532256361320776 1 1 7 -6 -8 1 -2 -2
1532256361426493 -2 -5 -2 9 14 0 6 -6
1532256361441453 -2 -2 -6 -3 -1 -8 0 2
1532256361486333 -3 6 7 -2 5 -10 -9 -6
1532256361516253 2 -5 0 -1 4 -32 -13 -2
1532256361546173 -1 -8 -5 3 11 -8 7 3
1532256361635933 -2 -5 -14 2 14 15 -5 1
1532256361665853 -3 -2 7 3 -3 -5 -7 -4
1532256361741651 -1 -8 6 1 -19 -23 1 -1
1532256361778552 -1 4 4 3 3 -45 -3 -1
1532256361793511 0 -5 7 -7 3 14 2 -2
1532256361853351 -3 -3 6 -2 1 -12 -3 1
1532256361876290 0 4 -1 -1 -6 -2 1 -2
1532256361936130 -3 4 11 -2 5 13 0 -3
1532256361966049 9 56 6 8 14 9 8 8
1532256361995970 -3 -6 9 -1 -4 -4 -6 -8
1532256362018908 -11 -20 4 -3 -5 -4 -11 -10
1532256362048829 1 -7 -10 -7 -2 -6 0 0
1532256362070769 0 -22 -13 -6 -1 -1 1 -2
1532256362108668 0 4 4 1 -1 -1 -1 1
1532256362146567 -2 -5 2 -2 -2 -1 1 1
1532256362176487 -4 -1 -2 -1 -1 1 0 1
1532256362198428 3 8 8 17 9 29 5 2
1532256362221367 -2 -9 -3 -11 -6 13 -3 -2
1532256362243309 1 2 0 3 19 0 5 -1
1532256362258269 -3 1 -1 -1 -5 4 8 -1
1532256362281206 1 -2 -6 -13 -2 19 -8 -1
1532256362296167 2 6 10 7 -30 -55 -4 0
1532256362319105 0 -3 -8 -14 -10 -62 -4 -1
1532256362334082 -1 -4 -1 -4 -9 -8 -5 -3
1532256362356007 -5 -1 4 -5 -1 -13 -8 -2
1532256362400905 0 -4 -3 3 4 -9 -3 1
1532256362430832 -2 -1 -9 -5 -12 28 -1 -2

1532256362460752 -1 -1 -3 10 6 -2 -4 0
1532256362513610 1 2 4 1 -11 -21 -1 -1
1532256362566469 -3 0 -4 -2 -3 -6 0 -2
1532256362641275 0 -3 1 -1 3 5 2 -1
1532256362671195 -1 -2 0 -4 -4 -2 -2 0
1532256362739014 -2 -1 -1 0 5 5 -2 -1
1532256362775915 0 -2 -2 -4 -4 2 -1 -2
1532256362835755 -2 -1 -1 -1 5 -4 -2 -1
1532256362873653 -3 -2 -1 1 3 4 0 -2
1532256362903573 -1 -1 -1 -1 0 -4 2 1
1532256362933500 0 -1 -1 -1 -26 -10 0 0
1532256362986352 -1 0 -1 -1 3 -8 -1 0
1532256363008293 -1 -1 0 -2 -27 -6 1 0
1532256363091072 1 -1 0 -2 18 12 -1 0
1532256363180832 -1 0 0 -1 -4 1 0 0
1532256363218730 1 -1 -2 0 -9 -4 1 0
1532256363248666 1 -3 -3 -5 -33 -3 1 -1
1532256363346389 -1 -1 -3 -5 -6 -23 -4 -2
1532256363421189 -4 -2 0 -2 -13 -23 -1 -2
1532256363489008 -1 0 0 -2 -6 -15 0 -1
1532256363570789 -1 2 -1 1 4 17 1 -2
1532256363623665 1 0 -1 -1 1 1 -2 -1
1532256363736357 -2 -4 -1 -1 0 -10 -2 -1
1532256363819136 -2 -2 -3 -3 -2 -5 3 -2
1532256363878976 -1 -1 4 0 -7 -53 -9 1
1532256363923856 0 4 -7 -3 1 23 15 0
1532256364006650 -2 -1 -3 -2 -3 -2 4 -3
1532256364088416 -1 0 -2 -2 -4 -15 -5 -1
1532256364216075 0 -1 -1 0 -1 -3 -6 0
1532256364283894 5 0 2 -1 -1 -2 -9 2
1532256364328773 -3 0 -1 -1 0 -2 -2 2
1532256364366683 16 1 -1 -2 -1 -2 -5 2
1532256364433499 -2 0 -1 -1 -1 -1 5 -1
1532256364471392 -6 -1 -2 -1 -1 -1 -1 -3
1532256364516271 0 -1 -2 0 -2 -4 -4 1
1532256364546192 -4 1 -3 -2 -2 1 -3 -3
1532256364658891 -1 2 -1 0 -1 8 -5 -3
1532256364725712 0 0 -1 -1 0 -8 -1 -3
1532256364771589 -2 -1 0 0 2 2 1 -1
1532256364823450 -1 -2 -2 -3 6 2 5 0
1532256364944128 -3 -4 -3 -2 14 2 -3 -2
1532256364981029 -1 -1 1 4 9 17 -1 0
1532256365010949 9 0 0 -1 -12 -11 5 6
1532256365048848 1 -5 -2 -4 -6 5 3 11
1532256365063808 3 1 4 7 -3 7 12 -7
1532256365085749 3 -2 -4 -1 5 1 -4 6
1532256365123647 -2 2 1 0 2 7 -2 -5
1532256365153568 -3 1 2 -1 0 -5 7 1
1532256365176506 -7 0 1 1 1 0 10 5
1532256365198448 -8 1 -1 4 -3 -10 13 -4
1532256365221386 12 3 -1 -7 -4 -11 -8 11
1532256365266266 -8 -2 1 11 -11 -13 -3 -2
1532256365341067 6 -5 -6 -3 9 5 21 18
1532256365430826 -53 17 -2 -2 -3 0 -6 -9
1532256365453765 2 -12 -5 -5 0 -12 -11 0
1532256365491676 8 -5 0 -3 -3 5 8 6
1532256365513605 -10 3 2 -3 -2 -4 0 -4
1532256365566464 -14 -2 -4 -4 4 14 3 -2
1532256365633285 5 5 2 4 10 -3 8 3
1532256365678165 -2 -2 -6 -4 6 49 -8 -2
1532256365716064 0 -5 -8 -9 16 13 -29 -8
1532256365753962 0 -2 -1 3 -16 8 -7 -2
1532256365775904 0 -1 2 3 30 -6 17 -3
1532256365790864 0 1 6 25 36 -10 -2 3
1532256365828762 2 -4 -4 -5 -2 14 10 1
1532256365843722 3 0 -3 -6 8 -4 -20 -7
1532256365881624 -2 1 0 3 21 -3 3 0
1532256365896581 -7 -4 -2 -5 -26 -8 -29 -6
1532256365933482 -1 -2 -1 0 1 36 -1 -3
1532256365948442 -2 -3 -4 -8 -13 -32 -15 -5
1532256365979361 -1 -5 -3 -8 -20 20 1 -4
1532256366008282 -2 -4 -1 3 -18 -5 3 -1
1532256366069120 0 -1 -3 -1 0 15 1 -3
1532256366173839 1 0 1 -7 -21 -2 11 1
1532256366211738 0 0 -2 0 -2 -32 8 -1
1532256366271577 -1 -2 -3 -4 8 12 -1 -4
1532256366346378 -1 0 1 0 -1 -2 2 -1
1532256366459076 1 -1 0 -1 4 -16 4 3
1532256366510938 0 3 2 0 -2 -5 12 2
1532256366601714 -1 -1 -1 -3 3 -2 -1 -1
1532256366676496 -6 0 0 -3 -7 -12 -14 -1
1532256366736335 -3 0 0 -2 -4 -34 -5 1
1532256366804153 -7 -1 0 -1 4 6 6 -1
1532256366849034 0 -3 -3 -2 -5 4 -6 -3
1532256366870975 2 0 -1 -11 10 6 -5 -4
1532256366923834 2 5 2 12 -7 28 -18 -1
1532256366953754 5 1 1 8 37 -2 -8 -1
1532256366984672 1 -1 1 -6 -14 -1 6 1
1532256367036532 1 0 0 -2 -14 -23 12 0
1532256367058474 0 3 7 0 -8 12 -5 0
1532256367073434 -1 -3 -3 -6 2 34 -8 -3
1532256367111332 -1 -1 3 -9 -6 4 1 -2
1532256367141266 -1 -3 -8 -5 -9 -6 -3 -1
1532256367186133 -2 -5 6 -1 -3 1 4 1
1532256367253951 -1 -6 -1 -2 -2 35 7 -1
1532256367290853 -2 -4 3 9 -16 6 -3 4
1532256367365653 -4 -2 1 -1 22 25 8 2
1532256367448431 -11 -2 1 -22 -49 -53 -65 -31
1532256367516250 -1 -2 2 6 -36 -17 -18 -2
1532256367554148 -2 -4 -5 -7 6 0 -4 0
1532256367599028 6 2 3 9 12 0 36 13
1532256367658869 0 0 -1 -2 -6 17 11 2
1532256367696768 2 -3 -2 -2 -5 -14 -13 -4
1532256367725690 -25 -2 -1 -1 14 15 9 -2
1532256367756607 -1 -2 -4 3 6 9 3 -1
1532256367816447 5 -1 -6 0 10 16 -2 -2
1532256367846367 -5 -2 -6 0 3 -19 9 -1
1532256367883268 -11 5 1 -1 -14 -10 -3 -7
1532256367951087 -3 -2 0 0 3 6 -3 2
1532256367968050 9 -4 -3 2 16 36 24 2
1532256368025887 0 -2 -4 0 -6 -28 -4 0
1532256368040847 -1 2 -4 -2 -12 -32 -2 0
1532256368085727 10 -1 -1 -3 9 10 -3 -3
1532256368108666 -3 -3 0 -1 -1 0 3 -1
1532256368176484 12 -10 -6 -3 1 -1 1 2
1532256368213385 5 -21 -23 -5 -8 -5 14 6
1532256368251285 0 28 11 -2 -2 15 -4 -3
1532256368298158 -2 16 7 0 0 2 -5 1
1532256368319103 3 -14 -18 -5 -6 -3 1 -2
1532256368341044 1 -9 -1 -4 -5 -3 -2 1
1532256368370964 -2 13 8 -1 -3 -2 -6 -21
1532256368408863 3 -7 2 -4 -3 -1 2 9
1532256368423823 -1 2 -7 -5 -4 -2 -3 -1
1532256368475684 -3 0 1 -3 2 4 -1 0
1532256368513583 -1 1 -3 -5 -22 -32 -14 -3
1532256368543503 -1 4 -5 4 4 1 -12 0
1532256368566441 -2 -3 -5 -4 -6 15 -16 -4
1532256368626282 4 7 17 44 25 -8 12 -8
1532256368648223 11 1 -2 2 9 -6 -8 2
1532256368694100 5 0 -3 0 0 -7 -9 1
1532256368731001 0 -3 -1 -3 20 4 11 1
1532256368760922 -2 -2 -2 -6 -28 -4 -10 -3

1532256368805801 -3 -2 -1 -8 3 22 7 -2
1532256368881598 0 2 3 5 -6 -17 5 1
1532256368896558 1 0 -1 -4 3 2 -3 -2
1532256368933461 -2 -1 -2 -1 -9 -3 6 2
1532256368956399 -2 -1 0 -3 2 2 1 1
1532256369008260 0 0 -3 3 -4 -4 -1 0
1532256369046159 -1 -2 -2 -2 -12 -9 -1 -1
1532256369061119 -1 -3 2 2 5 4 -1 -1
1532256369099017 -1 0 -2 0 4 7 -1 -1
1532256369150879 0 -1 1 2 0 12 -2 0
1532256369226675 0 2 5 3 -2 -6 2 1
1532256369248617 -1 -1 -4 -2 -4 1 -3 -1
1532256369271556 -3 0 1 -2 -1 -2 0 -1
1532256369369212 -1 0 2 2 14 -2 -1 1
1532256369480913 -1 -2 0 -3 0 0 2 0
1532256369510833 0 1 -1 -1 3 4 -1 -2
1532256369563692 0 -1 -2 -1 -4 5 -1 0
1532256369601590 0 0 0 -1 3 -9 -4 -2
1532256369638491 -3 -3 -3 -2 0 -3 -3 0
1532256369653451 2 0 -1 -1 -1 1 -1 -1
1532256369676390 -2 -2 -3 0 -2 -7 -3 0
1532256369713291 -1 -2 -2 -1 -2 -2 -4 -2
1532256369736230 0 0 -2 -4 -3 -2 -1 0
1532256369781110 -1 0 0 -2 0 -4 0 0
1532256369819009 -1 -2 -1 1 -2 -2 -1 -2
1532256369840950 0 1 -1 -2 -1 -1 0 -2
1532256370006507 -2 -2 -2 -1 -1 0 -2 0
1532256370215947 0 -1 -1 -1 1 -1 -1 -1
1532256370433366 0 2 2 0 -3 -14 -5 0
1532256370471264 0 -2 -3 0 -2 -11 0 0
1532256370569003 0 0 -1 -1 -2 -2 -1 0
1532256370598923 1 -1 -2 0 -1 -2 -2 0
1532256370665745 0 -1 -2 -2 -1 -1 -2 1
1532256370816342 -3 -1 -2 0 -4 -1 1 -2
1532256370869211 0 2 -1 2 -2 0 0 0
1532256370921062 -1 -2 0 0 1 -1 -1 -1
1532256370980904 0 1 1 2 0 -2 -1 2
1532256371010822 -1 -1 -2 -2 -2 -1 0 1
1532256371071658 -2 -2 -3 -2 -3 -1 -1 -3
1532256371101580 0 -2 1 -1 2 3 -2 1
1532256371153440 -1 -1 -3 -1 -2 -1 0 0
1532256371221259 2 1 1 2 1 -1 -2 0
1532256371266138 0 -3 -1 -1 -2 -1 1 2
1532256371289077 -1 -2 -2 -2 -3 -2 1 0
1532256371325979 -3 -1 -1 -3 -2 -1 1 -1
1532256371355899 -2 0 1 1 -2 -1 -2 -1
1532256371408758 -2 -2 0 -1 3 19 3 1
1532256371453637 -1 2 -1 -6 -7 -26 -3 0
1532256371468598 0 -1 -1 -2 -16 15 1 0
1532256371543398 -1 -1 3 8 24 -43 5 -1
1532256371581296 -1 1 2 12 -12 25 -2 -2
1532256371596256 -2 -3 -6 -12 9 -4 -2 -2
1532256371664087 3 -1 -4 -4 -6 6 3 14
1532256371686016 -4 -4 0 3 2 -1 -11 -14
1532256371730896 -1 -1 0 0 -8 -15 -23 -6
1532256371783759 -4 1 1 -1 0 4 10 -5
1532256371805696 3 0 -5 0 3 -14 2 1
1532256371888474 -26 -6 -4 1 1 7 8 -7
1532256371956293 -1 9 5 5 0 2 11 0
1532256371978235 -21 1 -2 -3 -14 9 -2 -7
1532256372001179 0 -3 -7 -2 3 3 -8 -5
1532256372054032 0 2 1 0 -6 -9 -1 -1
1532256372098912 -8 6 2 2 -2 0 3 -4
1532256372135813 -2 0 2 9 -1 -5 -11 1
1532256372165733 -10 -4 -7 -7 -2 -9 -14 -4
1532256372196664 -2 1 7 19 15 42 0 6
1532256372211610 5 -1 -2 -4 -1 31 -1 -7
1532256372241531 -3 -4 4 -2 0 -9 2 10
1532256372271451 -2 1 2 0 -38 -18 -3 2
1532256372316344 -7 2 0 -5 3 25 -1 2
1532256372338272 -3 1 -1 -5 -18 -15 -13 -4
1532256372391131 -4 -5 -6 -1 -27 -54 -12 -6
1532256372450978 7 -5 -2 -3 7 10 1 3
1532256372525771 2 0 2 0 -5 -14 4 3
1532256372624506 -2 -3 -4 -1 13 -1 2 0
1532256372668390 14 -2 -4 -5 -7 -22 1 0
1532256372713269 -4 -5 -3 0 -6 9 -2 0
1532256372728229 -2 2 -1 -3 5 13 11 -1
1532256372840939 14 1 -2 1 -5 10 -2 0
1532256372923707 -2 0 -1 -2 25 -3 -6 -1
1532256373051365 1 -6 -4 -8 -5 6 -29 -3
1532256373134144 1 1 -2 -1 4 17 -1 -3
1532256373171045 -2 -5 -3 -6 -1 -23 9 -1
1532256373208944 -2 0 0 1 16 -1 -5 -1
1532256373260804 4 -1 1 6 -9 -13 -5 -5
1532256373328624 3 1 2 4 -20 -4 -3 -1
1532256373426373 -7 1 -2 -4 9 32 6 0
1532256373441322 12 4 1 -1 -20 -27 -2 0
1532256373501164 -2 4 0 -2 9 14 6 0
1532256373539062 -6 -3 -3 5 -15 10 -11 -2
1532256373554020 2 -1 -4 -2 1 11 -3 -2
1532256373575963 0 -7 10 -7 -18 -7 -4 -5
1532256373613861 3 0 -3 -3 11 18 -7 0
1532256373635802 -3 1 -1 -2 14 2 9 0
1532256373703621 0 -4 -4 -4 10 -2 0 2
1532256373756480 4 2 0 -2 -43 -36 4 1
1532256373801376 -2 -3 -8 -7 14 11 -3 1
1532256373876187 -4 -2 -11 -9 -2 -18 -7 -4
1532256373973925 1 -7 1 1 21 17 14 4
1532256374018806 0 4 5 14 29 31 8 2
1532256374071664 0 -3 -4 5 9 1 -2 1
1532256374191345 -4 -4 -8 -5 4 9 -2 -5
1532256374228245 -4 -7 -9 -3 -7 -15 -3 -2
1532256374251184 -5 5 2 -5 14 9 -5 -2
1532256374296064 1 -7 -27 3 -5 -14 -4 -1
1532256374319003 -4 -1 -10 -2 -6 13 -7 -2
1532256374378842 -3 -1 1 -2 -15 11 1 -1
1532256374408763 -1 -1 0 0 0 -20 2 -1
1532256374438683 1 -1 -4 -2 -3 -7 -2 1
1532256374461622 1 -8 -2 -6 -14 -16 -3 -2
1532256374483562 7 -1 -17 -10 -9 -8 4 3
1532256374521461 -6 -24 -17 -13 -18 -18 4 -9
1532256374551381 -4 -5 -6 -9 -9 1 -19 -5
1532256374573323 -3 0 -3 -8 -2 -3 0 1
1532256374588282 -7 -12 -12 -5 0 -4 -7 -12
1532256374634161 -6 -1 -7 -19 -22 0 -7 -8
1532256374649136 -1 2 -4 -2 -8 -1 1 -5
1532256374686021 -2 -1 -2 -6 -7 -4 -2 1
1532256374708960 -2 -4 -4 3 0 -1 1 0
1532256374730901 1 3 6 2 4 -1 -2 -2
1532256374753840 0 5 -2 5 -1 -2 1 1
1532256374775782 0 -4 -2 2 -3 5 -2 1
1532256374798720 -3 -2 -6 -3 -6 -5 -2 -1
1532256374836632 -4 -9 4 -3 -2 -3 2 -1
1532256374873520 0 0 3 0 -12 -7 -5 -7
1532256374918416 -2 -2 -6 -9 -20 -1 0 1
1532256374948320 0 7 6 7 -14 -8 0 0
1532256375039077 -1 2 -1 -5 12 0 -2 0
1532256375068997 0 -1 0 -4 -4 0 -4 -1
1532256375090939 -2 0 -2 -2 -1 0 0 -3
1532256375113877 -4 -3 -2 -4 7 -5 -1 -3

1532256375144795 -1 -1 -4 -6 -13 -4 1 2
1532256375158757 5 8 3 7 13 22 7 1
1532256375188677 0 0 -1 7 1 -3 -1 1
1532256375211616 -1 0 -1 -8 -4 2 -4 -2
1532256375226575 -4 -2 -1 -4 -1 4 2 -2
1532256375241536 -1 0 1 -3 -4 -16 -3 -2
1532256375271459 -2 -3 -2 -1 -8 10 4 1
1532256375301376 1 1 1 -1 -1 1 -1 -1
1532256375330904 -1 -1 -1 -3 -1 -17 -6 -1
1532256375353843 -1 1 12 3 0 6 5 2
1532256375383767 -1 -1 -4 2 -1 10 -2 -2
1532256375398722 2 -1 -1 -1 2 6 -2 0
1532256375421661 -2 -2 -4 -4 -2 0 -1 -4
1532256375466541 -1 -2 -1 0 2 14 -3 -1
1532256375496461 1 -3 -2 0 3 -12 -6 -3
1532256375541341 -2 -1 -1 -1 2 4 -1 0
1532256375563283 -2 -1 0 0 0 -4 -3 -1
1532256375601181 -1 1 -1 1 9 -4 -1 -1
1532256375616142 -1 -1 0 1 2 4 1 -1
1532256375639080 -2 -4 0 -2 -4 -4 -1 -1
1532256375669000 -3 -2 -1 -1 0 -1 -2 0
1532256375705901 -2 1 0 -3 5 -7 -1 -1
1532256375750782 -2 1 -2 0 -3 -6 -1 -1
1532256375765741 -2 -1 -1 -2 -2 -14 -2 -1
1532256375796658 0 -1 0 -2 -3 -1 -1 -1
1532256375833559 0 -1 0 1 -7 3 -2 -2
1532256375871458 -1 -2 -1 0 5 5 2 -2
1532256375893400 0 -1 -1 -2 -15 0 -1 -1
1532256375968205 -1 0 -1 -3 -5 -11 -4 2
1532256375984156 -2 -3 -1 0 6 2 0 -1
1532256376014077 1 0 0 1 3 7 1 1
1532256376043997 0 -1 -2 -1 -7 -18 -5 -1
1532256376065938 -1 -1 -1 0 6 -15 3 0
1532256376095858 1 -1 -2 -1 5 3 -13 0
1532256376110818 -1 -1 -1 -2 0 -12 -11 -4
1532256376133757 -3 -1 -1 -2 -9 -32 -7 0
1532256376148717 -2 0 -1 -2 18 56 16 -1
1532256376163682 -3 -1 -2 -5 4 12 1 -2
1532256376201576 1 0 -1 -1 -3 -11 2 3
1532256376246456 -3 -2 -1 3 15 14 -10 -3
1532256376276376 -3 -3 -3 -2 10 12 0 -2
1532256376306296 -1 -2 -4 -6 -8 -13 -13 -3
1532256376366142 0 -4 -4 -5 -26 -2 -9 -2
1532256376440936 0 -1 -1 0 18 -16 -6 -2
1532256376613474 -1 -1 1 0 -5 -12 -1 0
1532256376643394 0 0 0 -2 -1 -1 -3 -2
1532256376726173 -1 -1 -2 0 1 -1 1 0
1532256376883752 -1 -3 1 -1 -1 1 -2 -1
1532256376906689 -2 -1 -2 -2 -1 -2 1 -2
1532256376966531 0 -1 -1 0 -3 -3 -5 0
1532256376988471 -2 0 0 -3 -6 -3 -6 -1
1532256377003432 -3 0 -1 -1 -1 -1 3 -1
1532256377033351 0 0 -2 0 -1 -2 -2 -1
1532256377056291 -1 -2 -3 -2 -2 1 0 -1
1532256377086210 1 -2 0 0 -2 -1 10 -2
1532256377101172 -1 -2 -1 0 -3 -2 0 0
1532256377139069 0 -2 -1 -2 -2 -1 -2 -2
1532256377183949 -1 -2 -2 -1 -1 -2 -1 0
1532256377205890 -1 -1 0 -1 0 -2 -2 -2
1532256377243788 -1 0 -2 -3 -2 -3 -1 0
1532256377288669 -2 -1 0 0 -1 -2 -2 1
1532256377304626 -1 0 -1 -2 0 -2 -8 -1
1532256377371447 -1 -2 -1 -2 -3 -1 1 -1
1532256377476181 7 -2 -3 -1 0 0 5 2
1532256377506087 -4 1 -2 -1 -1 0 1 -2
1532256377521047 2 -1 -1 0 1 -3 -8 0
1532256377558946 -3 0 -2 -1 0 -1 1 0
1532256377588865 -2 -2 0 -2 -1 -2 -2 0
1532256377640727 -2 -2 -2 -1 -2 0 0 -1
1532256377655688 1 0 0 -2 -1 -2 1 -2
1532256377753426 -1 -1 -1 -2 0 -2 0 -1
1532256377874103 4 5 9 37 29 37 0 2
1532256377925965 -1 1 2 1 -15 -25 3 1
1532256377948904 -1 -3 -7 -8 -6 1 1 1
1532256378000780 0 0 -1 -9 -7 -23 3 4
1532256378023703 -1 -1 0 0 4 -12 -1 -4
1532256378076562 -14 8 -2 -6 -3 -6 -7 -4
1532256378128423 -11 -4 3 0 -26 -4 -33 -13
1532256378219180 11 -2 -2 -1 7 -14 -5 5
1532256378353821 7 -4 -3 -4 1 6 14 5
1532256378796656 1 -3 -7 -8 3 13 6 -1
1532256378811616 0 -3 1 4 -8 -14 4 -3
1532256378871456 0 -2 0 3 0 -41 2 0
1532256378916347 -1 3 1 2 -5 14 30 4
1532256378946256 -1 -2 -1 -5 -20 -38 -6 2
1532256378984154 0 -1 1 1 2 16 -2 -2
1532256379090869 -2 0 0 1 9 7 -2 -3
1532256379186612 -2 -1 -1 0 13 3 2 -3
1532256379216533 1 -2 -2 -1 -3 -11 0 1
1532256379231493 -1 0 1 0 6 5 -2 -1
1532256379276373 -1 0 1 -1 4 7 -2 -1
1532256379306293 -2 -1 0 -2 1 -2 -3 -1
1532256379336213 1 -2 -1 -7 -33 -8 -3 -1
1532256379440933 -1 -2 0 0 0 -10 4 0
1532256379493791 0 0 0 -1 0 -31 -19 -4
1532256379530693 -2 0 -2 0 7 1 -4 -3
1532256379553631 0 1 -1 0 0 20 4 -3
1532256379591530 -5 4 12 1 2 -3 -1 -2
1532256379719189 -4 0 0 -11 -21 -93 -3 -1
1532256379764099 -10 -8 -6 -3 -6 -5 -4 -4
1532256379794019 -19 -4 -1 -5 -2 -18 -53 -7
1532256379815961 0 -1 0 13 6 52 31 2
1532256379830921 0 -5 0 -4 -1 4 7 0
1532256379853858 2 -3 -7 -3 -6 7 5 0
1532256379875801 3 1 6 -2 -3 -9 -1 -2
1532256379921690 -2 -4 1 2 4 12 6 -1
1532256379973539 -2 -1 -4 6 -22 2 -5 -4
1532256379988499 0 1 -2 -6 -12 -3 2 -2
1532256380011437 1 0 0 -5 0 20 5 -1
1532256380048338 -2 -5 -7 -14 0 50 8 0
1532256380086238 1 1 0 2 -8 -3 -8 -3
1532256380124136 -2 -2 2 2 23 7 -1 -2
1532256380146077 -3 0 1 -5 1 11 -7 -6
1532256380183977 -1 -2 -3 -1 6 -10 0 -2
1532256380206915 2 -1 1 0 -20 -1 3 2
1532256380258776 6 6 0 1 3 1 6 2
1532256380296687 -3 -4 -4 -4 0 -5 5 2
1532256380326595 -2 0 -3 -2 -7 -14 7 1
1532256380348536 1 4 2 0 -3 7 -4 -4
1532256380386435 -3 -3 -3 1 26 2 -11 -2
1532256380418352 -6 -7 -9 -7 -32 -17 -10 -8
1532256380438296 -1 0 -5 0 4 6 5 -1
1532256380491155 2 2 -1 3 -1 1 -7 0
1532256380514093 1 -5 -3 -2 -9 -12 -5 1
1532256380573934 0 0 1 -2 -3 1 -1 -1
1532256380588893 -3 2 -4 0 -2 -19 -7 -4
1532256380678654 3 -2 3 -1 8 -2 0 2
1532256380716552 -3 -2 -2 1 7 28 3 2
1532256380798334 -2 -1 -8 0 -10 -12 5 1
1532256380843213 -1 -3 0 3 10 4 -5 -3
1532256380881111 0 -4 -3 0 0 15 -1 0
1532256380919011 1 2 16 3 -2 3 2 0
1532256380940952 1 -17 -9 -10 -13 -14 -4 -4
1532256380993811 -12 -35 -6 -4 -6 -11 -4 -9
1532256381008771 4 -11 -3 -2 -2 2 0 10
1532256381030712 4 -18 -1 -3 -6 -5 -3 6
1532256381068611 -16 -1 -10 -6 -5 -3 -4 -25
1532256381091550 -9 -1 1 0 -3 -1 1 8
1532256381128450 3 -4 -6 -6 -3 -1 -6 -6
1532256381158371 -9 -12 3 -1 -2 -2 -4 -19
1532256381196270 4 -4 7 -10 -4 -1 0 9
1532256381264088 1 -2 -5 1 17 49 -2 1
1532256381308967 -2 -8 -5 -6 3 52 -5 1
1532256381330909 -4 -10 1 12 13 12 -10 -4
1532256381360829 -7 -8 5 -5 21 -14 11 -4
1532256381398728 -1 5 5 1 -7 -13 -2 -1
1532256381421667 -1 0 -4 4 -3 -5 1 1
1532256381436627 -8 -5 -3 -1 -4 0 -9 -4
1532256381458568 -2 -2 -2 -3 -5 -10 -2 -1
1532256381481506 1 0 -8 -3 -2 -1 4 1
1532256381503448 -4 -5 -2 -2 3 15 -2 -1
1532256381533368 0 -2 0 1 -3 -14 3 -1
1532256381586252 1 -3 1 -2 -6 -13 -1 -1

1532256381616171 1 -4 -1 4 2 4 1 -1
1532256381646091 1 -3 2 0 23 38 -1 0
1532256381669030 2 3 4 2 -1 -31 0 1
1532256381683997 -4 -5 -8 -4 -1 21 -2 -4
1532256381720891 -1 -1 2 -1 7 -13 -4 0
1532256381743830 0 -1 0 1 2 12 2 1
1532256381773750 -2 -1 -3 -5 -10 -15 -12 -3
1532256381795692 -2 -1 -1 1 -8 -7 -12 -2
1532256381833590 2 0 -2 0 2 -2 18 4
1532256381848550 -2 -3 -4 -3 1 9 2 -2
1532256381901409 -1 -1 -8 1 -3 -21 -18 -2
1532256381938310 -3 0 -1 -2 -4 -21 -21 -5
1532256381961248 -3 -2 -1 -1 0 4 -1 1
1532256381976209 -2 -2 -1 -2 -2 -4 3 -4
1532256381999147 0 0 -2 -3 -2 -2 2 0
1532256382036049 -3 0 -2 -1 -2 -9 -6 -3
1532256382073948 -1 -1 -1 0 -1 -1 -2 0
1532256382103915 -1 -1 -1 0 2 11 7 3
1532256382118874 -2 -1 -1 -2 -3 -16 -12 -3
1532256382148794 0 -1 -3 -3 -1 0 -4 -1
1532256382186694 -3 0 -1 -1 1 3 7 2
1532256382223595 0 -2 -1 -1 0 2 0 -1
1532256382253515 0 0 -2 -1 0 -6 -4 -2
1532256382268475 -2 -1 -1 -2 -1 7 -1 -1
1532256382306374 1 -1 0 -2 0 1 2 0
1532256382328315 -3 -1 -1 0 -2 -4 -4 -3
1532256382358235 -2 -1 -2 -1 -1 1 4 0
1532256382374208 -3 -1 -3 0 -1 -1 -6 -2
1532256382389152 -1 0 0 -1 0 -5 -6 -1
1532256382426053 1 -2 -1 -1 -1 -1 3 -2
1532256382441014 -1 1 1 -1 -2 -1 -3 0
1532256382470933 -1 -3 -1 -1 -1 -3 -3 0
1532256382485893 -3 -1 -3 -1 0 -5 -6 -1
1532256382508832 -4 1 -2 -1 0 -2 0 -2
1532256382530773 -2 -2 0 -2 -1 1 -4 -1
1532256382545733 -1 -2 -2 -1 -3 -1 -5 -4
1532256382576651 0 -1 -1 -2 0 -1 2 -2
1532256382636490 -1 -2 -3 -1 -2 -1 2 0
1532256382741211 1 0 -1 -1 -2 -1 0 0
1532256382823989 -1 -1 -1 -1 -1 1 -4 -3
1532256382936688 4 0 -1 -1 -2 -2 -1 5
1532256382981568 -8 0 -1 -2 1 -1 1 -5
1532256383041408 0 -8 -1 -1 -2 0 0 4
1532256383109233 -1 -12 -4 -2 0 -5 -2 -13
1532256383131167 -7 -39 -4 0 0 1 8 7
1532256383184027 -2 3 0 1 1 -2 -2 -7
1532256383205968 -1 -2 -2 -2 0 -1 -1 -3
1532256383228907 -22 5 0 -2 -1 -1 0 -2
1532256383250866 -9 -1 -1 -1 -1 0 1 1
1532256383288746 -10 2 -2 -2 0 1 1 -3
1532256383303707 -2 0 -1 -1 -2 2 9 -2
1532256383326645 -7 -3 -2 0 -1 -2 -2 -3
1532256383356565 -5 -2 -1 0 1 0 4 -4
1532256383371525 -12 -3 -2 -2 -2 -3 -4 -13
1532256383408427 18 -7 -3 0 -2 -3 -13 -7
1532256383461285 -3 2 -2 1 0 -2 0 4
1532256383514144 -2 -1 0 0 0 1 5 1
1532256383573983 -10 -1 0 -1 -1 -2 4 -2
1532256383603904 14 1 0 0 -1 1 1 17
1532256383663744 2 2 0 0 0 0 5 3
1532256383738544 7 -1 -2 -1 -2 -2 -1 2
1532256383768472 9 -3 -1 -1 0 0 2 -4
1532256383798384 12 2 1 0 1 0 4 1
1532256383821322 -12 -2 0 -1 -1 0 -5 -4
1532256383843264 4 -1 0 0 1 -3 -1 4
1532256383858224 -19 -2 -1 -1 -1 -1 -3 1
1532256383896122 5 0 1 -2 -2 -1 -2 3
1532256383926042 5 -1 0 -3 -1 -1 4 5
1532256383955962 -11 1 -2 -2 0 -2 -1 -5
1532256383970923 19 0 0 1 0 2 2 2
1532256384000855 -5 -2 -1 -1 -2 -2 -1 -1
1532256384023781 2 0 -2 -2 1 4 0 9
1532256384053701 -4 3 0 2 -1 -2 3 9
1532256384076639 -15 -1 0 0 -2 -5 -1 7
1532256384114539 -1 -2 1 -1 -2 3 -3 0
1532256384158421 0 -2 -1 0 0 7 -3 -1
1532256384211279 -2 5 1 -2 -2 5 -9 0
1532256384249191 1 0 4 19 18 -36 -5 -1
1532256384271119 1 -2 1 -2 4 6 -11 1
1532256384294058 -1 -1 -5 -5 2 10 7 0
1532256384330960 -2 -1 0 -1 1 -2 -1 -4
1532256384345920 -2 2 2 0 13 -7 5 1
1532256384405759 0 -1 1 1 -2 0 11 4
1532256384458617 -2 -1 0 0 -8 -7 -18 -10
1532256384496517 1 -2 -2 -4 -2 -7 -3 -10
1532256384616197 -13 1 2 11 -6 4 1 5
1532256384713936 4 -1 0 -2 -16 4 -14 -5
1532256384765797 -3 -1 -1 1 20 7 18 -8
1532256384795717 2 3 3 9 -2 -2 38 2
1532256384826633 10 -1 -5 -5 -6 -1 18 0
1532256384863535 -11 -3 -2 1 21 2 0 0
1532256384968261 -3 1 1 2 29 6 -35 -6
1532256384999172 -11 2 3 0 17 16 1 -5
1532256385044053 -6 -2 0 6 9 -15 29 1
1532256385140794 0 -4 -5 3 41 28 -2 -1
1532256385404090 11 2 1 -1 -27 -5 3 4
1532256385440991 0 1 4 8 13 -7 0 -1
1532256385515791 -2 -1 -2 2 11 18 -11 -2
1532256385576629 -1 -1 -3 0 -4 -23 7 1
1532256385658409 -2 -2 -1 -4 -6 4 6 0
1532256385748170 -1 0 -1 -8 -11 1 1 1
1532256385809007 1 -15 -2 -1 -7 17 13 0
1532256385905749 -26 -9 -10 -3 -8 -46 -9 -2
1532256385951626 6 -4 0 2 2 30 2 0
1532256386063327 0 -4 1 -4 -37 -19 -6 -1
1532256386116186 -3 -4 3 -8 2 31 -3 -6
1532256386161066 -9 -4 -31 -2 -7 -15 -2 -2
1532256386198964 -4 -1 4 0 -12 -39 -2 0
1532256386220906 -1 1 2 1 -9 -21 -2 -1
1532256386273764 0 2 10 0 1 29 16 1
1532256386378485 15 -1 -11 -8 -4 -17 0 0
1532256386401423 3 -4 -5 3 7 -2 23 -1
1532256386431342 -1 2 -3 -2 19 8 1 1
1532256386446303 -5 -1 -2 -3 -2 -35 -10 -8
1532256386476223 0 1 1 0 8 8 4 0
1532256386514122 -4 1 0 9 24 32 -3 -5
1532256386559999 -3 -4 -6 -10 -13 0 -12 -6
1532256386610863 -4 -2 -1 -4 -8 4 -5 -2
1532256386634799 1 2 1 8 -2 0 17 5
1532256386663722 0 -2 0 -2 -11 3 16 8
1532256386686661 -1 -3 -2 -1 5 3 0 -3
1532256386731540 -1 -6 -6 -2 10 28 18 3
1532256386768442 0 -1 -4 6 2 0 14 2
1532256386799359 1 3 4 1 5 9 5 -2
1532256386828281 -3 -2 -10 0 -18 -35 -6 0
1532256386859199 -1 -1 -6 1 24 9 6 -1
1532256386904078 -1 -2 -7 -23 1 37 3 -1
1532256387015780 1 4 6 2 -4 39 2 1
1532256387083599 -1 1 1 -5 -17 -64 4 0
1532256387143439 2 0 -2 -12 -3 5 -15 2
1532256387338915 -25 -48 -33 -39 -1 7 4 -2
1532256387436655 -10 -10 -5 7 1 5 -6 -5
1532256387503476 -10 -17 -4 -8 -6 -8 -6 -10
1532256387541375 0 -4 1 4 5 -1 0 0
1532256387571295 0 -3 -1 2 -2 2 -2 -1
1532256387586254 -3 -5 3 -7 -23 0 8 0
1532256387616175 2 2 -1 -12 5 59 8 2
1532256387631135 1 -1 -1 3 -4 5 -15 2
1532256387661055 0 -2 -6 2 -5 -78 -32 -5
1532256387690983 3 -1 2 10 34 -8 13 2
1532256387728873 -4 -1 7 -3 -23 -38 -25 -5
1532256387765775 -2 -7 -4 0 -10 -30 -21 -5
1532256387803673 -4 -10 -15 -10 11 51 42 3
1532256387841572 0 1 -8 -8 -7 -9 4 1
1532256387901412 -3 -1 0 -1 -5 0 -4 -4
1532256387931332 0 -2 2 4 1 4 3 -1

1532256388014111 -1 -1 -2 -3 -3 7 -1 -3
1532256388080931 0 -1 0 1 1 10 -1 -1
1532256388125812 -1 -1 -2 -1 -1 -2 1 0
1532256388156729 -1 -2 -1 -2 6 16 -5 -1
1532256388187647 -1 0 -2 -2 -2 -2 2 -2
1532256388201609 -3 0 -2 -2 -2 5 -2 -2
1532256388223550 -2 -3 -2 -1 -1 -4 -2 0
1532256388253470 -1 -2 0 -2 -3 -2 -1 -1
1532256388291369 0 2 -3 0 -1 -2 -1 2
1532256388321289 -2 -2 0 0 -2 -1 3 -2
1532256388351209 -1 -1 0 -2 1 -1 0 0
1532256388374148 -1 1 0 0 -1 -2 -2 1
1532256388389107 3 2 0 -3 -2 0 2 -1
1532256388404068 -1 -1 -1 1 1 -1 0 1
1532256388440969 -2 -2 0 -2 -2 0 -4 0
1532256388470889 -3 -2 -1 0 -1 0 -3 0
1532256388493828 -1 -1 -2 -2 -2 -3 -5 1
1532256388561646 -1 -2 -1 0 -1 -1 -1 -1
1532256388606527 0 1 1 -1 -1 -1 1 0
1532256388636452 0 0 -1 -2 -1 -2 -4 -2
1532256388658393 0 -1 -1 -1 -2 0 -2 -2
1532256388681332 -3 -4 0 -1 -2 -1 -1 -4
1532256388696292 -4 -24 -3 0 0 0 -1 0
1532256388711251 -3 -10 -1 -2 1 1 0 -2
1532256388749150 0 8 1 -1 -1 -2 0 0
1532256388764111 -2 -7 -1 -1 1 0 1 0
1532256388802009 -1 3 0 0 0 -1 -3 -1
1532256388823951 0 -2 -1 0 -1 -1 -2 -1
1532256388853871 0 0 -2 -2 -2 -2 0 -1
1532256388883792 -1 1 0 -1 -2 -3 -1 1
1532256388928671 -1 0 -1 -2 -1 0 -1 1
1532256388951609 -3 -1 -1 -2 -1 0 0 -1
1532256388973550 0 2 -1 -2 -1 -2 -2 -1
1532256388988511 0 0 0 -1 -2 -1 -2 0
1532256389041369 1 0 -1 -1 1 -1 0 1
1532256389101224 -3 0 -2 0 -1 0 0 -1
1532256389146089 1 -2 -2 0 0 1 2 -2
1532256389243828 -1 1 0 -2 -2 -1 -1 -2
1532256389521086 -1 -1 0 -1 -2 -1 -4 -1
1532256389588905 3 12 0 -3 -1 0 -1 1
1532256389656724 -2 -1 -1 -1 -1 -2 -2 -3
1532256389678665 -1 1 -2 0 0 -2 -3 -1
1532256389708585 -3 -1 -1 -1 -2 0 -2 -1
1532256389731524 -4 1 -3 1 -2 -2 -1 -3
1532256389768425 0 0 -1 -2 0 -2 -2 0
1532256389798346 -1 0 -2 -3 -1 -1 -3 1
1532256389836244 0 0 0 -1 0 -3 -1 -3
1532256389851204 0 -4 -2 -1 0 -1 -6 -2
1532256389896084 0 0 -1 0 -2 -1 -1 -1
1532256389911044 -1 -1 -1 0 -3 -4 -7 -1
1532256389993822 -1 -2 -4 -2 -2 1 0 1
1532256390047678 -1 -1 -2 0 0 0 0 -1
1532256390076601 -2 -1 -1 -2 -3 -2 2 1
1532256390113503 -1 0 0 1 0 -2 -5 -3
1532256390136441 1 0 -2 -1 -1 -2 0 -2
1532256390158382 -1 0 0 -2 -1 0 -1 -2
1532256390188302 -3 -2 0 0 1 -1 3 0
1532256390203262 -2 -2 0 1 -1 -1 -1 -2
1532256390234180 -2 -1 -1 -1 1 -2 -4 -2
1532256390249139 -1 -1 -3 0 -2 -1 0 1
1532256390294019 -1 -2 -1 -2 0 -3 -8 1
1532256390338899 1 1 -1 0 0 -1 -1 1
1532256390383780 0 -2 -1 -1 -2 -1 -4 1
1532256390413699 -3 -1 -1 1 -2 1 -2 -1
1532256390443620 -2 -2 0 -1 -1 -4 -5 0
1532256390458580 1 -2 -2 -2 -1 -2 -1 1
1532256390496478 -2 -1 -1 -1 0 0 0 -1
1532256390511438 0 0 0 0 -1 -2 -1 2
1532256390533379 0 -1 -2 0 -1 -2 -1 0
1532256390556318 -2 -2 -1 -2 -2 -1 1 -2
1532256390571278 0 -1 -1 0 -1 -2 -2 -1
1532256390609177 1 0 -2 0 -3 1 -2 -1
1532256390631118 -2 -2 -1 0 4 2 8 0
1532256390654057 1 -1 0 0 -1 -1 -3 0
1532256390683978 0 -2 -1 -1 -2 -6 -1 0
1532256390713897 0 1 1 -2 1 -1 7 1
1532256390730852 -2 -3 1 -1 -7 -7 -1 0
1532256390780718 -2 -4 -5 -10 -1 -11 -6 -2
1532256390833577 -5 -4 -4 1 -2 -11 -6 -4
1532256390856516 0 0 -3 -6 10 20 -1 -1
1532256390953257 -4 -3 -1 0 6 7 2 -23
1532256390968231 21 -4 0 -3 -20 2 9 19
1532256391021075 15 7 1 0 0 3 13 2
1532256391186633 7 -2 -1 -1 -5 1 -6 2
1532256391208574 12 -3 -4 -6 -19 -13 13 2
1532256391298333 0 2 4 0 6 -9 2 3
1532256391374131 -3 -1 0 1 10 14 -5 -4
1532256391433975 -9 1 0 4 2 5 9 0
1532256391538691 -1 -2 -3 -6 0 32 30 2
1532256391583572 -3 -4 -4 -7 -1 21 -9 1
1532256391621470 -5 -3 -3 -12 -25 -8 -24 -5
1532256391636430 -1 -1 0 4 22 -9 -2 0
1532256391688291 11 -1 2 -3 1 -1 -11 -1
1532256391838888 -2 0 1 5 -1 -13 6 1
1532256391853848 -3 1 -2 -4 -3 9 -4 -3
1532256391875790 -2 2 -3 -3 0 -9 5 1
1532256391913688 -4 -1 -4 -6 -28 -34 3 -1
1532256391943609 -2 -2 -1 2 5 16 7 0
1532256391958569 6 0 1 -1 0 4 -7 1
1532256392018408 -6 0 -2 -4 -4 11 6 0
1532256392048328 -16 -6 -2 2 2 0 -7 2
1532256392095203 4 7 0 -1 -3 -14 3 -3
1532256392131107 3 3 0 0 -8 8 3 3
1532256392146076 -10 -3 -4 -7 -7 -2 -5 -2
1532256392183984 3 1 -2 -5 8 4 -17 0
1532256392205907 4 3 1 6 15 10 2 2
1532256392258765 -2 -2 -4 -4 -2 -3 1 -2
1532256392296664 4 -1 -2 -1 -6 3 3 0
1532256392341544 0 0 -1 -4 -20 -34 -4 -1
1532256392431312 3 1 0 0 11 16 14 2
1532256392686622 -2 2 0 -1 25 7 -1 -4
1532256392746461 -11 3 1 -5 -36 -35 -3 -2
1532256392813283 -4 -7 -10 -2 -18 0 8 -1
1532256392859160 -3 -1 6 4 44 2 5 0
1532256392904040 3 11 19 8 6 3 -4 0
1532256392963880 -1 -4 -9 -2 -6 -15 -1 -2
1532256393000792 -1 -2 -3 -8 -7 -15 -1 0
1532256393015741 -3 2 -7 -2 11 -3 2 -2
1532256393053640 0 0 -4 -8 -22 7 -7 -1
1532256393098520 -1 -27 -12 0 -6 3 3 1
1532256393166339 -1 -2 -14 -13 -11 2 13 3
1532256393203240 -3 -1 -3 2 -1 7 -4 -1
1532256393234157 1 2 7 2 14 20 6 -2
1532256393293997 -1 1 7 10 4 6 -17 -6
1532256393375779 -1 -1 8 -2 -10 3 3 0
1532256393481496 -3 1 -5 -5 -6 6 -1 -2
1532256393616135 -2 13 0 2 0 20 15 1
1532256393668995 0 -1 -13 -6 -4 -35 7 2
1532256393705895 1 4 -18 -5 2 42 -1 -1
1532256393743794 1 -3 -3 -2 3 -7 7 0
1532256393803635 2 4 -1 -6 -21 14 -1 0
1532256393908355 5 16 13 2 -1 -3 1 1
1532256393931292 -1 18 4 0 -2 -4 -6 -1
1532256393953234 2 -1 -1 0 -2 -1 -4 -1
1532256393991133 -6 -46 -18 1 -3 -2 -3 -13
1532256394006093 -3 14 -5 -10 -2 -2 -1 0
1532256394036013 5 8 19 23 9 4 -5 -4
1532256394050973 -3 20 12 -20 -6 -2 4 -7
1532256394065933 -4 9 1 1 -2 -1 -5 -5
1532256394095853 0 4 -3 4 -2 -2 4 2
1532256394125773 0 -1 -2 6 -1 7 1 0
1532256394148712 -2 -7 -9 -4 2 6 -1 -1
1532256394171651 2 1 0 11 11 11 1 1
1532256394186610 -1 -1 0 6 15 20 -4 1
1532256394201570 1 -2 -2 2 -18 70 -9 -2
1532256394276370 -1 -2 10 -2 -12 -80 -4 -1
1532256394298312 1 4 3 10 32 19 7 1
1532256394344188 -3 -2 -5 -2 -9 -13 2 -1
1532256394366130 1 -5 -11 -1 4 4 3 2
1532256394425970 1 0 4 1 4 2 1 1
1532256394440930 0 1 1 -1 -5 -7 0 0
1532256394455890 -2 -1 -3 0 7 2 -2 1

1532256394515730 0 1 -2 2 7 -7 2 3
1532256394576568 -2 -9 -6 -1 -4 7 -3 -2
1532256394613469 -1 -2 -10 10 7 4 2 7
1532256394688269 -3 -5 -8 -7 -11 -1 -11 -11
1532256394741127 0 5 7 8 1 -6 -13 -4
1532256394861153 -6 -1 4 4 2 11 -1 -5
1532256394958892 -1 -2 -7 -14 -14 30 12 5
1532256395010752 1 21 21 5 5 -9 -6 0
1532256395056630 -1 2 5 -1 2 22 7 1
1532256395093532 2 9 10 -10 -17 -34 0 3
1532256395138411 -3 -8 -12 -5 0 2 -1 -2
1532256395168332 -2 -8 -1 1 -9 -21 4 0
1532256395236150 -4 1 -3 10 4 3 -1 -2
1532256395259089 -1 9 12 11 5 1 -4 -9
1532256395355830 3 -4 -11 -8 -5 -2 -4 -6
1532256395370790 -7 -7 -2 -2 -17 -2 -1 -3
1532256395423649 -1 2 -2 1 -8 3 3 4
1532256395536348 -4 -14 -10 -5 5 5 -7 -7
1532256395634086 2 -1 -2 -4 -14 -2 9 0
1532256395700909 -3 -3 -1 -5 0 -3 -6 -4
1532256395760754 -8 4 -5 -5 -7 -12 -1 1
1532256395866471 -4 7 -5 12 -2 -9 -1 -3
1532256395956231 -27 -22 -26 -6 -4 2 -5 12
1532256395971191 8 -3 -6 -3 -4 -6 -14 -3
1532256396016070 23 10 35 12 12 8 -6 -4
1532256396083441 -9 -3 22 -2 -6 -8 -6 -1
1532256396106379 5 7 7 -1 -1 -4 -2 -8
1532256396121339 -11 5 23 -1 -2 1 -2 -3
1532256396143281 -2 -6 7 -2 -3 -10 -7 6
1532256396158241 4 2 -11 -3 0 4 6 4
1532256396189168 -4 2 -5 -8 -18 -54 -13 0
1532256396226059 -11 4 -2 1 3 78 0 -4
1532256396278918 5 4 1 19 41 14 1 -3
1532256396300859 -4 -3 -3 -7 -20 -4 2 -3
1532256396338757 8 -1 4 1 -6 3 -14 -3
1532256396360699 -7 -9 6 -6 2 -1 1 1
1532256396391617 2 -3 -11 -4 1 -39 -3 -1
1532256396428517 7 -5 -10 -1 -7 27 -26 2
1532256396586097 -4 -3 -5 -7 -29 30 -4 -4
1532256396743676 3 15 29 2 10 -20 4 1
1532256397291268 -9 6 2 4 26 88 3 -4
1532256397351108 -18 -2 5 2 4 -25 -12 8
1532256397576505 -3 -1 -2 -2 -1 -1 -5 -3
1532256397598453 10 -1 0 -1 1 -2 -4 -17
1532256397613407 -6 -3 -2 -1 -1 -3 5 -3
1532256397785945 -1 9 2 0 3 -33 -2 -4
1532256397823844 3 2 1 17 6 -20 3 1
1532256397906622 2 0 3 -1 -10 -5 -5 2
1532256397928563 -1 2 -3 1 -2 -3 -6 0
1532256397958484 0 4 6 7 10 -36 2 1
1532256398071182 0 -1 -4 -2 0 -1 -1 0
1532256398086142 -1 -2 -1 -2 -1 0 -3 0
1532256398124041 -1 -2 0 3 -2 -9 -1 0
1532256398168921 -2 -1 -2 0 1 5 -4 -1
1532256398183894 -5 -1 0 1 0 -6 -1 -4
1532256398251699 0 0 -2 -2 -1 1 1 -1
1532256398296591 0 -1 -2 0 0 6 1 2
1532256398326507 1 -1 -1 -3 -2 -6 -6 -2
1532256398348442 0 -1 -2 -2 0 0 -1 1
1532256398386341 -1 -1 0 0 -1 0 4 -1
1532256398401301 -1 0 -1 0 -2 1 0 -1
1532256398416261 -3 -1 -1 -2 -2 -6 -8 -2
1532256398439202 -1 -1 -2 -1 -1 -3 4 -1
1532256398454159 0 0 1 0 0 3 2 2
1532256398491060 -2 -2 -1 -1 0 -1 -1 -3
1532256398558878 -1 0 0 0 -1 0 1 0
1532256398610747 -2 0 0 -3 -1 -2 -1 -1
1532256398626697 1 -1 0 -1 0 0 -2 0
1532256398701498 0 -4 -1 -1 0 -2 -4 -1
1532256398783278 -3 -1 -2 -3 -2 0 -1 -1
1532256398836136 1 -1 -1 -4 -2 -3 -5 0
1532256398866056 2 -3 0 -2 -5 1 3 3
1532256398881016 -2 -2 0 0 0 -5 -1 -1
1532256398925897 -1 -2 -1 -1 1 -2 2 0
1532256398940856 20 -1 -2 -1 1 -2 -2 0
1532256398970776 -9 0 -1 -1 0 1 -3 -1
1532256398985746 0 1 0 -1 0 2 11 -3
1532256399031615 -3 -2 -1 -2 -2 -1 -5 0
1532256399091455 -5 -1 1 0 -2 -1 -2 -1
1532256399128355 7 -1 1 -1 -1 2 -4 0
1532256399151295 -9 -1 -2 -1 -1 -2 0 2
1532256399249033 -2 -1 -1 -1 -1 1 0 -1
1532256399270975 -2 -2 0 -1 1 1 1 -1
1532256399285935 -2 -1 -1 -1 -1 0 -2 -1
1532256399376692 -1 0 1 -3 -8 -38 -2 -1
1532256399391652 0 -1 -3 1 8 35 1 -3
1532256399421573 0 -3 -2 -9 0 9 1 1
1532256399451497 -5 -2 -3 -7 5 12 -6 -2
1532256399481412 0 0 1 1 -25 -9 0 1
1532256399511332 -2 0 -2 -4 -5 1 -9 -16
1532256399533273 0 -1 1 0 -8 8 3 2
1532256399556217 1 -2 -4 -1 -5 3 3 5
1532256399586132 -1 -3 -4 -1 1 8 -5 6
1532256399660932 -2 -3 -3 -1 -7 14 -2 -1
1532256399736728 7 -1 -2 1 3 -16 6 3
1532256399833471 -3 -1 2 -1 -6 -24 -14 -2
1532256399939194 3 2 -1 -1 0 4 -12 -7
1532256400088788 -17 -1 -2 0 -1 -7 2 -2
1532256400238387 -3 1 0 -6 -13 -6 11 -1
1532256400440847 -3 -1 -2 -4 8 0 3 -3
1532256400478745 0 0 2 2 18 24 13 -1
1532256400531604 1 -4 -5 -6 8 49 23 1
1532256400628345 2 -1 -3 -4 22 33 8 4
1532256400666243 -6 -1 -3 -1 -1 9 -5 -2
1532256400681203 -1 -1 0 -5 -5 1 -4 -3
1532256400734061 0 -3 -4 0 -7 12 1 0
1532256400785924 0 -4 -1 -2 -1 -5 -4 -1
1532256400830819 1 1 1 6 1 -18 -1 0
1532256400868702 -2 -1 -1 5 25 -4 1 -1
1532256400921560 1 -3 -3 -9 -8 -8 -1 -1
1532256400973422 0 -2 -3 1 4 8 8 -1
1532256401034260 -2 -1 -3 -2 4 28 5 -2
1532256401124020 3 0 -2 0 3 4 1 2
1532256401175881 0 -1 1 -6 -14 -23 -5 -2
1532256401190841 -1 0 -1 5 4 -15 -1 -1
1532256401220763 2 -1 2 0 7 50 1 0
1532256401243699 -1 0 5 6 -31 6 4 -2
1532256401258659 -4 -3 -3 -3 20 64 6 3
1532256401288593 -2 -4 0 2 8 -40 -8 0
1532256401311517 0 -5 -6 2 2 19 10 0
1532256401348419 -6 -1 1 1 4 -9 -11 -3
1532256401386317 -5 1 -2 -4 -7 -4 -5 -3
1532256401408259 -1 1 -4 2 21 25 12 -3
1532256401446157 -15 -20 -12 -1 2 5 13 0
1532256401461117 2 5 -2 -2 -12 -23 -9 -2
1532256401484056 -2 -5 -5 -5 -4 -43 -4 -3
1532256401505997 -5 -3 -7 -7 -17 -25 5 0
1532256401520957 1 10 11 21 16 -6 2 -2
1532256401588776 -3 -3 2 0 0 17 -2 -2
1532256401610717 -2 0 1 -6 -2 0 -14 -4
1532256401626674 1 -3 -5 -1 19 -14 1 0
1532256401671555 -1 -3 -7 -6 0 -8 -2 0
1532256401693496 -1 0 -1 3 20 51 0 -3
1532256401723416 0 3 5 5 24 8 2 0
1532256401746363 0 1 -3 -11 12 -20 3 2
1532256401768296 -3 -2 -11 -13 -7 -10 2 -3
1532256401806194 -3 5 -3 -4 15 9 -3 -3
1532256401844094 0 0 6 7 21 27 -4 -1
1532256401866035 0 0 2 4 18 2 -7 1
1532256401888973 -4 -2 0 -4 -21 -9 -1 -3
1532256401925874 -1 -3 -1 -4 -26 -42 1 2
1532256401970754 -1 -5 -15 0 -10 -36 -7 -3
1532256401993693 -2 -1 1 -8 -14 7 12 2
1532256402008653 0 1 10 5 29 17 3 0
1532256402053533 3 -3 -6 -3 -47 -26 -5 -1
1532256402091432 -19 13 11 -4 16 41 -12 -2
1532256402128333 1 -5 -2 4 -23 -27 -4 0
1532256402249010 -11 -5 3 -3 -5 16 -10 -2
1532256402330791 -2 -7 25 0 -11 -48 -7 -1
1532256402503330 11 4 -9 0 0 1 2 2
1532256402609048 0 4 13 2 2 2 0 3
1532256402645948 3 -10 -4 1 0 1 -6 -2
1532256402720749 3 0 1 1 -2 -4 -2 -2
1532256402751666 2 -2 -4 -1 0 38 -9 -1
1532256402788568 -2 3 -1 2 0 -32 -2 -2
1532256402826466 0 -6 0 0 -10 16 0 0
1532256402863368 -1 -3 -10 -8 9 54 0 0
1532256402916238 2 0 2 -1 -1 2 -4 -2
1532256402954125 0 4 8 4 5 -13 -3 0
1532256403058844 -4 -2 -5 1 1 -16 -4 -2
1532256403073805 -1 -4 -2 -1 4 25 3 2
1532256403095746 4 0 -9 -3 -5 -20 -6 0
1532256403118685 -3 7 4 2 4 11 1 -1

1532256403141623 0 -1 -2 -3 4 7 -1 -2
1532256403193485 4 4 -1 -1 0 -10 0 1
1532256403216439 4 10 4 0 6 7 3 -1
1532256403231383 -1 -5 -11 8 51 16 6 -1
1532256403284258 2 13 5 -6 -13 -20 -3 -1
1532256403329137 -1 -8 3 -1 23 6 6 -2
1532256403403937 -1 -2 8 4 0 -5 0 -1
1532256403425879 -1 -2 -4 -6 14 0 3 0
1532256403455799 -1 -1 -1 -3 -2 -14 -5 -3
1532256403471756 0 -2 -2 -1 -1 -13 -1 -1
1532256403516636 -3 -2 0 -1 -2 0 -7 -2
1532256403576476 -2 -2 -1 3 -3 -3 -2 1
1532256403651275 1 -2 -2 -4 -2 30 2 -4
1532256403719095 1 -1 -3 -1 -5 4 7 2
1532256403749014 -1 -5 -9 3 -6 -8 -20 -4
1532256403778934 1 -1 -5 -6 2 -1 10 -2
1532256403830795 1 -5 -3 -7 0 25 -8 -1
1532256403845756 1 2 12 8 16 23 23 0
1532256403973414 -2 -4 -6 -2 -6 -17 0 1
1532256404026273 -1 -2 1 -1 -5 -6 -1 -1
1532256404160913 -5 0 -1 1 -4 -7 1 -1
1532256404198811 -13 0 -1 0 0 1 2 -3
1532256404251670 1 -4 -2 1 -1 -1 3 0
1532256404288572 -2 0 -2 -2 -1 1 -4 -1
1532256404439169 3 -2 -3 -3 -2 0 4 2
1532256404469149 -2 -1 -2 0 1 0 -1 0
1532256404648666 0 0 -2 -2 -6 -42 -1 -2
1532256404693546 1 -5 2 -2 1 11 3 2
1532256404716484 -26 -2 -3 -6 -3 -25 -5 -3
1532256404731445 4 3 -3 4 2 18 4 2
1532256404769344 6 -1 3 -2 -1 33 2 -1
1532256404783306 0 -6 6 2 7 42 -1 -2
1532256404806257 5 2 -9 -1 13 -1 -2 0
1532256404844143 -2 -1 -2 -2 -4 -8 0 0
1532256404918943 0 -2 -2 0 -5 -5 4 -1
1532256404948863 -1 5 0 2 2 6 -3 -1
1532256405023663 0 2 -1 -3 -6 -10 -2 2
1532256405046601 -2 -4 -6 0 2 -1 -3 -1
1532256405068544 -2 -3 0 0 -1 3 0 0
1532256405121402 -2 0 -3 -1 0 -1 0 -1
1532256405166282 -1 0 -1 -1 -1 -1 -1 -2
1532256405189221 0 -2 -2 -2 -2 1 -2 -1
1532256405249060 -2 -1 -2 -1 -3 -1 1 -2
1532256405278981 -1 -3 0 3 0 0 -1 -1
1532256405330842 0 -1 -1 2 -1 1 -4 -2
1532256405360762 0 0 -2 0 0 -1 -1 0
1532256405436559 1 1 1 0 -1 4 0 0
1532256405451519 -1 -2 -2 -3 -3 -2 1 -3
1532256405473461 1 -1 1 -3 -2 8 0 1
1532256405503380 -1 -2 -1 1 1 5 -1 -3
1532256405518341 1 0 1 -2 -1 -3 0 -1
1532256405548260 -3 -1 -1 -1 -3 0 0 -2
1532256405586159 -2 -1 -2 -1 -1 -2 0 -2
1532256405631039 -2 -1 -2 0 0 -1 -2 -1
1532256405685905 -1 -1 -1 0 0 0 -2 -1
1532256405728778 0 1 -2 -2 -1 0 1 -1
1532256405773658 -1 -1 -1 -1 0 0 -2 0
1532256405931237 0 -3 -3 0 0 0 -1 0
1532256405991082 0 0 -1 0 0 -1 -2 -3
1532256406022991 0 -1 -2 -2 -2 0 1 0
1532256406080836 0 -1 -3 0 -1 -1 -1 0
1532256406148654 -3 0 0 0 -1 -2 -2 0
1532256406178575 -1 -1 -2 1 -2 1 -1 -2
1532256406216474 -1 -2 -2 -1 0 1 0 2
1532256406314225 -5 -4 1 7 48 4 3 0
1532256406478772 1 -1 1 0 -11 -31 -1 -1
1532256406500714 0 -1 -1 1 5 23 -1 -7
1532256406516671 -1 2 2 11 -3 6 8 2
1532256406546594 1 0 1 -4 -1 -12 8 8
1532256406568532 -3 -2 -1 0 -2 -12 -3 -1
1532256406606430 0 0 -1 -1 -7 -2 -5 0
1532256406651322 4 2 0 6 11 16 5 3
1532256406711151 1 0 -1 -4 -2 7 -14 -3
1532256406832825 -3 0 -1 -4 -5 19 15 1
1532256406876708 -7 0 1 2 -4 10 -2 -3
1532256406913610 -10 -4 -3 -3 -7 -28 2 -2
1532256406951508 -9 -2 3 5 -10 -2 11 0
1532256407003369 6 1 2 4 -2 -1 7 2
1532256407079167 5 -1 -2 2 -15 1 13 3
1532256407175908 3 0 -1 5 19 -22 -13 -2
1532256407281626 1 2 2 3 33 2 1 3
1532256407416264 4 0 -5 -11 -33 -60 -23 -7
1532256407446185 -12 -5 -1 -3 -27 5 5 -4
1532256407491065 6 2 -1 3 7 5 6 -4
1532256407514004 -3 1 2 8 12 20 -1 -4
1532256407573844 5 -2 -5 -10 -13 -1 -7 1
1532256407618724 -7 -2 1 -3 1 2 -7 -2
1532256407633683 -2 -2 2 1 11 -2 9 -1
1532256407671583 -24 -5 -6 -6 -4 -1 -6 -5
1532256407686543 -4 -1 -1 0 1 -5 -6 1
1532256407798244 2 -2 1 0 -1 -7 3 -2
1532256407859081 -4 -2 0 -2 -4 -18 1 -1
1532256407903961 4 3 -2 1 0 9 14 1
1532256407970783 -3 5 3 9 19 24 5 3
1532256408008681 -1 1 0 1 9 11 11 2
1532256408031620 -1 -5 -3 -6 -12 19 -1 1
1532256408076500 -11 0 5 -5 -3 -4 -1 -5
1532256408106420 -5 0 6 0 -3 30 25 -1
1532256408158292 1 2 1 -2 -11 35 -1 1
1532256408204158 -3 -1 -6 4 23 70 13 3
1532256408226100 13 4 9 4 -3 -12 4 0
1532256408293918 -3 -4 -9 2 1 9 -7 1
1532256408360740 -3 0 1 -6 -6 32 11 1
1532256408391657 -2 -1 0 -2 -1 5 6 1
1532256408413598 -1 -3 -8 -8 3 18 11 1
1532256408466457 -1 -3 -7 -7 -22 0 -12 -4
1532256408503358 1 0 -1 2 -7 16 8 8
1532256408541257 -4 0 -6 -12 -6 8 5 -1
1532256408594116 -3 -1 5 8 -6 -18 -17 -6
1532256408616057 -2 -9 -4 -1 1 0 -3 -4
1532256408631017 -5 0 -3 -5 -20 -24 -12 -7
1532256408653955 -1 -2 -13 -3 2 5 -12 -6
1532256408675897 -1 1 8 7 -3 2 -16 -7
1532256408705817 -1 2 -9 -5 -4 -17 1 1
1532256408720777 -3 5 -10 0 -2 1 1 1
1532256408736743 1 2 0 2 -10 -36 -7 1
1532256408773636 0 4 2 1 7 -13 -14 -3
1532256408788596 -1 -4 -2 -3 1 -9 -2 -3
1532256408818516 -4 7 3 -3 8 38 -1 -2
1532256408856414 1 2 0 1 6 25 9 1
1532256408886334 -3 -2 -16 -2 8 28 9 2
1532256408908276 -3 2 7 -3 -11 -67 -4 -4
1532256408931214 -1 -11 -4 -1 14 -50 6 0
1532256408961134 -5 -6 12 -6 -11 8 -11 -8
1532256409021986 2 4 -3 0 -2 15 -2 2
1532256409058873 -3 -2 6 3 -1 -32 -1 -4
1532256409171571 0 -1 -19 -1 -4 -10 1 -1
1532256409223433 -1 9 -8 3 -7 -8 -3 0
1532256409268317 0 2 10 -2 -3 15 -1 -3
1532256409321171 -1 -9 9 -1 3 1 1 0
1532256409388990 -1 9 15 -3 -2 3 -2 -1
1532256409455811 0 -1 6 2 4 10 -1 1
1532256409486729 -2 -2 -3 0 0 -2 -1 -1
1532256409523630 -3 0 6 -4 -6 -5 -3 1
1532256409553550 -2 -3 -9 -7 -8 0 2 4
1532256409583470 1 0 1 9 21 -4 0 1
1532256409613390 -1 1 0 -1 -11 -4 -3 -2
1532256409651288 -2 0 -2 -5 -4 -3 -1 1
1532256409674239 0 0 0 9 -4 -1 -3 -2
1532256409696169 -1 1 -1 5 -3 2 0 0
1532256409711128 -4 -6 -3 -7 0 -4 1 -1
1532256409734073 1 6 -2 4 19 7 11 3
1532256409756009 -2 -2 -3 -2 -8 -1 -6 -2
1532256409770969 0 -3 0 -3 -14 23 3 -1
1532256409793927 -3 -8 13 -3 -2 -4 3 0
1532256409838807 1 7 -3 3 20 73 30 3
1532256409898647 1 -2 12 8 -1 -72 20 1
1532256409913607 0 -3 -6 -5 -11 36 8 3
1532256409966466 -3 -5 -3 -3 9 15 -3 -1
1532256410003367 -2 -1 0 3 -4 -33 0 0
1532256410018329 1 -4 4 1 -9 -48 -5 -1
1532256410109084 3 -2 -1 4 7 29 3 0

1532256410168925 -1 -1 -1 1 13 37 -18 0
1532256410190866 0 1 -3 0 0 4 -2 -1
1532256410236743 -5 -5 -1 -4 -19 16 6 -6
1532256410408284 -4 0 1 2 -3 3 1 -1
1532256410535943 0 -1 -1 1 0 -2 2 -1
1532256410580837 0 -2 0 -3 0 1 0 1
1532256410625717 -1 -2 16 2 0 2 1 -6
1532256410663616 5 15 4 2 1 1 1 -2
1532256410686554 3 -9 6 -2 -2 -1 -2 0
1532256410716475 2 4 -3 -2 -3 -2 1 0
1532256410746403 -2 5 -3 2 0 -2 8 1
1532256410798255 1 4 -2 -3 -2 -1 -7 -2
1532256410813215 -3 5 -3 -2 -2 -1 1 0
1532256410836154 -6 2 0 1 -3 0 -6 -2
1532256410874053 -4 -2 0 -2 0 -2 1 -1
1532256410926581 -1 -1 -2 0 1 -2 2 0
1532256410971461 -1 0 1 -1 -1 0 -2 -1
1532256410993402 0 0 -3 0 0 -1 -2 -1
1532256411023323 0 -1 -1 0 2 1 7 -1
1532256411061222 2 0 -2 -2 -4 -1 -3 1
1532256411076181 -3 -1 -1 -1 3 1 1 -1
1532256411099120 0 45 -3 0 -3 -4 -4 -2
1532256411129039 -3 -4 -3 -1 -1 -1 -2 -1
1532256411150981 0 -10 -4 -1 -2 -3 -1 1
1532256411180901 -1 6 0 -1 -2 -1 -2 2
1532256411210822 -2 -8 -1 -1 -1 -2 -1 0
1532256411256699 -1 3 0 0 0 -1 -2 -3
1532256411271659 -1 -3 -2 -1 -2 -2 -1 -1
1532256411301579 -3 -4 0 0 -1 -1 -1 -2
1532256411466139 -1 -3 -1 -2 0 -1 0 -1
1532256411489078 -1 2 -1 -1 0 0 -1 0
1532256411713477 -3 0 -6 0 -17 -14 1 0
1532256411893995 2 0 0 0 -3 4 -8 4
1532256411930895 -2 -1 0 1 2 1 0 -3
1532256411945855 0 -1 0 -2 -1 -2 -10 -2
1532256411983755 2 -1 -1 -2 0 0 0 -3
1532256412036613 3 0 -2 -2 0 0 -8 -1
1532256412051579 4 -3 -1 0 -1 0 5 1
1532256412096453 -4 -7 -4 0 -2 -2 2 1
1532256412133355 -6 1 -2 -1 0 0 0 -2
1532256412195189 -1 0 1 1 -1 1 1 -1
1532256412321851 -1 0 -3 -4 -3 0 -2 -3
1532256412350789 -5 0 -1 -1 -1 -5 -7 -3
1532256412365733 -4 -3 -2 -3 -3 -2 -5 -1
1532256412411611 -1 -3 0 -1 -1 3 9 1
1532256412441530 -2 -1 -1 1 0 0 -3 -1
1532256412463472 15 -1 -3 -1 0 -3 -10 1
1532256412493391 -3 -2 -2 -2 0 -2 0 -1
1532256412523312 -4 1 0 -1 1 0 -6 1
1532256412553231 -4 0 0 -1 -2 -2 3 -1
1532256412569189 -2 0 -2 0 -3 0 1 -2
1532256412606091 14 -1 -2 0 1 0 1 1
1532256412680890 -1 -1 -3 -1 -1 0 11 -1
1532256412718788 0 -2 -1 -2 -6 -3 -3 -1
1532256412763669 -1 -1 1 0 -5 -2 1 -1
1532256412816528 0 0 0 7 20 14 -1 0
1532256412853429 -1 0 -2 -3 -8 -13 1 0
1532256412966128 0 1 -2 -13 -7 21 1 0
1532256413004026 -3 -4 -5 -13 -9 -21 -4 0
1532256413033946 -2 -1 -4 -7 -3 -7 -4 4
1532256413055887 2 -5 -4 -7 -6 -8 4 -6
1532256413100771 -13 -3 -2 0 7 16 14 2
1532256413258346 1 -1 -1 -1 -4 -3 -3 -1
1532256413371044 2 5 1 4 15 24 21 1
1532256413460807 1 6 -2 1 -19 -83 6 1
1532256413679230 -5 -5 -5 -12 -4 -19 0 -3
1532256413775961 2 1 -2 -1 19 -4 13 -2
1532256413835802 -1 0 4 4 26 15 2 -1
1532256413866719 0 1 -1 2 0 -8 -6 -1
1532256413911599 0 -3 -3 -5 3 44 10 1
1532256413963460 0 -3 -2 -1 25 -7 -2 -2
1532256414008341 3 -1 -4 -11 -4 26 5 -1
1532256414077157 1 2 5 7 5 -4 -8 -1
1532256414136000 0 0 -5 -3 3 11 4 3
1532256414165918 -1 -1 -1 0 2 -4 -9 -3
1532256414188858 0 0 0 6 13 0 -4 -1
1532256414256677 0 0 1 3 8 4 1 1
1532256414316517 0 -1 0 -4 -1 2 1 0
1532256414338458 -1 -1 -2 -1 -1 7 4 -1
1532256414466117 0 -1 -1 -3 -4 8 -8 -2
1532256414646634 1 1 0 1 4 9 24 3
1532256414691514 -2 -4 5 0 0 32 -4 -3
1532256414743374 -1 8 5 6 24 -4 -19 -3
1532256414773307 -1 1 -1 0 -2 -4 4 0
1532256414804229 3 9 15 4 -15 -33 -2 3
1532256414856074 -4 -7 0 -12 -3 18 6 -2
1532256414871034 1 -13 -4 -5 4 10 -2 -2
1532256414915914 -6 -9 8 -1 0 -11 -2 -2
1532256414960794 -4 3 -7 1 4 3 -14 -5
1532256414991711 2 5 5 5 -19 2 -12 -2
1532256415036592 -3 -4 -4 -6 34 25 4 0
1532256415051551 -1 1 -1 -2 -12 11 5 1
1532256415111397 -1 -1 -2 3 -23 -26 -2 -1
1532256415163252 -1 -1 1 0 -5 -5 -2 -2
1532256415186191 0 -2 -3 -12 0 -3 -3 -1
1532256415260991 2 0 0 2 -13 11 13 4
1532256415290911 -2 -6 -1 -5 12 32 -14 -7
1532256415320831 1 0 4 3 -11 -4 0 1
1532256415381669 2 5 4 -1 -3 -12 7 3
1532256415433529 -2 -2 -2 -2 4 -18 1 -2
1532256415448490 -6 -1 -5 -12 -17 -29 -3 -3
1532256415478410 -1 -1 1 0 1 -5 -9 -4
1532256415516308 2 -1 3 18 12 -31 0 4
1532256415554207 1 2 8 3 3 -34 -7 -1
1532256415680868 -9 -6 -7 -2 13 -4 -3 -3
1532256415763647 -6 -7 2 -7 24 29 4 -1
1532256415846425 -1 7 -5 3 17 3 1 -1
1532256415959123 -6 5 -22 -3 3 13 8 3
1532256416018964 -1 -10 -1 -5 -4 -6 -12 -1
1532256416048884 -6 5 8 -2 -1 -3 -2 3
1532256416100755 0 -4 2 0 -1 -3 2 -1
1532256416123684 5 -3 -5 2 -1 2 0 1
1532256416138644 2 1 1 -2 -1 -1 -3 -3
1532256416168564 0 -1 -1 0 1 3 -1 -1
1532256416206463 -1 -5 -5 -7 -14 22 -4 -3
1532256416236383 -4 2 2 15 -13 11 -25 -6
1532256416349081 -1 3 2 5 9 2 -2 -4
1532256416385982 4 1 9 12 9 -10 8 4
1532256416453801 0 -2 -12 -1 -19 -57 -6 1

1532256416475742 2 1 -2 6 11 9 -17 1
1532256416506659 -5 -3 -1 -3 3 20 6 -1
1532256416551555 -11 0 -2 -6 3 6 -5 -6
1532256416575476 2 -1 0 1 -3 0 4 1
1532256416597417 -1 1 0 1 12 47 -9 -1
1532256416678201 -2 -3 -2 0 -4 -39 0 1
1532256416798878 4 -3 -2 -1 2 2 5 0
1532256416851737 1 -3 -8 1 4 6 5 -1
1532256416873678 -2 -2 5 0 3 22 -15 -4
1532256416903598 1 -1 -3 -2 -3 -14 -9 0
1532256416933518 -5 1 -5 0 2 -36 -7 -3
1532256416948478 1 1 1 0 0 46 -7 -2
1532256416986378 1 -1 2 2 -2 -30 -5 2
1532256417016296 0 4 3 8 15 4 -3 -2
1532256417046217 0 -1 0 1 3 -8 2 0
1532256417069156 -2 -1 -1 -3 -7 -13 1 0
1532256417091097 1 -1 -1 -1 6 -18 0 -2
1532256417135976 1 -1 1 0 -3 -6 3 1
1532256417165897 -2 -2 -1 -1 -4 2 -2 -5
1532256417233715 -2 -1 -1 -2 4 3 -1 0
1532256417256654 -2 0 1 0 -1 4 -1 -5
1532256417278596 -1 -2 -1 -2 -1 4 0 -2
1532256417383315 -1 -3 -1 0 -2 -1 -1 -1
1532256417436174 -1 1 0 -2 -6 -3 -2 0
1532256417533915 -1 -1 -1 -2 0 -2 0 0
1532256417570814 0 0 -3 1 0 -1 -2 -2
1532256417593754 -1 -3 0 0 0 0 1 0
1532256417661577 -2 0 0 -2 1 1 -1 0
1532256417751338 -1 -2 -1 -3 -3 -4 0 -1
1532256417796218 -2 0 0 -4 2 1 1 -1
1532256417811177 0 -2 -3 -2 -4 0 -3 -2
1532256417841097 0 -2 1 7 13 -1 -4 0
1532256417871017 -2 -1 -2 -5 -4 -1 1 -1
1532256417900954 0 -1 0 1 1 1 -2 -2
1532256417930872 0 1 0 -6 -7 -3 2 1
1532256417953811 0 -3 -3 -3 0 1 0 -1
1532256417975752 -3 -2 -2 -1 -1 -1 -2 -1
1532256417998691 0 0 -2 -1 1 2 -1 -1
1532256418043571 -1 0 1 6 19 -1 2 -2
1532256418073491 -2 -3 -1 0 2 -1 -2 -2
1532256418103410 -1 0 -1 -3 4 -2 -2 -1
1532256418141309 -1 1 0 -2 -11 -8 -2 0
1532256418201157 0 0 -2 -2 4 -1 1 1
1532256418224088 -1 -1 -2 1 -1 -1 0 -1
1532256418260989 -1 0 -2 0 -5 -2 0 0
1532256418275949 -2 -1 -2 -1 -2 -2 0 -1
1532256418298888 -1 -3 -1 -2 -1 0 0 -1
1532256418328807 -3 -2 -2 3 3 -3 0 0
1532256418350752 0 0 0 -2 -3 0 0 0
1532256418373688 1 -1 -2 -2 0 1 1 -1
1532256418403608 -2 -1 0 -1 0 1 1 1
1532256418441507 0 0 0 -1 -5 0 -2 0
1532256418478408 -1 -1 -2 -2 0 -2 -4 -2
1532256418508343 -1 -1 -1 -2 -5 -3 -1 -1
1532256418546241 -1 -1 0 -1 1 3 0 -1
1532256418569194 -2 -1 -2 -1 0 0 -1 -1
1532256418614060 0 -1 -1 0 -1 0 3 -1
1532256418629020 0 0 -1 -2 0 0 -1 0
1532256418665922 -2 -3 -1 0 0 1 0 -2
1532256418733753 -1 0 -2 2 1 -2 -2 -1
1532256418763660 -2 -1 0 -2 -1 -4 1 1
1532256418853420 0 2 4 9 8 11 3 0
1532256418883339 0 -4 0 4 8 -12 -5 -1
1532256418936198 0 -1 -10 9 13 -3 2 0
1532256418951159 -2 1 6 -4 -5 -18 13 1
1532256418981079 -2 -3 -1 -3 -5 -19 -6 -2
1532256418996039 -3 2 9 2 21 2 5 0
1532256419025958 1 1 -2 -3 -3 -16 7 -1
1532256419048898 0 -3 2 3 -7 -22 8 -1
1532256419093778 -4 -5 -13 -4 3 -2 3 -1
1532256419123698 -2 -2 0 1 2 3 -2 0
1532256419176555 0 0 1 -1 1 1 3 3
1532256419228417 0 -2 3 2 14 5 -5 3
1532256419288257 -2 1 0 2 -12 -25 -2 -3
1532256419349095 -2 3 -14 -7 -4 28 10 -1
1532256419393975 0 1 3 -1 -11 0 1 -2
1532256419558534 0 -1 -1 0 -3 -11 0 -1
1532256419596433 -1 -3 -2 1 -2 -12 -8 -2
1532256419716113 -2 -3 -3 -1 0 -2 -1 0
1532256419739052 -1 1 0 0 -1 0 -1 1
1532256419760992 -2 -1 0 -1 -2 -2 1 -1
1532256419775953 0 0 -1 -1 -2 0 -2 -1
1532256419820833 -2 -1 -1 -1 -3 0 8 0
1532256419866710 0 -1 -1 0 -1 -1 -2 -1
1532256419941511 -1 0 -2 0 1 -3 -7 -3
1532256419956473 0 -1 -2 -1 0 0 -1 1
1532256420031270 0 0 -1 -1 -1 0 1 -1
1532256420054209 -3 -2 -1 -1 0 -1 2 -1
1532256420099089 -1 0 0 -1 -2 0 -3 -1
1532256420143969 -2 1 -1 0 1 -2 -1 -4
1532256420188849 0 0 -2 -2 0 -3 -2 -1
1532256420210790 -1 -2 -1 1 -1 -2 0 1
1532256420256668 -1 0 -1 -1 -2 0 0 1
1532256420308529 -1 -2 -1 -1 -1 -2 -2 -2
1532256420361388 0 -1 -1 0 -3 0 2 -2
1532256420406267 -1 0 -2 -1 0 0 -2 0
1532256420429209 0 -2 -1 -2 0 -1 2 3
1532256420490045 2 0 -3 -1 -7 -16 -3 -1
1532256420533930 -3 1 0 -3 -3 1 0 0
1532256420570827 0 -1 -3 -9 -32 -51 10 2
1532256420676545 -1 -1 -4 -7 -16 3 1 0
1532256420706465 -1 -1 -2 -11 1 9 -2 0
1532256420758326 -8 -6 -2 -10 12 8 -5 31
1532256420788246 -4 -1 1 7 0 -6 -2 -16
1532256420819164 -4 -3 -1 -2 4 -11 4 1
1532256420849083 0 0 -1 -4 -5 -17 7 -2
1532256420871024 -5 -2 -3 -3 -2 8 0 -4
1532256420900952 5 2 -1 -3 -24 -21 -8 -5
1532256420923883 -2 -1 0 2 23 34 14 4
1532256420953803 -9 2 -1 7 -9 -4 -13 -4
1532256421043563 -6 -4 2 3 14 15 -27 -7
1532256421073484 14 -1 -2 -7 -13 -4 7 -4
1532256421178203 10 1 -5 -8 0 5 0 1
1532256421231062 1 2 2 -2 5 4 -6 -2
1532256421328801 -6 -5 -6 -6 0 3 14 0
1532256421365702 -8 -3 -1 -7 8 -36 -15 -4
1532256421403601 -3 1 4 2 -28 -8 14 1
1532256421456459 -6 -1 -3 -8 -37 -14 -1 -3
1532256421493361 -2 -2 -1 -5 27 40 4 -2
1532256421650939 0 3 3 6 36 5 6 -1
1532256421680859 -5 -2 -2 -5 -1 7 8 0
1532256421756657 2 1 1 0 13 -11 -2 -2
1532256421808518 -4 -3 -2 2 9 -9 -2 0
1532256421862374 1 -2 -1 0 1 17 1 -2
1532256421883317 -1 1 1 0 4 3 -5 1
1532256421913255 0 -1 -3 10 -12 -25 -3 0
1532256421936177 24 -1 -3 -6 -5 -11 8 1
1532256421989035 -2 2 1 -2 5 -8 -3 0
1532256422018955 -1 -3 -4 -4 -10 23 -3 0
1532256422048875 8 3 -6 -3 -4 0 0 -2
1532256422108721 -9 -1 2 -2 -4 7 -4 -3
1532256422228401 3 4 7 2 5 -4 -2 0
1532256422326140 -1 0 -7 -7 -1 13 -5 -4
1532256422423878 1 -1 4 4 -11 4 0 0
1532256422453814 -3 -4 -10 -1 21 35 -3 -2
1532256422491696 1 0 -2 -7 -12 -3 -3 0
1532256422513638 1 2 -5 -1 -1 2 2 2
1532256422528598 -3 -5 2 -3 -3 6 -1 -3
1532256422558518 -1 2 1 7 1 -23 -18 -2
1532256422573478 1 -12 -12 4 6 17 5 4
1532256422596417 1 7 4 11 -20 -21 -10 0
1532256422641297 0 6 8 1 3 -5 0 1
1532256422679196 -1 1 1 4 -23 2 -2 -4
1532256422709115 -2 -2 4 9 18 9 0 -3
1532256422746017 -3 -5 -2 0 1 -36 -3 -5
1532256422768955 -4 -2 -4 -5 3 6 -4 -1
1532256422813835 -3 -2 -4 -5 8 9 -6 -3
1532256422843756 -2 -2 -5 -16 -43 -18 -8 -5
1532256422866694 -3 0 0 -3 9 26 -12 -3
1532256422926534 -2 -12 0 -4 -29 -18 0 -2
1532256422963435 1 14 -3 3 9 -10 9 4
1532256422978395 3 10 3 0 5 -29 4 2
1532256423008326 -1 -8 10 -4 -10 5 4 0
1532256423046214 1 -5 -2 -10 4 33 22 4
1532256423069153 -3 -7 4 -2 -11 -17 -5 -2
1532256423122012 -2 -9 -3 -2 -7 -12 -13 -1
1532256423150935 1 3 3 3 14 38 10 2
1532256423165894 -3 -6 -4 -2 3 5 3 0
1532256423195825 -6 -20 -1 -3 1 25 2 -6
1532256423308513 -3 6 6 -1 -12 -21 -4 2
1532256423413233 11 32 3 0 -7 -43 -4 -5
1532256423474070 -4 -16 6 -2 0 -52 -2 2
1532256423600732 13 48 -6 0 -2 1 -1 2
1532256423623670 -12 -33 4 0 0 1 5 4
1532256423661569 -12 2 26 1 0 -2 -1 1
1532256423676528 -17 -52 -14 -4 -2 -2 -1 -6
1532256423713430 1 14 -12 -3 -2 -1 -2 3
1532256423751328 -4 1 8 2 3 0 5 0
1532256423789227 -3 -10 -8 0 1 -2 -1 -2
1532256423811169 4 -13 -9 5 0 -7 -6 2
1532256423849079 1 -4 -5 2 11 -9 0 1
1532256423878987 0 -9 -7 -11 -15 32 -3 -2
1532256423930848 -1 3 3 2 14 -9 -3 0
1532256423991686 -1 -1 -2 0 19 59 4 1
1532256424036566 -2 -1 0 3 18 66 4 0
1532256424066486 0 4 -4 0 10 13 4 2
1532256424118364 0 3 14 12 9 6 10 0
1532256424141286 -2 0 -2 -2 -11 -25 15 0
1532256424156246 -2 2 -9 -5 2 -2 -1 0
1532256424179184 -3 -1 -6 -2 -5 -23 -11 -2
