1532264728690907 -2 -1 -3 -2 -8 -10 -3 0
1532264728723819 -1 -1 0 -2 0 -4 -1 -1
1532264728742768 -2 -4 -2 0 -2 -1 -1 1
1532264728795627 0 -3 -1 -2 -1 -1 0 -1
1532264728833525 -2 0 -2 -1 -2 -3 -2 0
1532264728870427 -1 1 -1 3 5 6 2 0
1532264728893366 2 2 1 0 -10 -9 1 1
1532264728930267 1 -3 -2 0 14 -12 1 1
1532264728956197 0 -3 -2 0 10 1 -1 -2
1532264728975147 -1 1 0 6 14 2 -2 0
1532264729028005 -1 0 1 4 6 10 0 -1
1532264729050944 -1 -2 0 2 2 -5 1 0
1532264729073883 1 -3 -4 -4 -1 -4 -4 -1
1532264729102805 -2 -2 -1 0 1 -3 0 0
1532264729140721 0 -1 -2 -2 -5 -7 -2 0
1532264729170624 -2 -3 -4 -6 -7 -2 -1 -1
1532264729223483 -1 -2 -2 -3 -4 -7 -1 1
1532264729268363 -2 -2 -1 2 0 -5 0 -1
1532264729365104 -1 1 2 7 0 21 -4 -2
1532264729403003 -1 -3 -9 21 53 7 1 -2
1532264729447883 0 -4 -8 13 19 12 -9 -2
1532264729485781 -2 -1 -6 -20 -25 -18 -1 0
1532264729507726 0 0 -1 -4 -12 -2 1 1
1532264729552602 -2 2 1 -17 -22 -11 -1 -3
1532264729605461 3 1 -2 14 0 -3 11 5
1532264729785979 -2 -5 -6 -6 1 -5 -9 -4
1532264729807920 2 -1 2 7 -5 10 0 2
1532264729822880 11 -19 -3 -4 1 -37 -8 -1
1532264729852799 0 -6 -2 -5 -18 -35 9 4
1532264729882720 -2 -30 -20 1 -5 -14 -5 -2
1532264729927600 2 2 5 2 21 34 -9 -3
1532264729957536 -8 -9 3 -2 1 -41 -13 -3
1532264729973477 7 -33 -14 2 -9 10 6 0
1532264730003411 2 12 18 12 31 24 -61 -1
1532264730040299 10 -22 -10 3 -11 7 12 -2
1532264730078198 3 1 -6 -13 -21 -18 25 -3
1532264730101136 1 5 17 9 -88 -34 1 -1
1532264730152997 -2 -7 21 5 -10 0 2 -4
1532264730197877 3 -2 1 3 37 6 -4 2
1532264730220816 8 -2 1 -3 -11 -1 -24 -7
1532264730310576 -2 4 6 22 58 23 1 -2
1532264730355456 -4 -10 2 -3 5 1 -17 -10
1532264730423274 21 -3 -2 -4 -1 -14 8 0
1532264730483114 -4 -1 3 5 32 10 7 -1
1532264730520016 -3 4 -2 2 5 46 4 -3
1532264730557930 -2 2 -1 -5 -8 -24 -5 0
1532264730595814 -8 -3 0 0 -3 -38 -62 -10
1532264730610773 2 0 -4 -2 4 15 -2 2
1532264730632715 -2 -2 -4 -4 -2 -7 -9 1
1532264730647674 -1 -3 -4 -2 -8 1 1 -3
1532264730685574 1 0 -1 -1 21 52 9 0
1532264730707519 1 0 -1 -1 13 -8 -7 -1
1532264730730453 2 0 1 4 -5 -7 6 2
1532264730760373 -1 0 -4 -10 -10 -1 15 3
1532264730783318 -2 -3 -4 -12 -15 4 -7 3
1532264730805260 1 1 0 4 36 2 1 1
1532264730873078 0 -2 3 -4 -6 -11 -5 -3
1532264730917958 4 6 12 32 -54 4 4 4
1532264730970817 -1 -3 -6 -6 4 -17 -7 0
1532264730985777 -2 2 0 3 -18 15 14 -2
1532264731031670 1 -2 0 -15 -27 16 6 -1
1532264731045617 -2 -2 5 2 17 -12 -7 -1
1532264731060577 -1 -1 -6 -3 -16 -20 3 1
1532264731090497 -11 1 -5 4 22 55 -3 -1
1532264731120417 -1 -2 2 22 61 45 -2 0
1532264731143355 4 -1 4 -9 -6 -7 10 1
1532264731158316 18 -11 4 4 -33 3 7 3
1532264731173275 -4 2 -7 9 13 -17 0 -3
1532264731203196 -2 -2 -6 -4 16 0 -8 -2
1532264731235110 1 2 3 1 -2 -5 -4 1
1532264731277995 -4 2 -1 -2 -6 1 1 -4
1532264731300934 -2 -1 -1 -4 4 8 -2 0
1532264731322875 -4 -2 2 -4 1 -6 -2 -1
1532264731367755 -1 0 -2 0 -3 -17 -6 -1
1532264731390695 0 -2 -3 0 0 -1 3 0
1532264731442556 0 1 6 10 18 -16 -18 -2
1532264731465495 0 0 1 -2 -6 15 -1 0
1532264731480454 -2 -1 3 -1 -8 8 0 0
1532264731518353 -2 1 0 -1 -11 -25 -9 -4
1532264731540300 -2 -5 -5 -11 -10 -6 5 0
1532264731563233 1 -2 2 1 -2 5 0 -2
1532264731593152 1 0 0 1 5 14 0 0
1532264731608113 2 2 10 12 -4 -14 1 1
1532264731646012 -3 -3 -9 -13 -2 13 0 0
1532264731667953 -2 -1 2 6 -13 -1 3 2
1532264731698869 0 -4 -2 -5 -7 9 -12 0
1532264731735778 -2 -2 -1 -2 5 0 -5 -4
1532264731757713 3 1 -3 -5 -14 -5 7 11
1532264731802593 2 2 -3 -2 -8 -3 0 5
1532264731833521 -1 0 0 8 13 0 1 8
1532264731855452 1 -2 -1 -3 -17 -4 -3 -2
1532264731885371 -2 22 5 8 7 -2 -4 -7
1532264731930251 -1 -8 -6 -6 9 1 0 9
1532264731960171 -2 -4 -4 -11 -8 -3 -15 -14
1532264732013030 -3 -2 -4 -2 1 -8 2 -33
1532264732050929 1 2 -3 -4 25 12 12 22
1532264732110769 5 -19 -14 -26 -29 -10 -3 32
1532264732155648 7 -10 -12 -11 -31 15 -6 29
1532264732170609 -10 4 5 18 29 -9 -7 -23
1532264732185569 -6 -3 -3 -4 1 4 1 15
1532264732207518 6 -1 -2 22 19 28 35 11
1532264732230449 -6 -10 -14 2 -13 0 6 -14
1532264732268347 4 0 -14 -5 -39 -2 -4 11
1532264732283307 4 -4 -2 -11 -3 1 -7 14
1532264732305249 22 -9 -19 -6 7 18 2 -1
1532264732335168 -7 -10 -15 -6 13 -11 -6 -25
1532264732373067 -8 -1 -4 -6 -13 0 -11 1
1532264732425926 17 5 -1 -2 16 21 14 -1
1532264732462827 17 -1 -3 -11 8 -2 -4 1
1532264732515686 -17 10 9 1 7 3 8 23
1532264732575526 -10 -9 -8 1 -3 -10 -8 -23
1532264732605446 4 1 3 0 2 15 -2 -1
1532264732650326 -3 -4 -2 -5 4 -9 -25 -20
1532264732688224 -6 -4 -6 -2 30 9 -5 -21
1532264732718144 1 0 -1 -4 -13 -13 -14 -2
1532264732748064 2 -1 -2 -5 4 -6 22 1
1532264732792944 5 3 0 -9 -17 -18 -52 -14
1532264732822864 1 0 2 -1 21 10 -2 13
1532264732860763 -1 5 10 11 -4 -20 -95 -12
1532264732882704 -11 -15 -19 -12 5 29 105 5
1532264732905643 4 0 -1 -2 6 -9 -15 -1
1532264732927584 4 4 7 6 7 5 12 10
1532264732965483 3 -1 0 -8 -19 14 75 28
1532264732980453 -2 -7 -2 2 -32 -3 16 9
1532264733018341 2 0 4 1 11 4 36 9
1532264733040300 1 -4 -4 -1 5 -1 25 9
1532264733063222 1 2 2 9 10 14 -10 -18
1532264733087158 -1 -1 -2 -4 -16 -6 -20 -24
1532264733108102 -5 -3 -9 -12 -14 -7 -6 -2
1532264733138021 0 -4 -4 -4 -6 -19 -16 7
1532264733167942 -6 -3 0 -2 13 1 12 -20
1532264733182902 -9 -9 -9 -6 6 -9 13 5
1532264733220800 2 2 4 5 -12 -6 -5 8
1532264733325521 1 -1 -3 -3 16 20 16 -1
1532264733363419 -1 -3 -4 -2 0 5 -4 -1
1532264733385360 1 1 -2 1 -4 -10 -8 -2
1532264733423274 1 2 0 3 0 2 -1 -2
1532264733438219 -1 -2 -1 -2 -2 4 7 0
1532264733460160 3 1 1 -2 2 -14 -1 -4
1532264733483099 -2 -1 -1 -1 -4 -9 -10 -3
1532264733528976 0 -1 0 -1 -2 7 -3 0
1532264733550917 -3 -1 1 0 -27 -3 3 -1
1532264733587857 -2 -2 -5 -15 -26 -8 -1 -4
1532264733610796 -2 -3 -1 -3 19 29 -1 -1
1532264733640715 1 2 1 -3 -17 -4 -4 3
1532264733686593 2 -2 2 -1 -8 -15 3 5
1532264733700556 -1 2 -1 2 12 25 -8 1
1532264733738455 0 3 2 12 0 -35 6 1
1532264733775356 0 -3 -3 -5 10 3 18 0
1532264733880076 5 2 1 5 2 28 -7 -1
1532264733992774 -6 1 -5 -5 4 26 5 -5
1532264734022694 -5 4 4 3 8 4 -27 -8
1532264734052614 3 5 7 31 -3 4 14 1
1532264734082538 0 0 -2 -12 -20 -16 10 -2
1532264734120433 -3 5 12 -1 8 12 -6 -2
1532264734143372 1 -6 -13 -13 -5 12 36 3
1532264734173292 3 1 4 8 17 -17 -3 3
1532264734195233 -2 0 -5 4 27 5 -26 -6
1532264734270033 1 8 5 7 19 -10 3 -1
1532264734284993 -3 -5 -10 -8 0 -31 10 4
1532264734315910 -1 -2 -2 -5 -14 -4 8 1
1532264734345830 -1 -2 -1 0 26 10 -1 -2
1532264734375751 -2 -2 -5 4 0 -11 -6 -2
1532264734420630 -1 -4 0 -3 -5 16 5 -3
1532264734442571 -1 -1 -2 -2 -9 16 -1 0
1532264734495436 -5 1 -1 -4 -19 -20 0 -1
1532264734533329 -1 -2 0 -3 -3 -1 9 3
1532264734608129 5 -3 -1 4 21 13 14 4
1532264734720827 -6 0 -1 1 -1 -12 -6 -5
1532264734772688 4 0 -1 -3 -53 -4 -3 -3
1532264734878406 -5 1 -1 -1 9 -2 -1 -3
1532264734930267 -7 -6 -8 1 -5 3 0 -10
1532264734990107 2 -3 -4 -2 -2 7 -6 -2
1532264735034987 15 -4 -8 2 20 15 1 -1
1532264735253403 0 -3 2 -4 -4 4 -9 -5
1532264735530662 4 -6 -7 -4 1 22 0 -1
1532264735545622 9 9 37 4 5 49 -1 2
1532264735582524 -3 -7 -8 -2 3 26 -4 -14
1532264735605461 3 1 -4 -1 3 1 6 3
1532264735650342 -4 -4 -4 -2 -6 14 6 -9
1532264735733121 -1 7 3 3 3 -1 0 0
1532264735763046 0 -6 -7 -3 0 -9 3 -6
1532264735778006 2 4 1 2 0 -10 2 0
1532264735830865 1 1 -2 -9 2 -29 -4 -1
1532264735860785 1 3 3 2 -4 -34 2 0
1532264735882727 -5 3 2 0 -10 -10 -2 0
1532264735912647 6 -5 -1 -4 -56 -89 0 2
1532264735935585 0 -4 -1 2 11 -11 3 -1
1532264735995425 -1 -6 -1 -5 0 14 1 2
1532264736048284 1 2 1 1 -31 -9 -9 -2
1532264736063244 -1 -3 -2 -3 5 8 17 3
1532264736093163 11 0 -4 -2 9 -7 -7 -1
1532264736108124 5 6 0 3 4 14 4 -3
1532264736153004 2 -3 -1 -1 -6 -24 -6 0
1532264736197884 -1 -5 3 -1 -3 -26 0 1
1532264736220822 -4 -5 -2 2 8 39 4 -3

1532264736250848 3 -2 -6 -6 -20 -24 -9 2
1532264736272590 0 -2 -1 -2 3 19 -8 -2
1532264736303508 0 6 0 -2 -10 10 -3 1
1532264736318467 -2 -4 -1 -3 9 10 -4 0
1532264736348388 0 -1 0 2 13 13 -1 -1
1532264736385289 -1 -3 -8 -4 -7 -3 -14 -5
1532264736415209 0 -1 1 0 -5 -3 -5 -3
1532264736453108 -2 1 -4 -3 -1 26 1 1
1532264736468068 -1 0 -3 -3 -7 0 -4 -1
1532264736490009 1 -3 0 -1 -3 -22 -9 0
1532264736527848 -2 -1 -2 -3 -2 -1 0 -1
1532264736557768 -1 1 -2 -3 0 5 -3 -1
1532264736587688 -2 1 -3 2 17 19 7 -2
1532264736610626 -2 -1 -2 -1 1 -2 -2 -2
1532264736634563 0 -4 -1 -3 1 -1 0 -2
1532264736655507 1 0 1 -2 1 4 -12 -2
1532264736685426 -1 -1 -1 1 -5 -1 -4 -2
1532264736709362 0 1 -1 -4 -3 -12 -1 0
1532264736747262 0 -3 -3 -2 2 0 -5 -1
1532264736769203 0 0 0 -2 2 2 0 -1
1532264736791146 -1 -3 -1 1 -5 -42 -13 -3
1532264736813085 -1 -2 0 -2 4 21 3 -2
1532264736828045 -2 -1 0 0 -6 -13 1 -3
1532264736851981 2 -2 -1 1 -1 2 5 2
1532264736872924 -1 -1 1 0 0 -6 -3 0
1532264736887885 -1 -2 -2 -5 -2 4 -3 -1
1532264736932765 1 -4 -3 2 -4 -2 0 -1
1532264736947725 0 0 0 -2 -3 -7 -2 1
1532264736992622 1 1 3 0 -1 -7 -2 -1
1532264737015544 0 -1 -1 -3 -2 -6 0 -2
1532264737037485 -2 -2 -3 -3 -6 16 -10 -3
1532264737075387 0 -3 4 4 4 -13 -1 1
1532264737105304 1 3 -3 1 0 2 0 1
1532264737135223 -2 -4 -10 -22 10 5 0 -4
1532264737158162 -1 -3 -1 13 40 0 -2 -1
1532264737173175 -4 -1 0 -6 -9 4 -4 -2
1532264737195064 -3 -2 -4 -7 -10 -11 -3 -2
1532264737218002 -3 1 2 6 -11 -4 1 -1
1532264737247922 1 0 -3 -2 -3 1 -1 -2
1532264737270885 -3 2 -2 -4 -5 6 3 -1
1532264737285820 0 -2 0 1 -3 -16 -7 0
1532264737315741 2 2 0 4 1 -3 -7 -1
1532264737337683 -1 -4 -4 -8 -1 1 -1 -2
1532264737352642 0 0 2 -4 -5 -10 2 2
1532264737375581 -1 -1 -2 1 1 6 9 -2
1532264737397523 -1 -2 0 -7 -1 0 -2 -1
1532264737420462 0 -2 -1 4 4 8 -3 -1
1532264737435422 0 -1 -1 2 -2 -4 -2 0
1532264737473320 1 -1 -2 -3 -3 1 -2 -1
1532264737495298 -1 -1 1 -1 -7 0 1 0
1532264737518200 1 -2 0 0 -1 -5 0 -1
1532264737570061 -3 -2 1 -1 -3 0 -6 -2
1532264737585021 -1 0 0 -1 0 -1 -2 -1
1532264737637880 1 2 0 2 -4 0 0 -2
1532264737712680 -1 -5 -5 -6 -4 -3 -2 -1
1532264737787480 -1 -3 -14 -24 -4 -8 0 0
1532264737810418 0 3 -9 -21 -9 4 0 -1
1532264737855299 -2 -3 -25 -31 -6 1 -3 -2
1532264737915138 3 11 39 33 -15 -8 0 1
1532264737938077 -2 -2 8 -1 -22 -8 -11 -4
1532264737967997 1 7 25 4 -3 -7 -2 -2
1532264737990943 1 -4 -8 -17 -25 -13 6 2
1532264738035815 2 1 -5 -26 -48 -9 5 2
1532264738050775 1 -9 -3 -4 8 15 4 1
1532264738072716 4 -5 -7 -3 10 1 -7 -2
1532264738095656 -5 -12 -9 1 4 -6 -10 -4
1532264738117596 0 7 4 7 12 -10 -2 -1
1532264738155496 -1 -14 -11 -9 -34 -2 5 0
1532264738193394 -1 5 1 1 8 19 -4 0
1532264738238274 -3 5 13 10 -5 2 -3 -3
1532264738290135 -13 4 10 13 23 5 -17 -4
1532264738380894 -7 -7 -3 -6 -2 -25 2 -5
1532264738643192 11 11 5 -10 7 -8 4 -3
1532264738695053 1 11 8 2 -3 10 1 0
1532264738747911 6 -13 1 6 -16 26 1 4
1532264738890531 -2 -1 0 2 8 19 5 -2
1532264738943389 1 0 3 1 2 16 -5 1
1532264738995249 -2 -1 -1 0 -3 -2 -1 -1
1532264739025170 -3 -3 -3 -3 -6 -15 -4 1
1532264739040130 0 -2 0 -1 -9 -11 -7 1
1532264739085009 -2 -2 -4 -10 1 6 -6 -5
1532264739130887 -1 -2 -2 2 9 0 0 -1
1532264739197708 -1 -1 2 -7 4 0 1 -1
1532264739250567 -1 1 3 13 11 1 -1 1
1532264739319383 -2 -2 -4 -3 1 4 3 -1
1532264739370247 -2 -3 -5 0 7 14 0 -3
1532264739387202 -1 -2 -1 -2 1 -35 -1 1
1532264739408159 -2 -1 -2 3 -8 -7 -6 0
1532264739438066 4 4 6 16 -2 -1 4 3
1532264739460007 4 5 1 4 5 -1 8 1
1532264739491922 -1 -2 1 0 6 16 -1 1
1532264739520844 1 2 1 4 9 29 8 -1
1532264739565724 -2 -3 -2 7 4 -22 -4 1
1532264739602626 -2 1 4 0 7 15 -6 0
1532264739632546 -2 -6 -4 -4 -3 -4 1 -4
1532264739663463 -2 -2 -3 4 23 50 5 -3
1532264739693383 -3 -8 -2 -1 1 -22 -4 -3
1532264739715324 -1 -3 -1 -1 -13 -20 -2 0
1532264739730284 1 1 -2 2 -6 -4 4 -2
1532264739768183 0 5 2 4 16 1 4 1
1532264739790124 0 1 0 -1 0 21 2 -2
1532264739813063 -1 1 1 -2 -6 -9 -1 -1
1532264739843981 -7 -2 -1 -1 0 4 -7 -2
1532264739857944 -2 -2 -3 -5 -18 -3 1 -1
1532264739887863 0 2 1 -4 2 -2 3 0
1532264739910802 0 -2 -3 -3 -3 -5 1 -1
1532264739932743 0 1 -2 -6 -5 2 0 1
1532264739962663 -2 0 -2 -9 -20 -8 -6 -1
1532264739992583 -3 -2 0 -12 -7 -8 -1 -7
1532264740022503 6 1 25 19 6 -1 3 -1
1532264740053420 2 1 -5 -3 5 5 13 29
1532264740068380 -5 -2 0 -3 -18 11 22 -4
1532264740090332 -1 0 6 1 9 17 6 5
1532264740135202 -2 -5 -10 -7 -14 -5 -2 8
1532264740158140 -2 11 5 -1 3 -9 -1 -8
1532264740188060 1 -9 -2 3 -6 -3 4 -5
1532264740285799 -3 -4 0 7 13 5 -21 -31
1532264740398497 0 -18 -16 -4 -5 0 -8 3
1532264740473297 -3 28 29 -8 9 4 -8 -10
1532264740518177 -7 -2 -6 -2 -6 7 -8 16
1532264740570039 5 4 -8 8 10 -1 -5 -3
1532264740622897 4 -8 -9 8 9 9 0 4
1532264740637857 -1 -8 -6 -2 1 -6 -1 -17
1532264740660801 9 -15 0 -7 -14 2 -17 -12
1532264740690716 -18 -1 0 11 1 -8 -6 -3
1532264740780478 -3 -11 -11 -7 -8 -15 6 13
1532264740833335 2 -2 -4 1 -47 13 3 1
1532264740870236 -23 -5 -3 -3 -8 -33 -40 -15
1532264740900156 2 10 10 12 13 21 -1 6
1532264740954012 9 1 -1 2 7 2 2 -1
1532264740975956 -5 -3 -2 11 9 -6 -10 -18
1532264741027815 -45 0 1 5 8 13 35 4
1532264741042774 -3 -7 -8 -5 0 -12 -5 -8
1532264741080673 13 3 5 9 23 -6 -14 1
1532264741163451 -5 -4 -4 -6 -13 -7 23 3
1532264741298092 1 5 8 12 -32 -9 -44 -9
1532264741315047 -3 -5 -5 -2 2 -11 7 3
1532264741342972 -4 -5 -4 -6 3 -4 13 2
1532264741387852 -19 0 -2 -4 -14 -46 -4 -5
1532264741417772 2 0 -1 -2 6 -5 12 -4
1532264741462652 6 1 -1 1 -3 88 56 9
1532264741492572 -7 -1 0 4 30 -4 32 11
1532264741530470 -4 0 1 1 -22 -25 -32 -10
1532264741568369 7 -3 -1 -1 -27 -61 -6 6
1532264741613249 -11 -2 1 2 28 95 -8 -6
1532264741628209 -14 0 -1 -2 9 7 9 -6
1532264741650152 -7 2 1 -4 -12 -15 14 -2
1532264741747889 1 13 7 11 13 48 2 3
1532264741785787 7 -11 -11 -3 3 -6 5 -1
1532264741837649 -4 -5 -5 -19 -1 -9 19 2
1532264741860588 -9 14 3 0 -40 -74 -9 3
1532264741882529 -7 8 2 1 8 3 4 6
1532264741905468 -10 5 -1 -15 -16 -10 -8 -10
1532264741958326 1 -4 -3 4 3 -21 -2 -2
1532264741980267 -5 5 4 -1 1 -15 -13 2
1532264742100945 -2 -5 -3 -12 -2 -4 13 -6
1532264742190705 -3 0 0 -4 -29 -33 -9 -8
1532264742205665 -2 -2 -4 -9 18 13 -14 -3
1532264742251542 -1 -1 -3 1 29 10 -4 -2
1532264742295425 -1 0 4 9 -27 -5 14 2
1532264742363243 2 -2 -3 1 2 0 2 1
1532264742415104 4 3 10 31 -6 5 8 5
1532264742482923 4 0 -2 -14 -20 -2 -6 -1
1532264742595622 -5 1 12 16 14 3 4 -3
1532264742640502 6 -3 -11 -8 -5 -3 -4 5
1532264742768161 -2 -4 -1 10 -13 -12 -8 -1
1532264742820022 1 5 4 -3 16 -19 2 0
1532264742917761 3 -1 -1 -4 3 15 -10 -1
1532264743023493 -1 0 -1 -6 12 26 1 -1
1532264743098278 -2 -3 -1 1 4 2 -1 2
1532264743135179 3 -3 -2 -4 2 14 2 -1
1532264743173077 16 54 6 -1 0 3 8 0
1532264743195019 16 -4 1 0 0 -1 -16 12
1532264743225936 -2 -6 -6 6 -1 0 9 2
1532264743270817 0 -2 -5 -3 2 -2 -2 -2
1532264743292758 -4 4 -1 -2 -2 -4 -1 -4
1532264743330665 0 0 3 -3 -5 -34 -4 2
1532264743345616 1 -3 -2 12 13 45 6 4
1532264743360577 1 -4 0 2 -3 0 -6 0
1532264743382517 -4 0 -2 -4 -30 -23 -4 -6
1532264743405457 -1 -4 -1 -4 -25 -67 1 -2
1532264743428395 -2 2 -3 9 -42 31 3 3
1532264743450336 -22 7 2 -2 -2 38 -3 0
1532264743465297 0 -3 1 -5 -12 -12 -13 -3
1532264743480257 -1 -1 -3 -4 -18 -28 -7 -4
1532264743519160 3 -3 1 0 12 1 -1 1
1532264743540096 0 -2 -2 -2 10 17 -2 -1
1532264743563035 -3 2 0 0 8 -1 0 -2
1532264743577995 2 -2 -2 -3 -2 4 -3 3
1532264743607915 4 0 -3 -1 1 -1 0 1
1532264743630854 1 -1 1 -1 -3 1 1 0

1532264743652799 -1 -6 -5 1 7 5 0 -2
1532264743705654 1 -1 -3 -2 -1 -11 0 1
1532264743735583 -1 1 -3 -4 -1 5 -11 -3
1532264743810374 0 -2 -2 -2 2 -1 -2 2
1532264743833311 -2 -3 9 0 -3 -11 4 -1
1532264743855260 -2 -3 0 0 -1 -1 -2 -2
1532264743908119 -2 -7 -2 -2 -2 0 -1 0
1532264743923079 0 -2 -4 -3 -3 -7 -10 -1
1532264743959980 -2 -2 -3 1 -5 -2 2 -1
1532264743990898 0 -3 0 2 13 22 4 0
1532264744005858 0 0 1 -1 3 5 0 1
1532264744036775 -4 -2 -1 -1 -3 -1 -1 -1
1532264744050737 0 3 -1 -3 -2 -4 2 -2
1532264744065698 1 -1 1 -2 -1 4 -2 0
1532264744087639 -2 -2 -1 0 -1 -5 -2 -2
1532264744110608 -2 -5 -1 -1 -1 0 5 0
1532264744132550 -1 -1 -1 0 -1 0 -8 -1
1532264744147510 -3 -3 -1 0 -2 -5 -3 -2
1532264744170448 -1 1 0 0 -2 -10 -16 -2
1532264744193387 -1 -5 -4 -1 -2 -3 -1 1
1532264744223308 -5 -4 -2 -2 12 23 -6 0
1532264744260208 -2 -1 -1 -4 -6 -8 16 -2
1532264744283147 0 -1 -2 0 -4 13 1 -1
1532264744298107 -1 5 6 1 3 10 -2 -2
1532264744320048 0 4 -2 -3 -6 -38 -3 0
1532264744335008 -1 0 -2 -1 -10 2 -18 -2
1532264744357948 0 -1 -1 1 1 3 8 0
1532264744380886 0 -1 -2 -3 -2 4 3 -2
1532264744417787 -1 0 -3 -1 1 0 -4 -1
1532264744447706 1 -1 -5 -1 -3 2 -1 -2
1532264744462667 -2 0 -3 -2 -1 -6 3 -2
1532264744522507 -2 -3 -1 -1 0 -4 4 1
1532264744553424 -2 -3 -2 -5 -6 -37 -11 -3
1532264744575374 0 -1 1 -1 -1 2 0 0
1532264744605286 0 -1 1 1 1 5 2 2
1532264744620246 1 2 1 -1 0 4 4 1
1532264744665125 -3 1 -4 1 1 1 -15 -2
1532264744688064 -1 -1 -3 -5 -5 0 0 -3
1532264744711003 -2 -3 -4 -2 0 0 -2 -3
1532264744725963 -1 -2 0 -1 -2 1 3 -1
1532264744747904 0 -3 0 0 -1 -1 8 -1
1532264744785803 -1 2 -2 -2 -1 0 0 0
1532264744800763 -1 -1 -1 1 0 0 -2 -2
1532264744822704 -2 1 -2 -2 -1 0 8 1
1532264744845643 -1 -2 0 -2 1 -1 1 0
1532264744860603 -2 0 -1 -2 0 -4 -5 -3
1532264744890524 1 1 -5 -2 -1 4 -4 -1
1532264744920442 1 -1 -2 -1 -7 -2 4 -2
1532264744935403 0 -4 -1 2 0 4 0 -2
1532264744965323 -1 3 9 37 12 6 2 1
1532264744995243 1 0 2 -8 24 9 -3 -1
1532264745040123 -6 -5 -28 -6 -19 -18 -9 -5
1532264745070043 -6 -8 -33 -46 -10 -3 -6 -4
1532264745092981 1 -3 -1 -30 20 -8 -5 -1
1532264745130880 1 2 3 -3 21 6 -1 -1
1532264745175760 -2 0 -3 -13 17 21 -8 -3
1532264745205679 3 30 0 -3 -12 -39 3 1
1532264745280480 0 1 -5 -1 37 11 1 1
1532264745318378 -2 -1 2 -8 -27 -26 -7 0
1532264745363258 0 10 0 -8 29 6 7 -1
1532264745385200 -2 2 2 -12 -48 -9 -11 -1
1532264745400160 1 14 7 8 -35 -10 -1 -4
1532264745423099 1 0 5 19 -4 -7 -3 -1
1532264745453018 2 -2 1 17 -20 -43 18 1
1532264745476955 18 1 -4 -17 -17 18 -2 0
1532264745520837 0 -4 -10 -26 12 47 -12 -6
1532264745557739 -1 11 1 -10 -12 15 0 1
1532264745572699 -2 5 3 -8 -72 -12 -23 -8
1532264745602619 -5 4 6 6 -9 7 -1 0
1532264745633536 1 4 2 2 -1 -31 11 -2
1532264745670437 15 12 21 3 25 15 6 0
1532264745708336 -7 -9 -3 10 25 17 -12 -3
1532264745738256 -8 -9 -15 -29 -12 -34 -1 -2
1532264745783136 0 12 1 -10 4 -17 -15 1
1532264745820037 0 3 7 7 -57 -20 -5 1
1532264745849957 -1 0 2 6 -4 -2 8 2
1532264745895834 -2 -10 -5 8 7 15 6 -1
1532264745947696 -3 -28 -17 -9 0 22 3 -3
1532264745962656 -3 2 0 -7 2 -2 -4 -2
1532264745985594 -2 -3 3 3 4 11 -1 -2
1532264746015514 -3 1 -2 -1 2 -8 -5 -2
1532264746038453 -5 1 0 -1 -55 -29 -12 -3
1532264746075354 3 1 6 14 10 9 4 4
1532264746113253 1 -9 1 7 33 62 7 -1
1532264746143174 0 -7 -4 -8 -3 -26 -9 -3
1532264746173093 -1 -9 0 -1 -24 -18 3 1
1532264746188053 1 -10 0 5 8 6 -1 -2
1532264746203013 -2 -2 -2 -4 -6 26 0 -1
1532264746232933 -1 13 7 4 -12 -7 2 0
1532264746255872 -5 -9 -4 -7 27 7 -8 -4
1532264746292773 -2 16 1 5 5 14 1 -1
1532264746337653 1 -10 -5 0 -14 -30 -7 -1
1532264746375552 1 -8 0 -3 26 48 -4 -1
1532264746405472 -9 -2 0 5 -15 4 -6 -4
1532264746428410 4 -3 -2 10 12 4 9 3
1532264746458330 -28 -23 -14 -5 -7 -21 -10 -6
1532264746480283 -6 0 -3 -1 3 6 8 0
1532264746510191 4 6 6 10 20 43 8 -1
1532264746533131 -3 3 2 4 22 21 1 0
1532264746555071 -1 -5 -7 -2 -8 -11 11 1
1532264746578010 -1 1 2 1 -5 8 -3 1
1532264746592970 6 5 -3 -3 0 17 -2 0
1532264746615909 -18 -3 -2 -4 -9 5 -16 -4
1532264746630869 0 1 1 1 -7 -8 13 -2
1532264746645829 0 2 1 -2 -4 -7 4 -2
1532264746675749 0 0 2 1 -6 12 10 -2
1532264746697690 2 -2 1 3 -2 -13 -4 -1
1532264746720628 -1 -1 0 1 -3 -15 2 0
1532264746750549 4 -7 -3 -4 1 -3 -7 1
1532264746788448 -3 0 -1 0 4 -4 -9 -16
1532264746810389 1 2 -3 -6 5 0 7 5
1532264746870228 -3 -2 -2 -2 -5 -6 -7 -3
1532264746908127 -1 2 3 -5 -7 -3 1 -3
1532264746959989 1 0 -3 -3 -16 -73 -9 1
1532264747027807 2 6 -8 -6 -1 -5 -2 -1
1532264747072688 -19 3 -23 -1 39 114 11 -3
1532264747110586 4 0 7 5 1 2 9 0
1532264747178404 1 -3 -4 -6 2 52 -3 -3
1532264747231265 3 -1 -5 -4 -8 4 -7 -1
1532264747283125 -1 -1 1 -1 11 13 5 0
1532264747342965 4 2 2 1 6 2 -1 1
1532264747380863 -1 -2 -4 1 -1 13 3 -2
1532264747402805 23 0 1 -3 -18 -70 -7 0
1532264747463642 -5 -3 1 -1 7 35 4 0
1532264747492573 -2 -2 -3 -6 -7 -17 -5 -2
1532264747530463 -2 1 1 3 13 19 2 0
1532264747575343 -3 -2 -5 -9 -8 -2 1 -1
1532264747598282 0 -3 -4 -7 19 11 5 1
1532264747673082 0 3 -3 4 12 1 -7 -4
1532264747777802 1 -3 -4 6 7 6 13 12
1532264747792761 -6 -3 -4 2 7 1 6 -6
1532264747883519 -12 -12 -14 -42 0 4 -25 -74
1532264747958319 11 -5 -2 29 6 17 18 30
1532264747980261 -3 -6 -10 -5 -12 -6 -30 12
1532264748040101 -3 12 1 -7 -4 -6 -6 -4
1532264748070020 2 0 11 -5 -3 -13 -1 -1
1532264748084980 3 -1 -7 -5 -11 -5 -16 7
1532264748107925 0 6 9 12 -21 -10 -5 -1
1532264748130863 4 0 0 0 12 8 9 12
1532264748205664 1 1 -2 -12 -20 4 10 5
1532264748235584 2 2 0 -1 -14 -18 13 9
1532264748295424 -4 -3 6 10 2 12 15 -20
1532264748355264 -1 12 13 -3 4 -8 2 19
1532264748378203 -5 -8 -11 1 3 6 14 44
1532264748408123 -3 -7 4 -8 0 3 -6 1
1532264748445024 0 -5 5 -9 -6 -3 17 -16
1532264748535781 3 4 4 -5 -14 1 -1 -4
1532264748550741 -1 3 0 -9 -3 -5 -7 0
1532264748610581 0 -4 -5 -27 -8 0 -4 -3
1532264748670421 0 2 3 2 -11 -11 -12 -7
1532264748813039 5 2 -2 -2 -11 -3 12 -1
1532264748842960 0 -4 -5 -10 -20 -9 7 8
1532264748955658 -2 1 4 3 10 10 -22 -10
1532264748977600 -4 -4 -7 -13 -11 -3 11 1
1532264749173077 -1 0 1 3 -1 -8 -9 -2
1532264749210975 -1 -4 -3 -5 -5 4 0 -5
1532264749240905 -2 -2 0 -2 -1 -9 -3 -3
1532264749390495 1 1 1 -1 7 -53 0 2
1532264749443354 -3 -3 -2 3 -1 12 3 0
1532264749465296 -3 -1 -2 -2 1 -9 24 6
1532264749534112 -4 1 -2 -1 33 52 -2 -3
1532264749616906 -9 -6 -7 -8 6 11 20 0
1532264749645813 -1 1 -6 -7 -26 -68 -4 -4
1532264749667754 1 -1 0 4 7 13 6 4
1532264749705653 14 -3 -5 -8 8 41 8 -5
1532264749795413 1 1 -6 -4 -41 24 10 4
1532264749840293 1 0 0 3 -6 -1 -37 -3
1532264749894149 -9 -3 -3 15 31 15 2 -4
1532264749960969 2 0 -3 -11 -46 -12 -4 -1
1532264749991888 3 -1 4 -2 -23 -8 -1 1
1532264750110570 1 -1 -3 -5 6 20 14 4
1532264750171407 4 -3 -3 -1 0 -29 21 6
1532264750185370 -4 1 -1 0 -17 12 2 5
1532264750238229 -3 1 4 2 0 17 3 1
1532264750313029 -8 -2 -3 -5 -35 -21 -5 1
1532264750410767 -5 0 0 2 9 6 -16 -7
1532264750500527 -3 -1 -4 -1 19 34 16 -3
1532264750523480 -5 -18 -15 2 10 28 -4 -3
1532264750695007 -5 -6 -2 -1 0 -9 -5 -2
1532264750725924 -3 3 -3 -1 -8 -1 -8 -6
1532264750867546 4 2 -1 -1 2 6 0 -1
1532264751003183 1 -2 -2 -1 -1 -6 -2 -2
1532264751100930 4 -6 -1 1 0 -1 7 2
1532264751130850 2 -2 -1 -3 -1 2 3 -2
1532264751145809 -1 2 -5 -2 -2 -5 -4 -1
1532264751160770 1 1 3 0 -5 -55 -1 0
1532264751182711 0 -2 1 -6 4 -28 -4 0
1532264751205650 3 4 11 28 38 17 15 4
1532264751227591 -1 -2 1 5 -11 -18 -1 0
1532264751273469 -1 -2 -10 -9 3 17 -3 -1
1532264751303388 -3 5 -1 -9 -14 11 1 1
1532264751348268 -1 -2 -6 -3 31 26 10 -2
1532264751385169 -2 -3 -5 0 3 -1 -13 0
1532264751408108 -1 0 -4 2 9 18 4 -1
1532264751446007 -1 -3 -3 -1 -13 -11 0 0
1532264751482908 -2 0 1 -2 -3 -10 -5 -2

1532264751512828 0 -2 3 0 -37 -12 15 1
1532264751535945 -1 -1 -5 -1 -7 -7 -7 0
1532264751610745 0 2 2 8 9 -5 -5 -1
1532264751662606 -1 -3 -2 2 -8 -20 -2 1
1532264751677566 -3 -5 1 -5 -5 15 0 -1
1532264751708485 -2 -1 1 -1 0 14 -3 -2
1532264751738404 -1 -3 -3 -5 -16 9 -3 -1
1532264751783284 -3 1 3 -13 1 -9 -4 -2
1532264751813204 0 4 2 4 9 13 4 0
1532264751835144 0 1 0 1 -8 -3 0 -1
1532264751866062 0 0 4 -2 0 1 1 1
1532264751880024 -3 -5 -8 -7 -2 -2 -1 -2
1532264751894985 1 -2 -1 -2 3 -6 0 1
1532264751925903 -5 -7 -5 -7 -4 4 -12 -3
1532264751947844 -2 -1 2 -1 -6 -3 2 0
1532264751962804 0 -1 -4 3 0 -3 6 -2
1532264751992724 -2 -1 0 -2 -8 -8 -2 1
1532264752015662 0 -2 -1 1 3 2 2 0
1532264752037604 -1 -2 2 0 -3 1 -2 1
1532264752075502 1 2 1 3 5 10 -4 0
1532264752128361 0 -3 -2 -1 5 33 9 -1
1532264752150303 -3 -1 0 0 8 4 -5 -3
1532264752180222 0 0 -1 1 -6 0 -2 0
1532264752195182 -3 -2 1 0 0 -5 -2 0
1532264752218121 1 -3 1 -1 -1 7 3 0
1532264752263001 1 -2 1 -3 -2 1 -1 -2
1532264752285939 0 -2 -1 -2 -1 1 -2 -2
1532264752330820 -1 0 -2 -3 -2 8 -1 -1
1532264752352761 -1 -2 -4 -4 -2 -1 -8 -4
1532264752367721 -1 -1 0 -2 1 -32 -3 -1
1532264752390677 -1 -2 -2 -3 0 0 -3 -1
1532264752420580 0 1 -1 0 -3 4 -2 0
1532264752435540 -2 0 0 1 -1 -1 -5 -1
1532264752465459 -1 -1 -2 -3 7 4 -3 1
1532264752480420 2 -1 -4 7 10 1 0 0
1532264752503358 -2 -1 -1 -6 -3 -4 1 -2
1532264752525300 0 -1 -3 1 3 -8 -4 0
1532264752555220 -1 3 13 15 -19 16 3 1
1532264752578158 -1 -2 5 -8 -69 5 -2 -2
1532264752593118 0 10 50 -4 7 -1 -9 -2
1532264752630019 -3 0 -1 -15 1 5 2 0
1532264752652957 0 -1 -2 -7 14 -5 -1 -1
1532264752682878 -2 -6 -32 -31 17 -6 -1 0
1532264752712798 3 1 7 17 23 3 5 1
1532264752735737 1 0 2 9 18 -8 1 1
1532264752757679 0 -1 -6 17 -9 -5 -4 0
1532264752802558 -2 -8 -12 -38 20 -9 -2 0
1532264752833480 -8 -3 0 -9 15 9 5 -3
1532264752885337 10 27 8 5 13 -16 -2 0
1532264752930217 0 -5 4 7 -16 -47 -1 -2
1532264752975096 -3 -7 -4 -10 -4 -21 -5 -2
1532264752998035 -5 -9 -12 -11 4 21 13 -2
1532264753028964 1 3 0 1 -2 -4 2 0
1532264753057876 0 0 1 -2 1 -8 -7 1
1532264753103753 -5 -1 -5 -2 -45 -70 7 14
1532264753132675 -4 -16 4 -1 79 59 5 -1
1532264753170574 -2 12 22 31 20 -15 4 -2
1532264753230415 2 7 11 22 -37 16 3 -1
1532264753478750 -1 4 -17 -19 4 -3 -5 -5
1532264753643310 3 -9 4 18 -70 -36 14 5
1532264753733070 -2 16 -2 2 11 28 -3 5
1532264753807870 0 -2 -4 -6 -1 3 8 3
1532264753845768 -2 -3 -1 -3 12 4 -14 -1
1532264753950488 1 -3 -2 -4 -4 -2 0 2
1532264754010328 1 6 -1 0 -7 -6 1 0
1532264754042243 0 -1 4 9 5 57 5 1
1532264754055208 -1 -1 5 2 18 -21 -6 0
1532264754108066 0 0 -1 -3 3 33 -2 0
1532264754123028 -6 -8 -1 -3 3 -19 -6 -2
1532264754168905 -3 -1 -7 3 -18 -1 13 0
1532264754198824 5 0 5 -5 6 12 -4 5
1532264754220766 -8 -7 8 -6 5 27 3 -1
1532264754235725 0 -3 -3 2 1 11 -6 -3
1532264754272627 -1 -1 -4 2 1 -18 -4 -2
1532264754295566 -1 -2 0 -1 -2 9 11 0
1532264754340446 1 4 -2 -3 2 -15 9 -1
1532264754393304 4 3 1 0 11 -11 -8 0
1532264754453144 1 2 0 1 -6 -7 -2 -2
1532264754498024 2 0 2 1 23 -7 -7 -3
1532264754565843 -1 -1 -1 -2 -10 -7 -1 0
1532264754677543 1 -2 -3 -2 5 -4 3 2
1532264754790243 -2 2 -2 0 -3 2 0 0
1532264754843101 1 0 -2 0 0 0 -1 -1
1532264754947821 -1 0 0 -1 -4 -3 -2 -2
1532264754985720 -3 1 1 1 -2 -3 1 -1
1532264755015640 0 0 -1 0 12 1 1 -3
1532264755075480 -1 -2 -3 -2 -1 1 -1 -1
1532264755128339 -2 1 1 0 17 0 -1 0
1532264755158269 0 -1 -1 -2 -2 -7 -3 -3
1532264755195160 -2 1 -1 -1 -4 -5 -3 1
1532264755301875 -1 -2 0 0 -1 -1 10 0
1532264755367699 0 -1 -2 1 -1 -2 -4 -1
1532264755390637 -1 -2 0 0 -2 0 4 1
1532264755420558 -1 0 -2 -1 0 4 -3 -2
1532264755443495 0 1 -3 0 -1 -6 -3 1
1532264755495357 0 -2 9 4 -1 -41 -10 -2
1532264755518296 -2 3 9 22 17 58 10 -1
1532264755555198 0 2 -4 2 -3 -8 -3 -2
1532264755585117 1 -1 -5 -15 -15 -8 12 6
1532264755623016 -1 1 -2 8 -4 -10 -12 3
1532264755690835 -7 -8 -4 -8 -5 -14 -4 -18
1532264755727736 -5 0 3 -13 -2 3 -13 -26
1532264755750675 9 0 -1 -2 1 2 19 18
1532264755795555 -4 3 5 4 8 3 10 -14
1532264755930195 8 15 21 -6 12 -5 11 11
1532264756005992 31 -16 -10 -1 -7 -12 21 6
1532264756036909 -6 2 1 12 -4 9 10 6
1532264756072813 2 16 17 -4 -7 -11 -2 10
1532264756132653 0 2 1 0 4 5 1 -3
1532264756193490 -5 -3 3 10 -9 -53 26 11
1532264756395949 -2 2 -2 5 15 10 13 -5
1532264756530589 3 5 2 3 2 -5 0 24
1532264756673208 2 -2 1 -3 -16 -19 -31 -5
1532264756689178 -10 -18 -9 -9 -22 -6 7 -31
1532264756748008 2 4 4 8 -25 -24 -29 -9
1532264756764962 -2 -1 -3 -5 -12 2 3 -5
1532264756800866 2 2 3 7 -2 -2 -2 -1
1532264756845746 -1 -1 -3 -1 5 -2 0 -1
1532264756882647 -1 -3 -2 -4 7 1 1 3
1532264756920546 0 1 0 0 -6 -20 -20 0
1532264756950466 -1 1 1 2 8 3 -9 -6
1532264756973421 -2 -2 -4 -5 -6 14 -19 -2
1532264757010306 -7 -9 -3 -1 1 2 10 -5
1532264757025266 5 1 1 3 -21 -33 -16 -1
1532264757063165 -3 -3 3 -2 -10 -53 -1 -1
1532264757100066 1 3 4 4 -4 -12 3 -1
1532264757115026 26 -2 -3 -2 -7 11 15 2
1532264757129986 4 1 -4 -6 8 -16 0 -7
1532264757220744 -2 -8 -8 4 30 23 -4 -2
1532264757251661 7 8 -7 -3 10 43 -4 5
1532264757272605 -1 27 8 -8 -43 5 -34 -18
1532264757318482 -4 -9 -3 -7 -4 -7 -2 1
1532264757340424 -3 39 -1 4 16 -22 -19 -8
1532264757370343 -3 -7 -14 -12 25 12 1 -3
1532264757430183 -4 5 -3 -1 5 -25 -10 -3
1532264757490023 -6 -6 3 10 3 9 -2 -7
1532264757723419 -1 -9 -6 0 -10 5 14 3
1532264757790221 -3 -5 -4 -9 -7 16 10 2
1532264757843079 -5 0 1 -5 6 -16 -1 -1
1532264757970738 -7 1 4 4 -2 2 2 -2
1532264758233036 5 4 24 6 -10 -2 -6 0
1532264758270935 9 0 -11 -5 6 2 15 1
1532264758510295 0 6 5 -2 0 1 8 -1
1532264758525255 -4 4 5 1 -5 -15 -11 -3
1532264758585095 -4 1 4 -1 -1 0 8 0
1532264758629975 -7 -2 -1 0 0 5 0 -2
1532264758690812 7 5 4 4 5 3 8 1
1532264758735692 3 5 3 2 2 -10 -21 11
1532264758772594 -4 -4 -5 -2 5 34 12 -3
1532264758825452 -1 -1 -1 -4 -4 -2 -1 -2
1532264758840418 1 3 1 2 0 -4 -9 -2
1532264758915212 2 4 5 7 -6 -27 -5 0
1532264758953111 0 0 1 12 26 21 0 -1
1532264758990012 -1 2 0 9 12 -29 -10 2
1532264759027910 -2 0 -5 -3 2 6 -1 0
1532264759080770 -2 -1 -1 -5 -8 1 2 -3
1532264759102710 1 0 0 2 12 9 -2 -1
1532264759162551 -2 -4 -3 -4 2 -2 -4 -4

1532264759200449 3 0 1 1 2 1 -1 -5
1532264759224387 1 12 11 -2 1 0 5 5
1532264759253308 -1 1 -1 3 -1 -5 -4 0
1532264759268268 -1 9 0 -7 0 -8 -4 -2
1532264759305169 -1 -27 -24 -2 1 4 6 1
1532264759337084 0 -24 -16 15 3 2 -3 -6
1532264759365009 -1 -15 -21 9 2 3 3 0
1532264759395927 -29 27 15 1 0 -7 5 -3
1532264759523585 -5 -5 -9 -7 4 7 4 2
1532264759545526 1 2 -2 -9 -4 -2 -9 -1
1532264759658226 2 0 2 9 -9 29 5 -1
1532264759710087 5 3 0 17 -10 19 4 4
1532264759785890 -6 -4 -4 -15 -16 -11 -9 -2
1532264759860684 2 -7 -13 -44 7 -13 -52 -2
1532264759973382 -4 -8 -18 -7 6 29 9 -6
1532264760227703 -1 -5 -5 0 -3 20 4 4
1532264760415201 1 -5 -6 -8 4 -11 -4 0
1532264760438140 -11 8 7 -3 0 30 7 1
1532264760490999 -1 0 -3 -11 0 48 16 0
1532264760550838 -5 -8 1 -7 -29 -75 -14 -7
1532264760580758 12 -10 -11 0 -2 7 -11 0
1532264760640599 -7 -7 -7 -5 -14 -32 -10 -6
1532264760693457 2 -2 14 25 29 -30 5 1
1532264760708416 2 -48 5 2 2 27 11 6
1532264760730358 8 8 -15 -5 -8 -10 -3 0
1532264760805158 -1 -7 -3 -3 -11 -5 -4 -7
1532264760820118 2 3 18 40 12 40 -4 6
1532264760850038 -8 20 -8 -9 -1 -26 -6 -10
1532264760992657 -1 4 -7 -31 -8 0 -2 -2
1532264761045516 0 -3 -2 -2 -1 -19 11 2
1532264761083414 -3 -4 0 -16 10 28 7 0
1532264761098374 1 -1 -3 -6 3 -45 -1 1
1532264761150236 -1 4 0 -5 -20 -21 -13 -5
1532264761203094 -5 -5 -7 -9 -10 22 -14 -6
1532264761277894 3 1 2 20 31 -1 13 6
1532264761330752 1 -2 -2 23 54 11 -11 -4
1532264761406550 -17 -8 -6 -8 -20 -28 -3 3
1532264761465393 18 -19 -11 -12 -43 -2 -11 -1
1532264761563131 18 -4 -7 -11 -6 -24 -5 0
1532264761622971 -6 -4 4 22 10 28 9 4
1532264761675829 -7 5 -3 0 15 -15 -1 2
1532264761772571 -2 -6 -5 -5 -11 -35 -5 -2
1532264761818449 -2 -4 -2 -1 -7 -11 -2 -1
1532264761855349 2 -2 0 0 0 13 -4 -8
1532264761893248 0 -5 -2 1 0 7 -11 0
1532264762035867 -2 0 1 -1 -17 -7 -5 -2
1532264762125627 0 -4 -6 -6 3 -3 -4 0
1532264762140587 -1 1 -2 -2 -10 -18 -2 0
1532264762193446 -1 -5 0 3 3 -52 -6 0
1532264762223366 -1 1 -2 -2 0 3 0 -3
1532264762320107 -4 -2 -2 -1 2 33 -3 -5
1532264762395904 -1 -1 8 12 15 -28 -4 0
1532264762425825 0 -1 0 -2 22 17 0 -1
1532264762470704 1 5 2 0 -2 6 -1 1
1532264762530544 0 -1 -3 6 9 17 1 -1
1532264762575424 -4 -5 -4 -8 3 4 1 -2
1532264762635265 -3 -6 -2 -7 -20 -23 -7 -2
1532264762681142 -2 -1 4 6 4 7 0 1
1532264762725024 -2 -2 -5 -12 5 8 -6 -5
1532264762762923 2 1 1 -2 -22 -9 -8 -1
1532264762882604 -1 -1 3 4 -8 2 5 -9
1532264762943440 -7 -4 -4 0 11 7 31 2
1532264763003280 -7 0 3 0 -7 2 -3 -3
1532264763115978 -6 -35 -4 -1 0 -3 -21 -15
1532264763272560 16 0 -16 -7 -36 -13 2 4
1532264763318438 2 6 6 -2 9 5 -1 6
1532264763333398 -1 1 2 1 -17 -6 1 -3
1532264763542838 10 -12 -60 -95 7 8 19 13
1532264763610656 -8 2 10 44 31 41 -39 -49
1532264763647558 -7 -13 -13 -6 -10 -6 29 24
1532264763670496 3 -1 6 10 4 -13 10 13
1532264763745296 -5 -6 -9 0 -12 -18 -22 -18
1532264763777211 8 3 2 -1 -4 -8 29 35
1532264763798155 -3 -5 -8 -14 -15 -10 -29 -9
1532264763895893 0 4 9 8 5 19 -25 -18
1532264763917851 6 4 4 1 -15 -7 -9 0
1532264763947768 -7 -8 -7 -8 -2 -28 1 -7
1532264764022554 0 0 0 1 -9 15 46 13
1532264764060453 -5 2 5 9 2 10 -6 -18
1532264764091371 0 -1 2 -1 -37 -5 -7 -2
1532264764120293 -1 -3 0 -1 -2 -2 0 -1
1532264764150214 -2 2 -3 -2 -5 -12 1 -4
1532264764180133 2 1 -1 1 0 -27 5 -3
1532264764195093 -3 -1 -4 0 -2 13 13 -1
1532264764262920 -2 -3 -2 -7 -19 28 0 2
1532264764278869 -3 -1 -2 -6 15 29 -11 -5
1532264764300811 -2 -1 1 8 -16 -46 -9 -3
1532264764375610 4 2 3 33 3 22 -3 1
1532264764406538 -2 -1 -2 -12 -25 18 -9 -2
1532264764428469 -1 1 -1 0 -1 49 -3 1
1532264764465370 -3 1 -3 -2 15 24 -19 -18
1532264764488309 2 0 3 2 7 -27 12 -1
1532264764595023 30 3 -1 0 -7 -49 -8 6
1532264764637909 -14 20 1 0 -45 -12 7 0
1532264764667830 0 21 5 11 0 -6 -18 -8
1532264764697749 8 16 8 -9 -3 9 -4 0
1532264764757589 2 -1 4 8 -20 29 11 3
1532264764780528 4 16 5 4 -4 -9 11 2
1532264764825407 0 5 -2 -8 25 13 5 -4
1532264764893226 4 1 4 -11 -43 5 -22 -4
1532264764968026 -4 0 -1 -15 -28 -29 -10 -6
1532264765020884 -5 1 0 6 6 45 8 -1
1532264765042826 -2 -3 0 4 -24 -17 -36 -10
1532264765410842 -2 3 -1 1 3 -3 18 13
1532264765515562 -7 -7 -2 6 7 16 -1 -3
1532264765628261 -7 -10 -1 -1 -7 -14 -1 1
1532264765837701 -2 -3 1 -6 -51 -8 -10 -2
1532264765890570 4 0 1 1 5 -19 -1 3
1532264765928458 -2 0 2 -7 -1 -6 2 1
1532264765980319 2 8 3 1 4 3 -7 -1
1532264766025200 -3 -1 1 1 9 15 -5 -5
1532264766070079 -3 -1 -3 -5 -10 -39 -9 -3
1532264766093017 0 3 4 -1 -4 9 -5 1
1532264766130917 -1 -4 -5 -2 14 4 -20 -4
1532264766160837 -1 -2 2 2 7 -7 -8 -1
1532264766182777 5 7 4 3 3 25 4 1
1532264766227657 -4 -2 0 0 13 8 -9 -3
1532264766257578 0 -1 1 -2 1 39 0 2
1532264766274550 1 1 5 -2 0 6 -2 -2
1532264766318415 -1 -2 -4 0 -6 -9 -3 1
1532264766400196 -1 -2 -4 -1 9 -8 5 -1

1532264766430116 3 0 1 1 3 6 3 2
1532264766468015 2 1 -1 -2 0 42 0 -3
1532264766490973 -1 -1 0 -1 -1 9 1 -2
1532264766513893 -1 -2 -5 -2 22 -39 -12 -3
1532264766550794 1 1 1 -1 -6 -30 -7 -1
1532264766587695 -1 2 5 0 3 6 -4 -2
1532264766602655 0 0 -1 -5 -5 4 -2 -1
1532264766640554 -1 4 6 -1 -1 10 2 -1
1532264766686446 -2 -1 -2 -4 5 17 8 -1
1532264766708373 -2 -3 -3 0 -5 -11 9 -3
1532264766730314 0 -2 -1 0 1 -1 -1 1
1532264766760233 0 -1 -1 -2 -4 4 0 0
1532264766813093 -1 2 -7 -4 -10 -41 -7 -2
1532264766865951 -2 0 -2 -3 -4 7 -6 -1
1532264766925791 2 -3 2 -1 -34 4 1 3
1532264766970671 1 -2 -6 -4 12 -2 -1 0
1532264767007573 -1 0 1 -2 -2 -6 0 0
1532264767023534 3 0 -1 -4 15 40 11 3
1532264767045472 -3 0 1 -1 -9 -33 -4 -2
1532264767075391 -3 -3 -5 -1 8 18 -9 0
1532264767128250 -4 -4 -4 -1 2 -2 2 -3
1532264767150192 0 1 -2 0 -1 0 1 -2
1532264767173130 0 1 2 9 2 11 -6 0
1532264767188090 -1 -2 0 -5 -2 -1 -2 0
1532264767203050 -1 -2 -3 -3 -1 -1 -1 -1
1532264767224991 -2 0 -2 -4 -1 -2 -4 -1
1532264767240949 1 -1 -1 0 1 1 -6 0
1532264767270868 -1 -3 -1 -2 -2 0 -2 -3
1532264767307770 -2 -2 0 0 -1 -1 -2 -2
1532264767322730 -1 -3 -1 -1 -3 4 10 -2
1532264767345668 -1 -2 0 -2 0 2 0 0
1532264767367609 -1 1 0 0 -3 -2 2 1
1532264767420468 -1 -2 2 -4 -2 -1 0 -1
1532264767443406 -2 0 0 -1 -1 2 7 -1
1532264767473327 -1 -5 1 -1 0 0 -2 -1
1532264767488287 -3 -2 -4 -3 0 -1 2 0
1532264767518207 1 1 2 0 -2 0 1 1
1532264767548126 3 3 9 6 0 8 3 1
1532264767563087 -3 -3 -5 -3 -7 -2 -2 -1
1532264767593007 0 4 4 4 1 7 0 0
1532264767615946 0 2 -7 -15 5 14 1 -3
1532264767660826 1 3 0 -5 -43 -5 -2 -2
1532264767697726 -1 0 -5 -6 19 7 2 -2
1532264767727648 1 -5 -11 -36 -26 -7 -2 0
1532264767757566 -1 -2 2 7 7 0 1 0
1532264767818404 0 0 7 8 -10 2 9 2
1532264767848324 0 -4 -1 2 8 -8 0 0
1532264767893204 -3 -2 -3 -3 -18 15 -6 -2
1532264767923124 -3 -3 -5 -13 26 18 -2 -1
1532264767990943 2 0 -5 -3 15 -11 3 0
1532264768035822 -7 1 5 3 -14 -13 -7 -3
1532264768072724 -2 -1 -3 -1 16 -5 -4 -3
1532264768110623 3 -11 11 1 -26 -62 -8 2
1532264768155503 -2 27 -1 0 -17 39 2 -2
1532264768185423 2 10 -25 -25 2 -8 -2 -2
1532264768216340 -1 -41 -18 -17 -47 7 0 2
1532264768290143 -2 -8 -2 -14 -18 -26 0 -1
1532264768313081 0 34 1 -13 3 -16 -9 -4
1532264768432761 -13 21 27 11 8 8 -10 -6
1532264768492601 30 -11 -5 16 66 3 4 -3
1532264768515540 -11 50 3 -37 -53 -7 2 -12
1532264768568399 7 2 -6 5 -4 -17 4 -8
1532264768613278 4 -8 15 -15 10 0 14 15
1532264768680099 5 9 30 15 14 -35 -12 -3
1532264768830697 -5 -50 -17 -18 6 -2 -5 -4
1532264768928436 -3 -3 -2 -1 3 7 -10 -2
1532264768973316 -11 2 -2 -4 -6 -6 -5 -25
1532264769019193 -5 -2 2 0 1 -2 12 -5
1532264769092996 0 -1 1 -4 -4 -2 -3 3
1532264769160814 -1 -1 -2 -4 2 1 2 6
1532264769273513 -1 1 -3 5 24 5 9 -1
1532264769333353 6 5 2 6 33 38 1 4
1532264769378233 -1 -5 -1 -3 13 58 6 0
1532264769453033 -1 -4 -5 0 -25 -63 2 -2
1532264769490932 -3 -2 0 -2 1 -15 -3 -1
1532264769505892 -2 -1 0 0 -11 8 4 0
1532264769557753 1 1 0 2 -9 -8 0 -1
1532264769602632 -2 -2 -3 0 21 -25 -9 -1
1532264769625571 -1 0 -1 -3 -11 -13 0 -3
1532264769663470 -3 0 1 -2 -11 -9 -6 -4
1532264769700371 -1 2 3 -3 -8 -8 3 0
1532264769730292 -3 -4 -5 1 1 22 5 -2
1532264769753229 0 3 2 -2 -3 3 4 0
1532264769783151 0 -2 -3 -6 10 -3 -9 -2
1532264769820051 -2 0 -3 -3 -4 -2 -3 -1
1532264769850969 1 5 6 0 -3 14 3 1
1532264769881886 -1 -4 -1 -14 1 -5 -6 1
1532264769902830 -2 -4 -2 2 -11 -7 -2 -1
1532264769977630 0 -2 3 25 29 -5 11 2
1532264770045449 3 0 5 14 32 0 -12 5
1532264770090329 -2 -1 0 3 24 8 1 5
1532264770128228 -4 -5 4 -4 -19 -2 -6 5
1532264770255885 -6 20 7 -15 -18 -4 -13 10
1532264770367587 1 62 31 -12 -10 2 7 9
1532264770428424 0 -8 -4 -15 -27 29 5 13
1532264770473305 -2 -5 -10 -2 -2 6 14 2
1532264770495246 -1 -13 -10 -4 1 10 -32 4
1532264770533145 7 -1 -5 2 24 -6 0 4
1532264770563065 -5 -5 0 3 3 0 -14 -5
1532264770600976 4 0 6 -6 -8 -21 6 7
1532264770637865 -2 2 0 1 3 -4 11 -2
1532264770712664 6 5 14 52 29 -1 9 12
1532264770735603 3 2 -3 -13 6 23 2 13
1532264770780483 -3 -3 -2 -2 6 -24 -7 0
1532264770818382 -9 -7 -10 -15 -2 15 20 -4
1532264770840323 -3 -1 1 0 9 -15 -27 -11
1532264770863262 1 -1 -2 -1 -6 -9 -86 -9
1532264770893182 -4 -2 0 -7 -9 0 -7 -7
1532264770915123 -8 -4 -5 -8 -3 9 44 -11
1532264770960003 -5 -3 -4 -8 -8 0 14 2
1532264770997902 -5 -5 -2 0 4 -3 3 9
1532264771044776 -1 -3 -4 -11 -1 -11 -27 -1
1532264771065721 -1 -2 -2 -4 4 16 41 2
1532264771125561 -3 0 -1 0 11 5 12 1
1532264771157493 0 -2 0 3 8 1 -11 -1
1532264771215320 -1 -1 -2 -10 7 -73 -14 -12
1532264771247235 1 0 1 3 13 70 -2 -2
1532264771292115 36 3 0 -2 8 34 -33 -2
1532264771305080 -32 4 1 2 -8 -42 13 -1
1532264771342979 0 1 3 0 -6 14 -6 4
1532264771365918 -7 -11 -7 -2 -46 -20 12 -6
1532264771425757 -29 0 9 5 35 63 3 3
1532264771485597 -6 -8 -10 -10 16 -13 1 -3
1532264771530478 12 27 -1 -5 -10 -8 11 4
1532264771545438 4 1 2 -7 -19 -21 -17 -2
1532264771583336 7 16 7 -2 15 11 2 6
1532264771598297 1 -5 -8 -22 14 -26 1 1
1532264771620238 -1 -9 -6 5 -58 -33 -10 -3
1532264771635197 -5 -9 -2 -1 17 24 6 -5
1532264771665118 4 -5 -8 10 7 -13 14 1
1532264771689053 1 -4 -6 6 2 -49 -1 1
1532264771725955 1 -3 4 12 35 12 1 0
1532264771762856 -3 -1 4 5 -18 1 -10 -8
1532264771792778 -1 -4 -10 -25 -60 -6 3 0
1532264771807745 -3 1 4 10 -6 -6 -34 -8
1532264771830675 0 -2 -3 12 15 21 -9 -2
1532264771852616 -2 -2 -2 2 22 -2 20 2
1532264771875555 16 0 -1 4 -8 -3 7 5
1532264771898494 -7 -1 0 -1 2 -10 -18 -5
1532264771913454 -3 -2 1 2 -10 -34 3 3
1532264771965315 -5 0 2 1 -3 0 -6 -7
1532264772010195 -24 1 0 1 -18 -43 -4 -10
1532264772070035 -2 2 1 5 16 38 3 4
1532264772175752 1 -2 1 -3 -6 -24 -27 -5
1532264772220632 11 -2 -1 -7 -13 -12 -9 -2
1532264772318371 30 2 -4 -7 -13 -17 -6 9
1532264772348291 -33 -5 -1 0 3 -3 2 -8
1532264772460989 -11 1 2 -5 -11 -6 -16 -17
1532264772512851 15 -3 -4 -2 13 -15 -6 7
1532264772587650 -18 -2 -6 -3 -8 -24 -1 -2
1532264772670429 -5 1 1 2 0 9 16 2
1532264772806067 2 -3 -5 0 1 5 3 -4
1532264772865906 12 3 0 8 1 0 1 17
1532264772917768 3 -1 -12 -7 -1 -7 9 9
1532264772971624 0 1 4 3 -1 17 7 11
1532264773120227 -10 -5 -10 -2 -6 -4 6 2
1532264773165106 1 10 1 -4 3 28 0 -1
1532264773225944 -1 4 4 -1 -1 25 7 1
1532264773247896 -6 -5 -2 -5 7 18 -4 1
1532264773270823 -30 3 1 -2 -13 -29 -18 -4
1532264773285784 1 -1 -2 4 23 37 -5 -1
1532264773315704 7 -6 -7 -12 -8 -14 -6 -4
1532264773330664 6 -3 -2 -1 -9 -5 -4 -2
1532264773352605 -6 5 5 -6 22 -10 -21 -1
1532264773398482 8 2 -4 1 -7 6 5 -5
1532264773458323 4 3 0 -4 5 1 2 1
1532264773488258 1 -1 -1 -5 -3 -6 10 0

1532264773511182 -2 -5 -9 -2 -1 0 7 -1
1532264773548083 -3 1 0 0 -1 36 0 0
1532264773570024 -8 -4 -5 1 27 11 -9 -5
1532264773592962 -6 1 0 0 -13 -17 -8 -1
1532264773630861 -8 -1 3 -2 4 4 -2 3
1532264773653799 -3 2 -1 0 -4 8 0 -4
1532264773667763 -5 1 6 0 -4 0 -2 -8
1532264773682726 3 0 -1 -3 -5 2 -2 0
1532264773714639 -5 0 -1 -2 -4 -8 -5 -2
1532264773727619 -1 -3 -2 -3 -2 3 -3 0
1532264773757523 -4 -4 -1 -1 -3 10 2 3
1532264773780461 -19 0 -1 -2 -3 -3 -7 -4
1532264773803400 1 1 -1 1 2 -7 1 -1
1532264773825341 3 0 -3 1 -1 -5 1 0
1532264773848279 3 -1 4 -1 -2 -5 -4 -1
1532264773870221 -3 -3 -2 -2 -2 1 6 1
1532264773885180 -2 -3 -1 -2 -1 0 -2 -1
1532264773900141 0 -3 4 5 0 -5 -1 0
1532264773938039 0 -1 -1 0 -3 1 0 0
1532264773968970 -2 -1 -4 -2 3 19 -10 -2
1532264774005858 -2 -4 -2 0 -1 3 -1 -2
1532264774027799 -2 0 -2 -1 3 9 -4 -1
1532264774042760 -1 -3 1 -2 -1 -1 -3 0
1532264774080658 -2 2 0 -1 1 -4 -2 0
1532264774095618 0 -2 -2 -2 -1 -6 -4 -1
1532264774117560 -1 0 0 -2 0 11 1 -2
1532264774132520 1 -1 0 2 2 -1 0 0
1532264774163437 -2 -1 -3 -3 -5 -14 1 -2
1532264774200338 -2 -1 -2 0 -2 -1 -2 -1
1532264774230258 -1 0 0 -1 -3 -5 -1 0
1532264774275138 -2 1 -1 -1 -3 -2 0 0
1532264774305058 1 0 -1 0 0 -1 -1 -1
1532264774321016 -2 -2 -2 -1 -1 -1 -1 0
1532264774342957 1 -1 0 0 -2 -5 3 -2
1532264774357918 -2 -2 1 -1 -2 -2 1 0
1532264774395815 0 -3 -3 0 2 0 -2 1
1532264774417757 0 -2 0 0 -1 0 -1 -1
1532264774455655 -2 -1 1 -1 -2 -2 0 0
1532264774477596 0 3 -2 -1 -1 -2 -1 0
1532264774515495 -1 1 -2 -2 -1 -2 -2 -2
1532264774538434 -1 1 0 -3 -1 1 -3 -1
1532264774553394 -2 0 -5 0 -1 -3 0 -2
1532264774583313 1 -1 0 1 -2 0 1 -1
1532264774598274 -3 0 -3 -3 -3 -2 -2 -1
1532264774635175 -1 0 -2 -2 0 -2 -3 0
1532264774658114 -2 0 -1 0 1 -1 -2 0
1532264774680056 1 -2 0 -1 -1 -2 -1 -1
1532264774710973 -2 -4 -5 -1 1 -2 -1 -1
1532264774747874 -3 0 1 -2 -2 1 0 0
1532264774777793 -1 0 0 -2 -3 -2 -3 -2
1532264774860573 -2 -1 -2 0 -1 -1 -2 -1
1532264774883512 -1 -2 0 0 1 -1 -3 -2
1532264774920413 -1 -3 0 -3 1 -4 1 0
1532264774935373 1 -2 -2 -2 -1 -3 0 0
1532264774973271 -1 0 -2 -2 0 -2 -1 -1
1532264774988231 -1 -2 4 1 -1 0 -1 -2
1532264775063031 -1 -1 -2 -2 1 2 0 0
1532264775077992 -1 -1 -4 -4 -3 -4 -1 0
1532264775122873 -4 3 17 34 28 -14 1 0
1532264775160770 4 2 11 7 8 11 -6 -4
1532264775190704 -5 -8 -11 -30 14 6 3 -3
1532264775205650 -1 1 -1 -4 -32 -6 0 2
1532264775235570 -4 -5 -11 -34 -12 -68 -3 -4
1532264775273469 -4 -4 -16 21 -16 25 -1 0
1532264775303389 0 1 -3 -8 -11 -13 -1 -1
1532264775378189 3 4 8 -4 9 -37 -3 0
1532264775393149 -1 -1 -7 1 -4 -5 -12 -2
1532264775430050 -1 0 -3 0 2 -15 3 1
1532264775475927 -3 3 1 1 8 6 -3 -4
1532264775490887 -3 -6 -4 -3 -24 -11 -3 0
1532264775550733 0 -5 -3 -8 19 26 -11 -4
1532264775565687 0 -8 2 12 -13 -25 -10 0
1532264775580647 -2 1 -1 -7 -20 15 -9 -3
1532264775602589 3 3 0 3 1 -4 -5 -3
1532264775633506 1 -1 -2 3 -32 -9 2 4
1532264775648465 -3 28 19 -9 -22 -20 7 -2
1532264775670407 -2 -20 -14 8 33 23 2 -1
1532264775715287 -7 -17 -13 -8 -8 -14 -19 -10
1532264775790087 0 24 4 0 -11 10 -24 -11
1532264775813026 -17 -11 -6 1 68 19 1 0
1532264775917746 9 6 3 -7 7 27 0 -1
1532264775940685 -1 -3 -2 -2 -4 0 -1 0
1532264776030444 -4 1 2 4 16 -10 -2 -2
1532264776045404 -4 0 0 1 4 17 9 0
1532264776060372 -6 1 0 0 -12 -2 -2 0
1532264776090285 3 0 0 0 0 -7 -6 -2
1532264776150125 1 -1 -2 -2 2 20 -6 1
1532264776247863 4 2 2 12 8 -1 6 -1
1532264776285761 -1 -4 -5 -2 7 1 -1 -1
1532264776315682 -1 -5 -1 -8 -6 3 -2 -1
1532264776345602 -1 1 -1 -8 -2 -8 3 1
1532264776375522 -3 0 3 -2 -23 -12 -21 -5
1532264776420402 -3 -7 -12 -10 -6 27 -9 0
1532264776473266 -5 -2 2 8 26 -63 -13 -3
1532264776510162 -22 -1 3 -5 -27 -28 8 -3
1532264776533100 0 -4 -4 2 -14 8 6 2
1532264776563020 24 4 2 -3 -16 -78 -4 -1
1532264776615879 -1 -3 -3 -1 10 -11 -1 12
1532264776637820 4 -8 -3 2 18 38 9 -2
1532264776682700 -9 2 -3 -1 -7 -1 6 -4
1532264776750519 0 -1 -3 0 -2 -2 -7 2
1532264776825319 12 -1 -3 -2 -4 2 -4 1
1532264776863218 8 -11 -6 1 7 7 -1 2
1532264776893138 -10 1 2 -2 -7 -11 -1 -2
1532264776923058 -4 2 0 1 -6 -10 2 0
1532264776952977 -6 -1 -2 1 5 -1 -5 -6
1532264776975916 -6 -3 -1 -2 -7 -8 3 2
1532264777027777 7 1 -1 -5 1 -4 -3 3
1532264777132498 -8 36 10 6 -39 -34 -4 -3
1532264777170396 -4 -8 2 5 8 34 6 3
1532264777193335 -1 -3 -1 -12 -18 -11 10 1
1532264777283094 -17 -21 -4 6 5 -5 5 3
1532264777372855 -2 3 -9 -14 8 -11 -17 -3
1532264777395793 3 0 4 23 12 -7 -10 -5
1532264777485553 2 -2 -7 0 2 7 13 3
1532264777500513 -21 -6 -8 -5 10 -5 -16 -13
1532264777523452 3 2 -7 -3 -19 -2 9 12
1532264777545393 -12 19 15 0 -43 7 14 16
1532264777583291 -8 -44 -67 -3 3 -6 6 -1
1532264777605233 37 -11 -4 16 16 8 -13 -16
1532264777680034 55 11 -19 -9 2 -2 -15 -11
1532264777755848 8 -16 4 -3 14 -5 24 15
1532264777785768 7 10 14 15 15 -1 2 -10
1532264777837630 -12 -5 2 -3 -4 1 -4 -9
1532264777913427 -2 -1 -2 4 3 12 11 10
1532264777928387 42 7 8 8 -13 14 -17 -1
1532264777943347 0 -3 -2 -9 -3 1 1 5
1532264777973267 -9 -4 -1 -7 -7 -1 10 -3
1532264778010179 -3 1 2 0 5 18 -1 -10
1532264778048067 -2 -1 -2 1 8 3 13 12
1532264778085965 8 -2 2 -8 -40 -46 -78 0
1532264778137827 49 -7 -5 2 10 18 -60 -26
1532264778160765 5 -1 3 -1 15 -9 -4 6
1532264778258503 -14 -13 -16 -18 12 -27 6 -4
1532264778340290 -6 -10 -7 -2 11 -16 8 2
1532264778393144 5 2 -6 -3 16 1 8 8
1532264778446002 -2 2 2 6 13 10 15 10
1532264778490891 -2 -3 -2 -5 -3 -5 -27 -2
1532264778505843 -42 -1 0 1 0 -36 10 -5
1532264778550722 -13 -4 -1 0 -12 24 9 -6
1532264778572664 3 -5 -2 -1 5 33 -12 3
1532264778602584 1 -1 -2 -1 16 -30 0 0
1532264778617544 -4 0 0 0 -12 -23 -6 -1
1532264778640497 23 4 0 1 -6 -15 16 6
1532264778670402 12 1 -1 1 34 64 16 7
1532264778693341 -3 1 -2 -6 6 21 3 -2
1532264778723271 -16 -4 0 0 -10 -40 -1 -12
1532264778760162 -2 1 2 6 -1 31 6 5
1532264778783101 -11 -8 -4 -19 18 -3 11 0
1532264778842941 0 -6 -1 3 6 -20 1 -7
1532264778910760 -4 -11 -2 -7 -14 10 21 -9
1532264778947661 -21 0 -10 -7 27 14 -18 -13
1532264778964616 -1 -13 -5 -7 -11 -18 -1 -3
1532264778977581 -3 -5 -4 -4 5 -3 3 1
1532264779045400 -6 -5 0 11 21 23 -10 -6
1532264779113219 5 -3 -3 -5 -41 2 -3 -6
1532264779135160 -2 -1 4 25 13 20 4 0
1532264779173058 -1 -2 -3 -6 -1 -14 0 -2
1532264779210957 2 1 1 -7 -7 14 6 3
1532264779255853 0 3 7 31 -2 16 5 0
1532264779270797 1 -2 -1 -3 -23 -76 8 3
1532264779330637 -4 -8 -1 22 11 -18 7 4
1532264779360557 2 3 0 -7 -55 -76 -13 -2
1532264779450317 -3 2 2 -7 -28 -15 10 -1
1532264779495197 -13 -12 -5 2 -70 -6 10 0
1532264779585954 -1 3 2 -3 -44 -9 4 1
1532264779615875 1 -10 -1 4 -32 -68 5 0
1532264779712616 1 -1 -2 -3 16 32 1 4
1532264779765474 13 -10 1 -7 -14 -34 -20 -10
1532264779825314 -1 -1 -5 6 -24 -22 12 4
1532264779878173 -3 0 0 -8 -4 5 6 -1
1532264779952973 -6 -2 -1 -9 65 25 4 -2
1532264780042733 0 -2 -2 -5 4 -25 -2 3
1532264780230232 0 0 1 0 -4 4 -1 0
1532264780320995 -1 -2 1 2 5 -14 -2 1
1532264780447650 -6 -2 0 -3 -2 -17 -14 -4
1532264780470588 11 1 1 -2 0 16 2 -1
1532264780485549 -3 0 -2 -8 -4 23 0 -2
1532264780515469 0 2 2 -3 -11 3 1 -1
1532264780538407 -2 -7 -4 -5 0 54 7 1
1532264780568327 2 -3 0 2 -8 2 0 1
1532264780613207 3 1 -2 -2 5 12 -4 -2
1532264780628168 18 -1 -2 -2 -12 -16 0 5
1532264780650109 5 -6 -5 1 -6 -24 -18 -22
1532264780688007 -5 -2 1 4 14 24 -3 5
1532264780702967 -8 -1 0 2 -2 -11 -10 3
1532264780725906 7 1 0 3 3 9 9 4
1532264780762807 14 -2 0 1 -8 -21 -19 -9
1532264780785746 2 -1 0 -3 2 14 -5 0
1532264780807704 -8 1 0 -1 0 -14 1 1
1532264780830626 -8 0 -2 1 -6 0 3 -3
1532264780875507 -9 -4 -1 -5 -4 -22 -10 -4
1532264780898445 0 -4 0 1 -1 14 7 5
1532264780944322 -19 -5 -4 -1 -1 17 2 1
1532264780980226 -5 0 0 1 0 -16 -3 -7

1532264781010146 0 3 -3 -2 3 -11 -4 -3
1532264781041070 -16 -6 -3 -4 5 5 -1 -1
1532264781085943 -7 0 -3 -1 -8 -29 -4 -3
1532264781145783 3 -2 1 0 7 36 6 2
1532264781175703 0 -2 -3 -1 -5 -9 13 -6
1532264781205623 -25 3 1 0 5 0 -4 -3
1532264781250503 -9 -2 2 -2 -2 -11 -6 -2
1532264781280423 8 -4 -2 -1 3 15 -7 -1
1532264781295383 -5 -4 -1 -1 -2 9 2 -3
1532264781340263 4 -4 -1 2 6 3 4 1
1532264781355223 -1 -5 -6 2 43 10 3 0
1532264781385143 0 3 -3 -1 -18 -3 -4 0
1532264781408082 -3 -4 1 1 -1 7 1 0
1532264781431033 2 2 0 1 -3 1 -1 0
1532264781452962 0 3 1 1 -4 16 5 2
1532264781520780 5 -5 -6 -7 -17 -26 -28 -2
1532264781535740 4 1 -4 -1 -8 10 3 0
1532264781565660 1 4 4 -1 36 15 2 1
1532264781580620 -2 0 -6 -6 6 12 -3 -1
1532264781610540 0 0 -3 1 -10 -49 0 0
1532264781625501 -4 1 -3 -2 -13 -27 -2 -5
1532264781663399 0 0 -1 0 5 8 1 0
1532264781693319 -3 -1 -5 1 -2 1 -1 -1
1532264781730220 -2 -2 0 0 -2 -3 1 -2
1532264781745180 0 0 0 2 2 -1 2 1
1532264781768119 0 1 -2 1 -3 -1 -1 -1
1532264781798039 -2 -5 -1 2 1 -1 -1 -1
1532264781835938 0 0 -1 -3 -3 6 11 1
1532264781865857 -1 1 -2 0 -1 -1 -1 -2
1532264781895778 -2 -1 0 -2 -4 -1 -1 -2
1532264781947653 -1 -1 -1 0 3 -1 3 -1
1532264781962599 0 -2 -4 0 3 2 -2 -1
1532264781993516 0 -2 0 -1 -3 -1 -1 -1
1532264782030418 0 -2 -1 0 -13 -4 -1 -1
1532264782045377 0 0 -1 0 -5 -1 -1 0
1532264782090258 -1 1 0 1 -3 0 1 -2
1532264782105217 0 -1 -2 -1 1 4 1 -1
1532264782120177 -1 -1 -2 -4 -5 -3 -2 -1
1532264782143116 -4 -3 -1 -1 -2 -3 -4 -1
1532264782158077 -1 -2 -3 -1 1 -2 1 -2
1532264782173036 -2 -1 0 -1 -2 -4 -4 1
1532264782202956 -2 0 -1 -2 0 1 -4 0
1532264782217916 -1 -4 2 1 -5 -4 -4 -1
1532264782262796 0 -2 -1 -2 0 -1 2 -1
1532264782285735 -1 -1 -1 -3 -5 -4 -5 -2
1532264782307676 0 -2 -2 -1 -2 -3 -3 -2
1532264782322636 -4 0 -2 -1 -2 -1 -1 -1
1532264782337596 1 -1 -3 0 3 -1 1 -1
1532264782360535 -1 -1 -2 -3 -1 2 0 0
1532264782390467 -1 0 1 0 0 1 0 -1
1532264782405415 -2 -2 1 -2 -3 -1 -3 0
1532264782458274 -3 -3 -2 -4 -6 -9 2 -2
1532264782503153 -2 1 0 1 -1 4 1 -1
1532264782570972 3 4 8 8 8 16 0 0
1532264782592913 0 1 -5 -3 3 -2 0 1
1532264782630812 -1 -4 3 -15 -10 -4 -3 -3
1532264782697633 -6 -10 -1 -17 4 -5 -5 -5
1532264782818310 1 -1 -5 3 57 2 -4 0
1532264782833271 -3 4 3 17 17 7 -2 0
1532264782960957 -3 -3 -1 0 -6 6 -5 -2
1532264783042738 3 5 2 1 0 20 -6 -3
1532264783095596 -1 -7 -3 7 20 18 4 2
1532264783133495 0 -7 -3 -9 15 -6 -3 -2
1532264783208295 -5 -6 8 -5 11 17 -20 -8
1532264783238215 1 -8 -4 7 15 -39 13 -1
1532264783253181 2 -8 0 -2 3 29 -6 1
1532264783290080 -3 -2 0 7 -12 -2 -2 -1
1532264783335954 1 2 -5 0 -7 -15 -7 -3
1532264783365875 -3 -3 1 9 20 -2 0 3
1532264783410754 0 0 -6 -5 -7 2 -1 3
1532264783432695 -1 -3 -1 1 26 11 -13 -4
1532264783515474 -5 2 1 0 -7 -3 -11 -3
1532264783553372 3 -3 4 5 -5 -3 -4 -2
1532264783598253 -5 -3 -8 -12 -14 -20 -7 -4
1532264783620194 -4 -8 1 5 -54 12 5 2
1532264783643132 -15 5 2 -5 45 37 -11 -4
1532264783725911 5 18 5 1 -4 -26 0 -2
1532264783800710 21 -73 -3 1 -55 -43 6 7
1532264783867532 -8 8 -1 13 51 53 0 -2
1532264784197650 -4 0 0 -1 1 -4 9 4
1532264784235548 -4 -4 -1 -3 1 6 -2 -16
1532264784280428 8 18 8 -3 -14 -2 0 2
1532264784310349 19 -14 -13 -3 -6 -40 -2 -36
1532264784385148 0 1 -5 -2 7 -12 -5 -2
1532264784423047 6 3 6 -1 -1 42 6 0
1532264784467927 2 0 -1 1 -5 16 0 0
1532264784506823 1 -4 -1 -8 -12 -26 -4 1
1532264784520785 9 -3 -4 -4 -11 25 5 0
1532264784550705 -3 3 -1 -2 12 -4 4 0
1532264784580642 1 2 2 -1 -9 -11 -1 1
1532264784642460 1 -2 -3 -2 -5 12 0 1
1532264784663404 4 0 1 -5 -3 -18 -13 -5
1532264784693324 -1 -1 0 -4 -5 -34 -2 -3
1532264784723272 8 -1 -2 0 -3 1 4 10
1532264784760145 -7 -2 -3 -1 10 2 -8 1
1532264784813004 -1 -3 0 0 -5 -16 19 -1
1532264784850902 -1 0 -3 -3 11 5 -1 -2
1532264784872844 -4 -2 -3 -2 2 -4 -7 0
1532264784895783 -1 10 -4 0 -5 0 -2 -1
1532264784925702 2 -1 -3 2 -4 -5 0 -1
1532264784977564 0 -2 -3 0 15 11 8 1
1532264785038401 -1 -2 -13 -15 15 -1 -12 3
1532264785090268 -5 -3 2 10 3 3 -8 -7
1532264785113201 2 4 5 -1 -4 5 6 18
1532264785158081 2 -2 0 -4 4 7 1 -5
1532264785181025 -1 2 4 -3 -15 10 1 -1
1532264785202961 0 -1 -8 -18 -3 -8 0 -3
1532264785292736 -1 -22 -9 -7 -3 -6 -6 3
1532264785315659 -2 -8 -7 -18 -11 -7 -22 19
1532264785361539 -6 0 -4 -3 2 -3 2 -40
1532264785450300 -1 17 10 -9 -3 8 -1 -3
1532264785473275 -2 -5 -5 -5 4 0 -3 5
1532264785540059 5 6 10 4 -1 -2 4 -1
1532264785555020 -1 13 1 -8 13 6 16 2
1532264785577958 -3 11 7 19 7 0 3 2
1532264785607889 1 3 3 1 7 2 1 -1
1532264785645777 -2 -7 -4 17 8 3 -6 -10
1532264785660737 -4 13 13 -7 -2 0 -10 -4
1532264785712598 -5 3 8 2 19 2 -23 -1
1532264785727559 1 -3 -7 -11 -15 -3 14 6
1532264785758475 0 2 3 -6 -24 -8 14 11
1532264785803355 -1 -6 -17 -27 -26 -20 -56 -28
1532264785825297 15 14 13 22 4 16 -4 6
1532264785923036 -30 3 -7 -2 3 29 14 -2
1532264785960934 7 2 9 17 9 23 -24 -13
1532264785997836 2 -8 -5 -7 -9 -25 -17 29
1532264786050694 5 -3 0 15 -2 43 61 13
1532264786125494 -1 2 -3 -4 -11 4 9 -4
1532264786140455 1 -2 0 1 0 3 28 8
1532264786170374 8 0 0 2 1 -63 18 2
1532264786187328 -7 -1 -1 0 8 23 11 -3
1532264786200294 25 9 3 0 -1 34 -24 1
1532264786238193 33 0 -3 -3 -9 14 -7 12
1532264786275094 12 -5 -6 -4 -7 -15 2 3
1532264786306012 -10 -5 0 1 36 48 11 5
1532264786335945 9 1 -2 1 18 31 2 -2
1532264786365851 0 1 -6 -5 20 84 -5 -12
1532264786417713 -10 2 -3 -1 -2 -26 -17 0
1532264786447633 0 1 3 -8 -15 -24 -6 -4
1532264786500491 -5 -3 2 -5 -23 -24 -10 -2
1532264786530411 1 0 0 5 11 25 -12 -5
1532264786560332 -9 3 -2 -6 25 17 -11 -2
1532264786575292 -6 -1 -5 -7 10 38 10 3
1532264786613190 -7 0 4 0 -56 6 2 1
1532264786643110 9 -4 -2 -1 -16 -20 -3 -2
1532264786725889 0 6 7 12 20 0 22 1
1532264786770769 -3 -2 -1 7 -16 -5 0 0
1532264786822630 0 0 4 3 -14 32 6 3
1532264786868507 -2 0 -4 -3 -3 -6 16 2
1532264786898427 -3 -3 2 -1 -9 -41 10 2
1532264786920368 -2 -5 -2 -3 -42 -32 6 1
1532264786995169 -3 -1 -4 -1 44 28 1 -3
1532264787100885 -1 -3 -7 -14 5 0 8 1
1532264787122828 -2 0 5 4 -18 -23 -1 1
1532264787250486 1 0 -1 3 14 -7 0 0
1532264787333265 -10 -2 -4 -2 36 6 -6 -13
1532264787437985 12 13 10 0 0 31 21 -18
1532264787535723 -11 1 0 -3 -19 -10 1 -3
1532264787663381 -1 -2 -4 -3 -1 7 -1 -1
1532264787738182 -7 -7 -7 -27 -37 2 2 -4
1532264787775084 2 6 21 58 7 7 0 8
1532264787842902 -2 -5 -1 3 -9 -4 -30 -2
1532264787887781 -5 -9 -4 -9 -11 -12 -1 -5
1532264787962581 0 4 -2 4 -1 6 -1 0
1532264788000480 -1 -1 -4 -1 6 36 10 -1
1532264788045360 -3 -3 -5 -2 -3 47 0 -2
1532264788068299 -1 -2 -5 2 0 0 -2 1
1532264788135120 1 -1 0 -2 -1 -2 -12 12
1532264788165041 -13 0 -1 -3 -6 -5 -7 -4
1532264788211915 -3 -4 1 5 8 -6 -32 -6
1532264788225877 0 -7 0 -4 2 -2 5 1

1532264788285718 -6 -1 -2 4 13 13 -7 -1
1532264788315637 -6 2 6 -4 -7 -9 1 -2
1532264788337592 -3 -3 -4 -2 -2 -8 2 -2
1532264788367512 -3 -5 -1 -5 -9 -15 3 -3
1532264788398430 4 2 4 -3 -6 12 1 1
1532264788420370 -1 -2 -1 -4 -8 -17 -7 -3
1532264788458269 -20 5 1 1 -8 -11 -3 0
1532264788474227 -2 -1 -6 0 6 16 3 2
1532264788488188 4 0 -2 -3 -66 -21 3 -2
1532264788525091 -6 -5 -12 -8 -7 -21 -5 -2
1532264788556007 2 4 5 6 17 38 2 0
1532264788592910 1 -2 -1 1 10 4 -3 -2
1532264788607869 4 0 -5 -5 -2 -11 -5 1
1532264788637789 -1 -4 9 19 11 -13 0 2
1532264788667710 2 3 6 3 12 -6 -1 1
1532264788682669 -3 -6 -8 -8 -6 -4 0 -3
1532264788697629 -2 -3 -4 0 5 8 0 0
1532264788720567 -1 -3 -2 -1 10 20 3 1
1532264788750488 -3 2 4 -1 4 -20 -2 -6
1532264788773426 -1 2 -2 1 1 -1 -2 0
1532264788788387 -3 -2 -4 -4 2 9 0 -1
1532264788818306 -2 1 4 3 17 27 -1 -2
1532264788840248 0 -3 -2 -5 -13 -10 -2 0
1532264788863186 -1 0 -1 -2 -11 -26 1 -2
1532264788885127 -2 1 -3 -4 -3 3 2 -4
1532264788908067 3 -2 0 1 -3 -4 -1 0
1532264788937986 -1 -1 -3 0 0 4 1 -2
1532264788960925 0 -2 -2 -1 -1 -1 -1 0
1532264788975885 -1 0 -5 0 -5 -13 -2 -1
1532264789035725 0 -5 -1 0 -1 -3 -1 -2
1532264789065645 -1 0 0 1 -1 0 0 -2
1532264789087586 -1 1 -2 -3 -1 -1 -1 -1
1532264789118504 0 1 -4 -2 -2 -1 -1 -1
1532264789140484 -1 -2 -2 -3 -4 -3 -2 -1
1532264789155405 -1 -1 -3 -2 -3 -4 -1 -3
1532264789200285 -2 -1 -2 -1 -3 -1 -1 -1
1532264789260124 -2 -1 1 5 2 5 0 0
1532264789306002 -1 -2 -4 -3 -2 0 -2 -3
1532264789320962 1 3 5 1 -3 -2 0 0
1532264789335922 -2 7 -5 -2 -2 -13 -3 -1
1532264789350882 -3 -4 0 9 -7 -6 0 0
1532264789380802 0 -5 -10 -21 -35 -7 -4 0
1532264789402743 -1 -1 2 -8 0 5 -2 -2
1532264789417703 0 2 2 12 17 7 3 0
1532264789462583 2 2 8 18 24 4 -1 0
1532264789477543 1 0 15 -20 1 4 -1 -1
1532264789508461 -1 -1 12 19 -19 2 -2 -1
1532264789523421 -4 -6 -17 -8 -24 -2 -2 -3
1532264789538381 1 -3 -17 -6 -8 -1 0 0
1532264789560322 0 0 6 29 -2 -19 3 3
1532264789575282 -4 2 18 6 -24 -22 -4 -4
1532264789620162 -1 -2 -6 -5 -13 2 -9 -1
1532264789680999 0 2 -6 4 33 52 6 -2
1532264789740839 -7 -7 -5 -30 -20 -18 -11 -5
1532264789770760 3 0 2 13 -14 -32 -7 1
1532264789792701 -3 -14 2 17 9 19 1 -4
1532264789815640 4 -4 2 10 9 -24 0 0
1532264789867501 -3 -3 0 -28 -9 -40 -14 -4
1532264789950279 -9 12 6 -8 -6 3 -4 3
1532264790010119 1 -10 -13 -16 21 76 15 5
1532264790055997 -5 -9 -2 -8 40 22 2 4
1532264790085917 2 3 -1 21 35 2 11 -2
1532264790115837 19 10 -11 -21 24 -58 -31 -7
1532264790175677 6 5 5 10 32 -29 -11 -7
1532264790220556 -10 -19 -8 -17 -33 36 7 1
1532264790235517 16 60 3 11 18 -12 -15 5
1532264790288375 1 -5 3 0 5 7 -3 -4
1532264790408056 8 1 -1 2 16 13 0 -3
1532264790423015 2 -2 0 -4 -8 -22 -4 2
1532264790512775 2 4 1 3 0 -3 1 -3
1532264790640434 -1 -3 -6 -7 -3 -1 0 1
1532264790700274 -2 5 2 7 14 33 2 -10
1532264790738172 12 -34 1 4 15 7 -2 -6
1532264790768093 26 50 -4 -5 30 -16 -10 -18
1532264790783053 -8 -25 -3 -8 -4 69 -5 0
1532264790812973 -10 5 -4 -6 0 -7 -2 5
1532264790835911 3 6 1 2 -11 -2 -4 -6
1532264790887772 -5 -3 1 10 2 12 11 4
1532264790910711 3 0 -3 1 -10 7 -7 -8
1532264790962573 3 -2 0 -4 -11 -26 0 1
1532264791000470 0 1 2 -6 -20 -18 3 3
1532264791030391 -10 1 -2 5 0 10 11 2
1532264791068289 3 -5 -5 -5 -12 -12 -2 4
1532264791083250 -7 1 -1 -1 -2 -11 -10 -39
1532264791128130 16 2 -2 -2 -4 -2 4 7
1532264791150072 -7 1 2 -1 7 27 5 -2
1532264791180988 -1 0 -4 0 0 -8 -9 11
1532264791217889 4 -1 1 0 -5 -15 -3 2
1532264791255788 0 0 1 -6 -9 -20 -11 0
1532264791428327 -20 -12 15 30 -10 -4 31 41
1532264791458247 2 2 14 41 -10 -13 9 4
1532264791495148 0 1 -1 3 -11 -9 0 -7
1532264791548007 5 18 1 -13 -2 -1 4 13
1532264791622807 -1 2 5 8 -22 -13 11 8
1532264791660706 3 -4 1 -4 6 5 0 18
1532264791758444 -3 -19 1 -1 -19 -1 7 -16
1532264791795346 0 -12 -6 33 -13 -10 -9 18
1532264791878124 -2 12 0 3 8 8 1 1
1532264791900066 -3 1 3 -14 2 -2 -6 -10
1532264791938962 -2 -5 -1 7 12 5 16 -19
1532264791952924 2 8 -2 -9 2 -4 1 2
1532264791975863 -5 -10 0 -4 17 -2 -25 -1
1532264791997804 -1 -32 -5 -6 -11 1 14 13
1532264792035703 -1 3 -7 17 15 1 3 -1
1532264792057644 -3 2 -6 -8 -3 -10 -2 -1
1532264792080583 -2 3 0 -4 -10 -23 3 0
1532264792125463 3 6 7 20 13 8 0 -1
1532264792163361 -6 -5 -10 -9 31 19 -18 -6
1532264792178322 3 11 13 3 -24 -4 31 -17
1532264792193281 -11 -22 -18 3 8 6 94 25
1532264792223201 -7 -8 -11 -5 5 21 37 -5
1532264792268081 -11 -2 0 -13 6 7 14 4
1532264792312961 2 2 -1 -6 -30 -18 8 11
1532264792350860 -7 0 4 12 19 20 -15 -17
1532264792404715 6 -1 -4 -6 0 44 19 3
1532264792425660 3 5 9 8 -22 -30 -13 21
1532264792470540 0 0 -2 2 11 -12 -22 -4
1532264792493488 -2 -2 -4 -5 6 8 -18 8
1532264792524407 0 -3 -4 -2 6 0 -16 -10
1532264792569287 -3 0 0 6 -3 -4 -3 -2
1532264792598210 -2 -2 -1 1 10 16 7 -1
1532264792650071 0 2 -1 0 -1 -25 -4 -6
1532264792680988 -17 -4 2 2 0 -16 -1 10
1532264792717889 7 3 0 -5 -13 -13 -15 6
1532264792747809 10 0 -2 -4 2 48 -9 1
1532264792770748 -29 -3 -1 2 9 3 -30 -8
1532264792792689 -11 -1 0 -1 -3 -1 19 -4
1532264792815628 2 0 -1 -5 -15 53 -1 2
1532264792853526 30 -7 3 8 -7 -2 -8 -2
1532264792935308 -19 3 2 -2 12 16 10 1
1532264792973208 4 16 7 4 25 41 1 -11
1532264793010115 1 -2 6 29 2 -21 4 0
1532264793033046 -23 8 2 4 -43 21 -4 -5
1532264793055985 -14 6 4 10 -12 -14 5 4
1532264793070945 -2 -2 -1 -10 -12 -29 0 -3
1532264793092886 -2 -4 -4 2 -22 -20 -2 2
1532264793107848 0 0 -5 -7 -18 -15 5 -1
1532264793130785 1 0 2 10 24 12 -8 -2
1532264793160705 -2 1 0 -2 -4 3 -12 -4
1532264793175665 1 1 9 14 -37 -7 8 2
1532264793197642 -2 -1 -1 -15 -27 -42 -8 -1
1532264793235540 1 -5 -7 -2 34 -12 12 3
1532264793250500 0 -2 -10 2 42 -19 -1 2
1532264793273457 0 0 1 20 8 11 5 1
1532264793355221 -4 -3 -2 1 44 9 5 3
1532264793385141 0 4 9 16 3 1 -18 -4
1532264793423039 -3 -3 -2 -11 -56 7 3 0
1532264793452960 0 -1 1 8 16 11 1 4
1532264793550698 -6 -5 -7 1 33 11 17 -1
1532264793587599 1 -4 -5 2 3 -3 2 0
1532264793678356 9 -1 -2 -5 -12 5 5 3
1532264793709273 12 -15 -15 2 7 -21 19 7
1532264793730218 -5 -6 -11 -3 3 4 17 -4
1532264793812996 -3 -5 -9 -3 12 -3 -27 -3
1532264793827956 14 10 4 -1 0 -7 -18 -2
1532264793932676 -9 0 2 -4 7 13 14 8
1532264794045375 -12 -5 -2 -1 2 7 4 -6
1532264794098234 2 -3 -1 -2 -7 -31 -13 -2
1532264794143113 -7 -7 -1 -3 7 6 -7 -8
1532264794158073 0 -3 -1 12 -17 2 15 -2
1532264794195972 -1 1 2 0 -1 -3 6 7
1532264794210932 -1 -6 -5 -2 12 44 -3 1
1532264794270771 -8 -9 -5 1 -6 -14 -20 -9
1532264794315651 -3 -5 -2 -2 -5 31 13 2
1532264794383471 -1 0 -2 0 -5 -6 -5 -2
1532264794405413 -1 1 -1 0 7 -6 -7 -1
1532264794428351 -1 -1 -6 -4 -14 -28 -8 -2
1532264794458271 1 0 3 5 2 4 10 2
1532264794473231 -3 -5 -1 -3 0 -2 2 -2
1532264794495172 1 0 -2 0 4 -17 1 1
1532264794525092 0 -3 2 2 -7 -8 -6 -1
1532264794548031 0 -3 0 -2 -6 -3 -10 -2
1532264794570969 -3 0 3 -5 -1 17 13 -4
1532264794622830 -1 -5 -2 -2 13 22 1 -3
1532264794652751 -6 -7 -4 0 0 -32 -3 2
1532264794675690 3 1 -6 -3 -16 -30 -16 0
1532264794697631 -2 -1 0 -3 -17 -39 3 -4
1532264794712591 -7 -4 -1 -7 3 -9 8 7
1532264794742511 0 -3 -1 0 10 6 1 1
1532264794766447 -1 -2 -1 1 5 19 1 0

1532264794811327 2 0 3 -2 1 1 1 -1
1532264794825290 -4 -1 -2 -3 5 15 0 -1
1532264794848228 1 2 3 3 -4 -8 1 -2
1532264794922565 2 -7 3 -5 -13 -22 -5 -5
1532264794961457 0 1 -1 4 6 -8 -12 -3
1532264794984395 -9 1 -2 4 3 10 7 1
1532264795005339 -10 -1 -3 -3 -3 16 6 -2
1532264795020311 -3 -3 0 -5 -1 -2 -5 0
1532264795050219 -2 -2 -4 -3 5 6 3 -4
1532264795080139 3 -4 6 0 -1 16 7 -1
1532264795110059 -3 -1 4 1 0 2 -4 -1
1532264795125019 0 -3 -6 -7 -11 -37 -1 -1
1532264795155936 -2 2 -3 -5 3 18 -2 -1
1532264795177877 -3 -6 -8 -1 -8 4 0 -4
1532264795192837 -1 0 -1 -3 5 6 0 -2
1532264795230736 1 2 0 3 -3 9 1 2
1532264795252678 1 3 4 -10 -12 0 -2 1
1532264795267638 0 3 -1 -3 -26 -24 -2 -3
1532264795297558 -2 -2 1 -1 6 41 -1 -5
1532264795320496 -3 2 -2 -2 2 12 2 -1
1532264795343434 0 -2 8 1 -8 -18 0 -1
1532264795365377 0 3 -3 5 4 -12 -2 -3
1532264795388315 2 4 7 5 14 19 3 1
1532264795418234 -3 -1 -2 0 1 6 -1 -2
1532264795448154 1 -3 -3 -5 0 2 -3 -3
1532264795470100 -2 -1 -3 -4 -6 -6 4 -1
1532264795493035 -2 -2 -3 3 0 7 0 -2
1532264795515974 -2 0 -2 -1 0 2 -1 -1
1532264795545894 -2 -1 0 -2 0 -6 -1 -1
1532264795560853 -2 -2 -3 -2 -6 -10 -3 -2
1532264795597754 0 -4 -1 0 -3 -7 0 -2
1532264795620694 1 -2 -5 -4 -2 -3 0 -3
1532264795635654 2 1 -1 -3 0 -1 -1 1
1532264795665574 0 -2 2 -1 -1 -3 -3 -2
1532264795688512 -1 -2 -1 -4 0 1 -2 0
1532264795703490 2 -5 -2 -1 -1 0 -2 -1
1532264795718432 -1 -4 -3 -1 -2 1 -1 -1
1532264795755333 1 -1 -3 -4 -2 -2 -2 -1
1532264795778272 1 -2 -1 0 -2 -1 -2 1
1532264795800214 -1 1 0 0 -3 -3 -1 0
1532264795823152 -1 1 -1 -1 -1 0 0 -1
1532264795853072 -1 0 1 2 -1 2 4 -1
1532264795905930 -2 -2 -1 -3 -4 -4 -3 -2
1532264795927872 -1 0 -4 -2 -1 -4 -3 1
1532264795972752 1 0 1 1 -1 -1 1 0
1532264795995691 0 -1 0 -1 -1 -1 1 1
1532264796025611 -2 -3 -3 -2 0 -5 -2 -1
1532264796040570 -2 -2 -1 -2 -2 -2 0 -1
1532264796070490 -1 0 2 -7 5 0 -3 -1
1532264796100411 0 15 1 -11 -25 -41 -5 2
1532264796123349 -3 0 -4 9 23 -1 -1 -2
1532264796138309 -3 -5 7 8 -32 32 -2 -3
1532264796168229 -2 -1 -35 -33 -8 3 -7 -3
1532264796198150 0 0 -17 0 -4 -2 5 6
1532264796220090 -2 -6 -22 -12 6 0 -1 1
1532264796250010 -3 -2 16 10 -6 -4 -6 -7
1532264796272949 0 2 -3 30 25 1 5 -1
1532264796310847 0 -1 2 3 54 3 -2 1
1532264796332790 2 0 10 -3 -14 -2 0 -1
1532264796430528 3 -4 1 -5 -4 21 0 -1
1532264796468436 -1 -4 5 -17 14 12 -6 -2
1532264796513306 0 19 6 30 6 9 3 1
1532264796543227 1 -12 -9 -7 21 -15 -3 -1
1532264796588106 0 -6 -5 3 18 -31 3 -1
1532264796618027 -1 0 -6 -23 -21 6 2 -1
1532264796640982 -2 7 9 5 -24 10 -11 -4
1532264796685846 -1 -11 1 12 27 16 1 -2
1532264796707786 0 0 -4 -17 37 19 -4 0
1532264796767626 -3 26 8 16 34 9 4 -3
1532264796843423 -1 10 3 -11 -34 -7 -4 1
1532264796933183 -1 -6 2 18 16 8 4 2
1532264796955125 -1 -4 3 -2 -7 -6 -9 -4
1532264797007984 -1 -6 -13 -4 6 21 6 0
1532264797030934 -1 -10 -3 -5 -2 -1 -3 0
1532264797263301 2 -2 -1 -3 1 -7 0 -1
1532264797308199 -1 -4 -3 -5 -13 -13 -5 -2
1532264797360061 -1 0 3 -1 -9 -17 -4 0
1532264797412919 0 -1 -3 -1 -4 -10 -7 -1
1532264797427879 1 0 0 -1 1 -4 7 1
1532264797472759 0 -1 -2 -2 -2 -3 1 -1
1532264797496696 1 -1 2 1 5 -4 2 1
1532264797532599 0 -1 -3 -5 -5 0 3 8
1532264797600429 -3 -2 -1 0 6 -1 0 -2
1532264797645298 -1 0 0 -6 1 -2 0 0
1532264797705137 -1 -2 -1 11 4 -3 -3 0
1532264797728077 1 -2 -2 -1 -1 3 1 -3
1532264797757996 -2 -2 0 -3 -4 4 0 -3
1532264797825815 -1 3 8 1 53 41 3 -1
1532264797885654 -1 -1 1 1 -4 35 9 0
1532264797900615 1 2 3 4 0 -21 7 3
1532264797975415 -3 -2 -10 -5 4 -7 -8 -4
1532264798013314 0 0 -1 -4 -10 -24 3 -1
1532264798050215 -1 -1 -7 -3 4 -9 -3 1
1532264798080135 0 2 -3 -1 1 3 -2 -1
1532264798126016 -1 -3 0 -2 -4 -16 -5 -4
1532264798140973 0 0 1 2 -2 -4 -2 -1
1532264798200812 0 6 7 11 6 7 6 1
1532264798267634 -1 -1 7 11 -29 1 3 3
1532264798328475 -1 -1 -3 -6 -7 -6 1 7
1532264798380333 1 2 1 0 6 0 1 -10
1532264798418231 -5 -1 6 12 13 2 -3 -18
1532264798463111 2 5 2 7 30 16 11 10
1532264798501010 4 -13 -14 -16 3 -2 -12 42
1532264798522950 -3 2 0 -3 11 4 -22 -26
1532264798545890 0 -8 -3 1 16 12 23 1
1532264798590770 -2 -5 -3 1 4 5 5 -2
1532264798612711 7 17 6 8 13 32 -53 -11
1532264798672550 -11 -9 0 0 -7 0 -46 -54
1532264798710450 -5 -24 -16 -16 -14 -9 -6 23
1532264798800209 -3 -4 -11 8 20 0 -1 3
1532264798823148 1 1 -9 -1 2 -5 4 -7
1532264798868028 1 -14 -22 -20 -13 -3 -9 0
1532264798905927 -1 0 -6 -5 -12 -4 13 12
1532264798920886 -4 -7 -22 -1 -1 28 7 -3
1532264798950807 -2 0 5 0 -8 -10 0 -6
1532264798972748 4 4 5 22 -4 32 7 3
1532264798987708 2 9 21 1 -4 -8 9 2
1532264799063506 -6 -7 -8 -6 -41 -27 -12 -12
1532264799093425 5 6 7 12 -43 33 -19 5
1532264799115367 -7 -1 -2 4 16 -9 1 -24
1532264799190167 1 -3 -2 -8 2 14 63 27
1532264799237041 -2 9 10 -2 -20 -15 -20 -15
1532264799251004 -4 -8 -11 -13 -2 -4 26 -25
1532264799287905 6 2 1 8 6 -7 23 23
1532264799332785 4 -2 -1 -1 -4 -25 16 6
1532264799349740 5 6 5 3 -3 -41 -41 -27
1532264799370684 1 -10 -8 -14 -22 -25 -9 -5
1532264799407585 -4 0 -3 -12 16 -59 6 8
1532264799445500 -3 -2 -2 -5 4 -2 1 -8
1532264799483397 -6 0 4 1 -9 9 -17 -29
1532264799520299 -1 -2 -1 -1 1 -3 12 5
1532264799580139 0 -2 -2 -2 6 8 -17 6
1532264799626015 -1 -1 -1 0 -25 -31 -6 0
1532264799670896 -2 0 -2 -4 5 -25 1 1
1532264799715775 2 -1 -2 -6 -7 8 -26 3
1532264799760656 7 5 2 1 -17 45 21 2
1532264799790577 33 14 2 2 16 25 15 7
1532264799805536 -12 -1 0 2 9 15 0 4
1532264799835456 -28 -6 -3 4 14 19 20 8
1532264799850416 -17 -7 1 0 11 3 -8 -4
1532264799865376 7 3 4 -10 12 29 -2 -10
1532264799895296 4 -10 -7 -6 -17 -12 -5 -4
1532264799910256 -4 -4 -9 -5 15 -1 0 -2
1532264799970096 8 7 11 40 40 0 13 0
1532264800045893 -4 -7 -2 -1 -20 -8 -11 -2
1532264800090781 -1 7 -2 -8 -39 9 -9 -1
1532264800112715 0 -12 -9 -8 8 28 -6 -2
1532264800135653 -26 3 0 8 -2 -5 -1 -2
1532264800157606 -6 -8 0 8 78 26 0 0
1532264800180534 1 -1 -7 -5 -31 15 -3 0
1532264800203472 -6 -3 -2 0 12 -10 -1 -1
1532264800218432 3 -2 -4 -3 23 21 8 0
1532264800263312 4 3 -1 25 -4 -8 3 1
1532264800278272 0 -4 -6 11 -19 -7 6 1
1532264800338128 0 2 11 38 0 14 -21 -5
1532264800376018 1 -2 -7 -30 1 -15 8 2
1532264800427872 -2 1 7 4 20 9 -6 -1
1532264800465771 -1 -1 -3 -7 -19 -17 10 1
1532264800525621 -11 -1 1 -1 0 -4 3 -2
1532264800578472 4 -1 -1 0 -6 11 -12 -7
1532264800630330 -5 -1 -1 -5 -39 -2 -2 -7
1532264800675211 -5 -1 -1 -4 -6 10 0 4
1532264800728069 7 0 3 0 14 44 3 5
1532264800765968 -44 -7 -1 2 3 -20 -3 -45
1532264800810848 5 -1 -7 3 20 -12 40 28
1532264800968427 -17 -7 -5 -5 -14 10 -3 31
1532264801035248 -2 -5 -3 -2 -13 -41 0 -2
1532264801088106 -11 0 -1 0 1 -7 -6 3
1532264801148944 -9 2 -1 -3 -21 -6 6 -3
1532264801298543 -2 -1 -4 -10 18 36 2 -10
1532264801358384 2 7 7 31 26 29 13 -2
1532264801448144 3 1 -1 -3 0 18 8 2
1532264801478064 4 1 1 1 0 4 0 3
1532264801522944 1 0 3 9 16 48 17 2
1532264801560842 2 2 0 0 -1 -9 -5 0
1532264801575802 -2 0 1 0 9 29 -18 -4
1532264801597743 1 1 -1 -4 -12 -39 -8 1
1532264801635642 1 -4 -3 -2 -12 -28 -5 -1
1532264801658581 -2 -3 1 -1 7 -8 2 0
1532264801680523 -1 -3 -5 -3 -17 -8 -3 -2
1532264801695482 -1 -2 0 -1 14 7 -2 -1
1532264801710442 -2 -1 1 -1 4 1 4 3
1532264801740363 -3 -3 -2 0 -1 -13 -3 -4
1532264801763301 -4 -1 -3 -2 4 8 8 0
1532264801787237 -2 -1 1 -1 -5 0 -9 0
1532264801808181 0 1 -3 1 -1 -17 0 0
1532264801838101 -3 -1 -1 -4 -1 13 0 1
1532264801853061 -3 0 -2 0 -5 15 8 1
1532264801890960 -4 -2 -4 -4 -9 -16 3 -2
1532264801912901 -2 1 1 1 -4 -23 -10 0

1532264801927861 -2 -3 -1 2 5 10 -6 -1
1532264801957782 0 -1 0 1 -1 -8 0 -2
1532264801972740 1 4 2 -2 -6 -9 -1 -1
1532264802011637 -2 -3 -3 2 8 5 9 -1
1532264802025599 -3 -2 1 -4 -1 -5 20 1
1532264802040560 1 -3 -6 -3 -3 -3 1 -1
1532264802055519 0 -1 0 -3 -5 -11 -7 0
1532264802085440 -2 -3 -1 -4 -9 -14 -5 -4
1532264802130319 0 0 -2 -1 -1 5 -13 -1
1532264802153259 -1 -1 2 1 -5 -17 12 1
1532264802168218 0 -2 0 4 -8 -14 -7 -1
1532264802213098 -4 0 0 0 -6 -1 1 -1
1532264802228058 0 -2 0 0 -2 -6 -3 -1
1532264802257978 2 1 1 -3 -8 0 4 -1
1532264802280917 3 1 -6 -3 0 6 3 1
1532264802302858 -2 1 -3 -2 -6 -26 -11 -3
1532264802332778 -1 7 9 1 -1 -4 2 0
1532264802347738 1 -1 -5 -1 -8 -23 0 0
1532264802370677 -1 3 4 2 6 13 -7 -1
1532264802392618 0 -1 0 -2 -2 5 4 1
1532264802415557 -3 -6 -2 -4 1 9 -7 -1
1532264802445477 1 0 -2 -4 -3 -4 -6 -1
1532264802468415 -1 2 -2 1 2 5 3 -2
1532264802490358 -2 -1 -3 -1 1 4 -1 -2
1532264802528255 -1 -1 -1 1 1 4 -12 -1
1532264802565156 0 -1 -3 0 -3 3 1 -2
1532264802580117 0 -3 -3 -1 3 7 -2 -3
1532264802618028 0 -1 0 3 9 2 6 0
1532264802632975 -1 0 -3 -1 -2 6 1 0
1532264802647935 1 5 5 8 26 25 0 -1
1532264802700794 -1 -1 -2 -1 3 8 -4 -1
1532264802722735 -3 -1 -5 -4 7 31 -1 -4
1532264802745674 -1 -2 -1 -4 -2 4 1 -1
1532264802767615 -2 -7 -6 -6 1 4 1 -2
1532264802798532 2 0 -2 1 -2 1 0 -1
1532264802813492 -3 -3 2 8 -5 -1 0 -3
1532264802828453 -1 -2 -2 1 -1 -5 0 -2
1532264802865354 -5 -3 -1 -2 2 8 -1 1
1532264802880314 0 -1 0 0 3 6 -1 -1
1532264802903253 -1 2 -2 -4 -1 -3 -1 0
1532264802918213 0 0 -1 -4 -14 3 -1 -2
1532264802933172 -2 -4 1 -1 5 5 -2 -3
1532264802963093 0 -3 -3 -2 -4 9 -2 -1
1532264802993013 1 2 6 -2 3 -5 -3 0
1532264803015951 2 1 -2 6 -5 4 -1 -1
1532264803045871 2 3 1 -6 4 11 3 4
1532264803090766 -2 -2 -20 -18 1 1 -1 -3
1532264803105711 1 5 19 12 3 -2 2 1
1532264803142636 -3 -5 1 -20 27 -32 -2 -1
1532264803172556 0 26 -6 -16 -57 -68 -4 0
1532264803218434 -5 -6 -10 -17 16 3 -7 -7
1532264803240375 -3 -19 -22 -33 -18 0 -4 -1
1532264803300215 0 -18 -14 -5 36 67 5 0
1532264803345095 2 20 12 -6 6 19 -1 -1
1532264803397954 0 -18 -20 -1 0 -9 -5 0
1532264803427874 -6 -4 -2 -18 -47 17 -1 -4
1532264803480732 0 -1 -1 -8 -5 -24 10 1
1532264803517634 -2 0 -10 -28 -28 16 2 -1
1532264803540573 -1 -13 4 0 13 -5 1 -1
1532264803608391 4 16 7 12 11 25 -17 -3
1532264803630331 -1 10 6 6 -9 1 -4 0
1532264803660252 1 -11 -2 -13 -7 -49 -5 -2
1532264803705132 -2 0 -4 -10 -6 -5 -12 0
1532264803743031 -1 21 2 -4 -58 -7 -5 -4
1532264803765970 -1 24 11 27 38 7 10 2
1532264803817831 -5 -2 -3 -2 15 58 -5 -2
1532264803847751 2 -6 -4 -15 5 2 -2 -2
1532264803885649 -1 -5 -4 -3 33 9 -8 -2
1532264803907606 0 -4 -2 -3 -24 -13 -3 -1
1532264803937511 7 0 -4 -1 -8 -6 -4 -2
1532264804005329 -5 -9 -4 -1 -6 -4 11 -9
1532264804058188 3 -7 -5 -8 -7 -4 -16 -3
1532264804111052 4 -2 -3 -2 -2 1 -10 -5
1532264804140980 0 -3 -3 3 18 11 -4 0
1532264804170887 1 -4 -3 -15 -23 -4 -3 4
1532264804200807 0 2 1 3 -3 -4 1 -4
1532264804222747 -1 -3 -6 -10 -12 -5 -2 2
1532264804267628 -1 0 0 0 -1 20 -2 -2
1532264804297552 0 -4 1 9 4 -4 1 -1
1532264804313505 2 4 4 3 10 4 -1 1
1532264804328466 0 -1 -2 -1 -6 -49 4 2
1532264804358385 -2 6 5 0 0 7 -10 0
1532264804388305 2 6 1 15 29 49 -9 0
1532264804403265 22 1 -4 3 -13 -10 15 9
1532264804425224 3 0 -2 -7 -7 36 -10 -60
1532264804463105 -12 -4 -3 -4 6 -32 -2 1
1532264804501003 -11 -1 -1 -3 -7 -24 -4 1
1532264804537906 3 -2 -3 -2 3 -1 -3 3
1532264804560844 -2 -1 -1 0 5 -2 -2 1
1532264804612705 -2 -1 -3 -1 2 21 4 12
1532264804650604 -5 1 0 2 1 -10 -1 1
1532264804680524 9 1 2 -1 2 -12 -4 1
1532264804718422 0 -6 -8 -13 -6 -37 0 0
1532264804770284 -2 -3 -11 -12 -1 -6 -9 -2
1532264804800204 -4 0 0 19 -1 5 -1 -4
1532264804853063 14 10 -3 7 -6 -10 -19 -8
1532264804882982 -23 4 22 6 13 -1 -8 -14
1532264804927863 -4 14 -5 11 -2 0 -3 -1
1532264805093420 -5 0 -1 -5 17 57 7 -4
1532264805175201 -1 -3 -10 -2 -5 3 10 0
1532264805453457 -3 -12 -12 -5 11 -19 6 -1
1532264805520279 -4 -3 9 3 -6 -19 -1 21
1532264805580118 8 11 10 8 11 -16 -21 -52
1532264805632977 8 0 -6 -8 2 2 -7 33
1532264805662896 0 -5 -17 -4 7 -4 28 46
1532264805700795 10 4 -4 -2 2 -6 3 30
1532264805760636 16 -32 -33 -14 -18 -6 -13 -1
1532264805850396 -9 0 -3 -2 -2 3 -6 -3
1532264805880316 2 1 -6 -3 2 2 9 3
1532264805903254 15 6 5 19 -2 5 14 15
1532264805933174 7 8 8 -8 -12 -10 -15 0
1532264805948134 -4 6 10 -7 22 35 24 8
1532264805993014 -12 -6 -2 6 2 -8 2 2
1532264806015953 -8 -14 -9 7 9 4 -5 -6
1532264806060833 -3 -9 -7 5 29 -20 -19 -7
1532264806090752 1 0 2 -3 2 -30 -28 -2
1532264806120673 -2 -2 -3 8 16 11 37 -23
1532264806180512 -5 -1 0 -4 -9 -6 -52 -23
1532264806203451 0 -5 -7 -5 6 9 13 -3
1532264806240353 -5 0 1 17 -10 -5 35 -3
1532264806255313 2 -1 1 -6 -2 4 -7 -5
1532264806300193 -10 -15 -9 -2 -14 -22 34 6
1532264806315153 -1 0 -3 -12 3 13 16 9
1532264806353051 -2 -1 -4 -3 2 9 30 -7
1532264806368011 4 6 3 4 12 -9 -8 -6
1532264806390958 0 5 2 10 -8 8 -9 -2
1532264806420870 0 1 3 -2 -7 -17 -38 -4
1532264806457772 -3 -3 -5 -3 6 -4 3 6
1532264806502652 -2 1 0 -1 -16 6 20 1
1532264806532571 1 -2 -3 1 10 -21 -8 2
1532264806578449 -2 1 1 -3 -22 23 -21 -3
1532264806608384 -7 21 -1 -6 -13 -22 5 -7
1532264806623329 16 1 0 0 -6 -30 3 6
1532264806638288 6 -3 -2 -3 2 30 29 -5
1532264806660230 5 -13 -7 -5 23 50 -2 -4
1532264806698129 -11 -6 1 0 24 5 -1 0
1532264806744005 19 -13 -2 -7 7 -26 -3 2
1532264806802849 6 1 -8 -13 -14 -32 12 -3
1532264806862689 2 11 1 -9 2 14 -27 -3
1532264806885627 -18 -2 -4 0 23 2 0 -6
1532264806924523 5 -2 2 -2 19 -13 0 3
1532264806938485 15 -3 -6 -9 14 -22 -6 1
1532264806998326 -1 -7 -4 6 32 -2 4 -1
1532264807020267 -2 -2 -6 2 -24 12 7 0
1532264807058166 -2 3 1 8 -10 -5 11 -1
1532264807111040 -4 -1 -8 -20 14 -2 -31 -14
1532264807140944 -2 -5 -11 -9 15 -9 16 0
1532264807170865 -4 -4 -5 0 -14 -11 -7 -3
1532264807192806 -1 1 -5 -4 26 7 -15 -5
1532264807230704 -4 -4 0 -14 -26 -2 -7 -5
1532264807299521 0 0 0 -16 -41 -39 18 5
1532264807335424 -3 -1 -4 -7 -5 19 2 1
1532264807425185 -1 -5 -1 -1 8 10 5 0
1532264807455105 1 -1 -1 1 6 2 -5 0
1532264807530902 -4 -3 1 1 0 3 -2 -2
1532264807590741 -2 0 -2 1 20 6 8 1
1532264807688480 -11 -7 -10 -5 43 47 19 1
1532264807755302 19 2 -2 -3 -29 -11 0 0
1532264807845062 -5 1 -8 -2 13 8 -12 -1
1532264808010618 -3 -6 1 -2 -14 -22 6 -3
1532264808070473 5 2 1 0 -16 -27 -19 1
1532264808123318 -1 -1 0 -1 -28 -29 2 2
1532264808250977 1 -1 0 0 2 -42 -4 -2
1532264808296868 -2 0 -2 -1 -9 8 1 -3
1532264808326789 -2 -1 -2 -1 5 6 -8 -2
1532264808377638 0 -3 0 0 3 50 9 0
1532264808445457 0 1 -4 1 4 2 7 0
1532264808475377 -1 0 0 -3 0 -38 -11 -1
1532264808513274 -2 0 1 1 0 -5 1 -2
1532264808528234 1 0 0 2 3 -9 -15 -1
1532264808565136 -2 1 -1 0 6 -8 -3 -1
1532264808625974 -1 0 -3 -4 1 -4 -3 -4
1532264808670870 -1 -1 2 5 4 -7 -2 -1

1532264808700789 0 1 -1 -7 -8 8 3 1
1532264808737674 -1 -2 -1 -1 -3 1 1 0
1532264808752635 0 -2 0 -2 -1 0 8 -1
1532264808769589 0 0 -2 -1 -2 -11 5 -1
1532264808828432 -2 -1 -3 -2 -9 -19 -11 -1
1532264808843392 -1 0 -1 0 -5 -6 -1 -2
1532264808888272 -2 -1 -1 1 8 15 5 0
1532264808918191 -1 -4 -4 -1 4 26 5 -1
1532264808940133 -1 -2 -1 0 -5 -17 -1 -2
1532264808992992 0 -1 0 1 -1 -6 -1 -1
1532264809015930 -2 0 -2 -1 0 5 0 1
1532264809052832 -1 -2 -1 -3 1 -2 0 -2
1532264809083749 -3 -6 -7 0 -5 -1 -4 -1
1532264809097712 0 0 -3 -4 14 4 0 1
1532264809120651 -1 -1 3 -2 -2 -11 2 2
1532264809172511 0 -3 -2 -3 -31 -2 3 -3
1532264809195450 2 0 0 4 17 34 -1 -1
1532264809240342 -4 -4 4 1 5 5 -2 -3
1532264809278229 -2 3 4 2 -3 7 4 2
1532264809293190 1 -5 -2 -3 -12 8 -2 -1
1532264809315131 -3 -5 -5 -1 1 6 1 1
1532264809346048 -3 -4 -4 -3 6 14 5 -2
1532264809367989 3 7 5 3 24 22 -3 -1
1532264809397909 1 0 -1 -1 -4 3 4 1
1532264809435808 -2 1 -1 -2 3 2 0 1
1532264809457750 -1 0 -3 -2 2 3 2 -1
1532264809480691 0 -1 4 0 -1 0 -13 -3
1532264809502629 -2 0 -1 -1 0 13 -10 -2
1532264809517591 -1 -2 -2 2 3 23 1 1
1532264809532549 1 -3 -3 -4 0 8 -6 -2
1532264809563467 0 0 2 0 5 9 -1 1
1532264809593386 -2 -4 -1 -3 -1 -10 -17 -4
1532264809608346 -1 -2 -2 -1 -1 -7 -2 -1
1532264809623321 -1 0 -2 -2 -1 -4 -6 -2
1532264809660208 0 6 8 -19 -34 -1 -3 -1
1532264809683146 1 -2 -10 0 6 -7 1 0
1532264809720048 -3 -2 -2 -5 -3 7 2 -1
1532264809750965 -3 1 -3 13 30 6 6 1
1532264809772906 -2 -3 -10 -20 -22 -18 -3 -2
1532264809787866 -2 -3 -7 1 15 -1 -2 -2
1532264809802826 -2 0 -3 -2 5 -1 -1 0
1532264809832746 -1 6 -1 -33 -27 -19 -1 -2
1532264809855685 1 1 -3 13 20 33 10 3
1532264809877627 -3 -6 -4 -9 0 8 2 -1
1532264809892587 0 -11 -9 -2 4 1 2 0
1532264809915525 0 0 -1 -9 10 3 2 -2
1532264809945444 -2 -4 -11 -14 34 -6 -1 -1
1532264809960404 0 6 -6 12 -33 -58 -4 -2
1532264809990357 -1 53 0 -14 -11 -25 -2 -1
1532264810058144 -7 -12 3 2 21 -19 -3 -1
1532264810073103 -3 -8 2 18 -6 29 2 -1
1532264810111002 -1 5 -12 -6 -50 -86 -11 0
1532264810140922 -1 4 -1 -16 4 7 3 2
1532264810177824 1 0 0 -11 -41 22 3 2
1532264810200762 2 10 9 20 17 33 -11 -5
1532264810215722 1 -37 -26 -7 16 59 12 3
1532264810230682 -2 -16 -10 -20 -4 -34 -3 -2
1532264810260602 -2 -11 12 3 -20 -38 -10 -2
1532264810290522 -3 3 -3 -2 5 6 3 -2
1532264810343381 -19 -14 5 3 -11 -31 4 1
1532264810358341 -1 -3 -9 -5 -95 -44 -4 -2
1532264810440122 3 -8 -11 -12 -24 -16 -10 -3
1532264810456079 2 37 12 -3 3 2 0 0
1532264810515920 3 -13 4 30 75 11 4 -2
1532264810680480 -5 -6 -8 -1 4 0 -3 -3
1532264810748298 -4 -8 -2 -4 -5 25 -1 -3
1532264810770240 -1 -1 -2 -8 0 -5 2 1
1532264810793178 0 -2 -4 -10 -15 -35 -9 -2
1532264810808138 -4 1 1 0 -14 -15 -16 -2
1532264810838058 0 1 1 5 5 -5 5 -2
1532264810920837 -1 0 0 -3 -10 4 -11 -8
1532264810957745 3 2 0 4 2 7 15 9
1532264811010597 0 -1 0 14 9 15 1 -2
1532264811040530 0 -1 -2 5 0 0 0 -4
1532264811063455 -3 -3 0 -9 -7 -5 10 0
1532264811100357 1 -4 -7 -3 -13 -52 -12 -4
1532264811160196 -2 -4 5 1 -9 -28 1 -1
1532264811183136 -1 0 -8 -12 -5 -2 21 2
1532264811235994 -1 -4 3 -7 -35 -14 -5 1
1532264811272895 -1 8 8 5 19 2 -5 -1
1532264811302815 -1 1 -3 -11 5 43 -6 -6
1532264811325754 1 0 -1 -1 17 -6 1 -2
1532264811370634 2 -1 -6 0 8 11 0 1
1532264811400554 -2 0 0 3 6 5 9 0
1532264811430474 -1 0 1 1 3 2 -6 -1
1532264811475354 -1 -1 3 2 -4 -7 1 -1
1532264811490313 -2 1 -2 -7 -7 -5 -5 -4
1532264811520236 -2 -4 1 -1 1 1 -8 0
1532264811550154 -2 -2 2 -1 -3 8 -2 0
1532264811596031 0 0 3 12 5 -10 1 1
1532264811610991 -1 2 -2 -18 -7 -6 -1 -1
1532264811647892 1 -2 -3 -18 -32 -29 -2 -1
1532264811670831 1 -1 -7 -6 1 19 -1 -1
1532264811707741 0 1 0 25 1 1 6 -2
1532264811737652 -4 -1 -4 -13 -8 1 -2 1
1532264811775551 -1 -3 4 7 9 11 4 2
1532264811790511 -1 1 -6 6 -14 0 0 -9
1532264811835390 0 0 -1 -6 5 -2 -5 -12
1532264811865311 3 3 7 7 8 5 10 7
1532264811903210 3 2 1 2 -1 -1 6 9
1532264811940111 -5 7 1 -1 -9 -3 -24 -13
1532264811992970 1 -9 -2 -1 -3 -6 -9 -8
1532264812007930 -2 10 6 5 10 6 -1 -14
1532264812060788 6 13 14 -2 -5 -1 8 4
1532264812158527 2 2 8 5 2 -4 2 9
1532264812210388 0 -11 -18 3 -2 17 9 -7
1532264812263247 -3 -13 5 15 -35 -20 20 22
1532264812285189 1 -7 -14 -5 0 -3 -10 3
1532264812338047 -7 4 5 8 6 -8 -15 8
1532264812412846 -3 4 -1 -3 8 9 -14 8
1532264812472688 3 5 24 51 2 34 3 -4
1532264812510585 -12 -7 -1 -4 -10 -39 -24 -7
1532264812660185 -3 -10 -4 -9 2 -23 9 3
1532264812698084 -20 -21 -13 -17 -5 -16 -40 -11
1532264812721023 -1 8 -1 -7 -5 -25 -39 -48
1532264812750942 15 1 -7 -14 -16 47 -12 11
1532264812772884 -4 0 1 21 39 35 10 -66
1532264812802804 -14 2 -2 -4 -1 22 31 -8
1532264812825743 -7 -2 -2 -5 -14 -2 9 13
1532264812840703 7 -4 -6 -7 10 5 30 9
1532264812862644 -1 -5 -6 4 -20 -11 32 5
1532264812900543 -29 1 -1 0 -3 -12 5 4
1532264812930462 2 -2 -5 -1 4 27 19 6
1532264812953401 -7 5 -2 -2 -18 -22 -7 -22
1532264812968361 -15 -6 -2 3 24 10 1 -3
1532264813013241 -7 -1 -2 -2 -10 -8 -22 4
1532264813050142 5 2 1 8 -12 6 5 -2
1532264813088041 6 -2 -3 -3 11 11 -26 1
1532264813117961 -2 -5 -1 -1 1 16 2 0
1532264813140915 5 -1 -1 0 -6 0 4 -5
1532264813170820 0 -2 -1 -1 -5 -19 -14 -5
1532264813200740 7 2 1 0 -12 -47 -12 -6
1532264813222681 -14 -3 -1 -4 -25 8 -4 -6
1532264813252601 42 -19 0 -3 -15 14 9 -10
1532264813328399 3 14 4 0 -16 -26 2 -2
1532264813395220 -1 3 1 1 2 23 -3 6
1532264813433119 -18 -4 -1 -3 -9 13 4 7
1532264813455060 -4 -1 -1 -4 9 20 -13 -3
1532264813471017 0 -3 0 7 -19 -17 -3 -3
1532264813515897 -5 -3 -3 -4 6 7 -4 -3
1532264813537838 -6 3 -2 -4 22 13 -7 0
1532264813582719 -8 -3 -9 -19 -13 2 -1 -2
1532264813597679 -2 -2 -2 -11 -11 -19 -3 2
1532264813635577 -1 3 7 33 -9 38 17 1
1532264813680456 1 -3 -10 -7 -37 -13 -1 0
1532264813733315 -3 -1 -2 8 17 -16 -5 -6
1532264813770217 -8 -2 -2 -1 -17 -17 -34 -10
1532264813846014 -23 -3 -2 -3 16 -8 5 3
1532264813860975 2 2 0 1 -1 2 12 2
1532264813905854 2 0 -2 -5 6 3 9 2
1532264814010575 -2 1 0 5 10 1 5 0
1532264814108329 3 3 1 2 10 -46 3 3
1532264814227993 -9 -9 -9 -9 2 -54 -25 -8
1532264814250932 18 1 3 -2 -3 -12 10 -4
1532264814340708 -7 2 -6 -4 18 21 -11 -5
1532264814565092 -18 -3 -3 0 -4 -35 -13 2
1532264814692750 3 7 4 -1 -11 -27 2 -4
1532264814745609 -3 -6 -9 -13 -2 9 5 5
1532264814783507 2 -1 -1 2 -6 -14 6 5
1532264814843347 5 1 2 3 3 7 5 11
1532264814895209 -2 1 0 0 -2 4 5 -7
1532264814925129 -5 -2 -5 -1 4 1 4 -4
1532264814971005 1 3 0 2 4 -19 -48 -4
1532264815007915 0 -3 -3 -3 2 1 9 -1
1532264815060766 0 2 1 0 4 -8 15 3
1532264815097667 0 -1 -6 -3 -4 -15 -6 -2
1532264815150526 -3 -9 -6 -5 2 14 4 0
1532264815165486 0 1 -2 -6 -6 4 -13 -5
1532264815195406 3 -4 -7 -5 -7 -25 -15 1
1532264815233304 -3 -1 2 3 6 -4 -4 -4
1532264815255246 -6 -2 -1 -3 -8 -19 -3 -4
1532264815300127 -20 -3 0 -4 6 17 5 -4

1532264815397865 -8 -3 -4 -4 -8 33 -8 -5
1532264815435763 -15 -4 -2 -1 -2 -5 -15 -7
1532264815472665 -1 -4 0 0 -1 -2 10 2
1532264815526521 4 0 -5 -3 -4 5 -12 5
1532264815563422 -2 1 3 -1 -8 -14 -4 -2
1532264815608302 0 -1 1 -2 3 -11 -5 -1
1532264815623304 -4 -1 -3 0 -1 -5 3 0
1532264815675123 -1 0 -1 2 0 5 -9 -5
1532264815698062 -2 1 -3 -4 -11 -6 -1 -2
1532264815713022 -1 -1 0 0 -2 -2 -1 1
1532264815727982 2 5 9 4 0 -6 -4 0
1532264815765881 -2 -6 -3 -2 -12 -17 1 0
1532264815795800 1 4 -1 7 15 19 2 0
1532264815825721 -1 -4 -3 -2 -11 -12 -2 1
1532264815862621 -4 0 -9 -4 -4 -7 -10 -3
1532264815900520 -4 -1 3 -3 31 -4 4 -2
1532264815915481 1 -2 0 -3 -10 -14 1 -1
1532264815930441 2 -3 2 10 -8 10 -6 0
1532264815945400 2 -1 -2 -11 -20 -16 -3 -1
1532264815975328 -1 -1 -1 0 7 18 5 1
1532264816005240 -1 3 -1 1 3 4 3 0
1532264816050120 2 -2 -3 1 -2 -11 1 -1
1532264816095998 -1 1 0 2 1 -7 -6 -2
1532264816117939 1 2 -4 -3 -6 9 0 0
1532264816132899 -1 -1 -4 -4 0 7 1 0
1532264816162830 2 3 -2 0 1 8 0 1
1532264816192739 1 2 1 2 4 2 4 0
1532264816252580 1 2 -1 4 -20 -34 -10 0
1532264816298456 1 1 -2 -9 36 30 3 0
1532264816358296 0 6 12 10 -1 3 -3 -2
1532264816373256 -2 0 2 -13 -11 -11 -4 -3
1532264816425117 -2 -3 -9 -12 -9 -10 1 1
1532264816448057 -2 -3 -5 -13 -17 -12 -8 -4
1532264816492936 1 -9 3 1 2 18 0 0
1532264816522856 -1 -28 -8 -6 1 -8 -2 9
1532264816560755 2 2 -2 -10 -18 -4 -2 -5
1532264816605635 3 4 2 -5 -7 -11 0 1
1532264816635554 -3 -1 -1 -4 2 -2 -4 -3
1532264816748254 0 0 1 -14 4 10 2 -1
1532264816793133 -3 1 10 24 0 -16 -7 -5
1532264816823053 -1 1 -4 -1 11 3 -9 -2
1532264816860952 -5 -7 -4 -5 46 57 -8 -6
1532264816875912 -2 -1 -1 -6 0 2 5 1
1532264816912813 -1 8 2 -1 -34 -52 -6 -3
1532264816927774 -1 7 0 -12 9 -7 3 1
1532264816942733 -2 10 6 -7 7 40 2 0
1532264816957715 0 6 1 -2 -25 -19 -2 -1
1532264816980632 1 -2 4 18 7 34 -2 4
1532264817002588 -2 1 1 0 21 20 -3 -8
1532264817040472 -4 -10 3 0 -25 32 -4 -5
1532264817055432 -26 -11 -5 -3 19 -6 -2 6
1532264817138211 -5 -46 -10 -9 -10 -20 -23 -10
1532264817250909 18 -14 -8 12 4 -45 0 -7
1532264817280830 -4 -9 6 -7 -9 -33 4 -18
1532264817415469 14 -1 1 -3 -3 3 -2 -4
1532264817445389 -4 -5 -5 2 9 0 -10 -4
1532264817498248 -11 -2 2 -3 -19 -43 -14 -3
1532264817550109 4 -3 -3 -2 -7 -58 -6 0
1532264817573048 -2 -3 -2 -1 16 50 4 1
1532264817595987 3 4 -3 -3 -12 -18 -1 0
1532264817692728 1 -2 1 1 -8 -13 -6 6
1532264817753565 -1 2 -2 -1 4 8 16 12
1532264817775517 -1 2 -3 -11 3 2 7 5
1532264817805427 -3 -5 -6 -8 44 58 2 2
1532264817828365 -25 -2 2 5 -11 -19 -15 -5
1532264817865267 -2 -2 0 -1 -3 10 1 2
1532264817895187 5 -1 -1 9 0 -37 -8 -7
1532264817933084 5 -1 -1 -2 -15 -11 -8 -2
1532264817970983 0 4 -1 -3 -16 -72 -8 0
1532264818007892 1 0 0 2 -7 -64 13 1
1532264818067724 -1 -1 -1 1 -6 0 -1 1
1532264818120584 -1 -3 -1 -1 -4 6 1 -1
1532264818150504 -6 0 4 -2 -14 -19 -8 -4
1532264818195384 -1 -2 -1 -2 -1 12 0 -1
1532264818225304 -1 1 2 -5 -19 -22 -8 0
1532264818255224 2 5 9 5 -8 -6 0 -9
1532264818331021 -2 -2 0 3 -1 15 -9 -5
1532264818442723 1 1 -5 -18 -8 0 2 7
1532264818480621 -2 4 1 1 -2 -4 3 35
1532264818495581 3 -7 -1 1 0 -25 10 1
1532264818563400 -8 -10 1 -14 12 15 9 -10
1532264818683080 -7 -54 -4 10 13 -3 -2 -10
1532264818735938 -12 -24 9 0 -16 -21 -4 0
1532264818795778 -6 -15 -6 4 2 21 6 4
1532264818840671 24 -12 -14 -1 5 6 -7 -1
1532264818953357 -6 -9 -1 -4 2 -10 7 13
1532264818990258 -16 -29 4 17 -1 -6 -13 -8
1532264819058077 -7 -9 -10 -4 -5 -19 -5 3
1532264819207677 4 -2 -4 -3 0 7 65 21
1532264819253554 1 3 -2 -6 -10 7 -32 12
1532264819275496 -2 3 4 -2 -13 -3 27 19
1532264819305416 4 -7 -3 7 18 7 -15 9
1532264819335335 9 3 8 -6 -18 -35 -58 -26
1532264819403153 3 4 6 -3 -11 -62 -51 -6
1532264819456018 5 -4 -2 -1 -11 -17 0 8
1532264819515852 0 -1 -2 3 4 -9 -6 -4
1532264819560733 -2 -2 -3 -4 1 -1 3 -1
1532264819620576 -13 -1 -2 0 -34 -9 -18 -21
1532264819643523 -9 -4 -2 -5 7 14 18 7
1532264819695373 0 0 0 10 -11 -20 -9 -1
1532264819718311 18 3 1 2 2 6 7 7
1532264819740253 10 0 1 3 2 18 -10 1
1532264819763192 20 -3 -6 -6 -39 -118 -47 14
1532264819778151 -2 -3 -7 3 -3 -23 13 0
1532264819816051 -18 12 1 -14 -55 -35 0 -5
1532264819831010 3 6 5 -3 6 90 -16 -9
1532264819867911 14 -2 2 3 66 3 20 -6
1532264819905809 -14 -2 -3 -2 -11 -13 7 -1
1532264819935729 11 -6 -16 -12 -9 51 -9 -3
1532264819965650 1 6 13 34 -24 -42 -17 -4
1532264819995570 -12 -6 17 1 11 39 -8 1
1532264820085330 15 -3 -1 -3 5 -20 15 -4
1532264820100289 3 2 -3 -21 -69 -23 -5 -27
1532264820130210 2 -2 -2 -1 -15 -36 5 -3
1532264820190049 -11 -8 -5 -6 34 10 -13 -20
1532264820206007 0 -7 1 7 11 5 11 7
1532264820242909 1 -2 1 6 -24 -26 1 -2
1532264820265847 2 18 -2 16 -17 -10 12 3
1532264820280807 1 -7 3 -10 -16 4 -10 -2
1532264820295767 2 -5 -4 -29 -44 8 28 7
1532264820347629 -1 -7 -7 3 -6 26 15 2
1532264820385527 -4 -5 -6 8 16 -52 -7 -4
1532264820408466 -2 -4 0 -1 -10 3 -14 -2
1532264820468305 3 3 3 2 10 -17 5 5
1532264820498226 1 24 2 -1 -1 -25 8 5
1532264820520167 -3 -12 1 8 -14 2 -14 -1
1532264820565046 -3 5 0 -2 -5 -6 -1 -2
1532264820610924 1 -22 -4 0 19 22 -1 -2
1532264820647826 -2 -3 -2 -4 3 -30 4 -1
1532264820670764 -2 1 1 -3 6 -2 0 0
1532264820715644 -10 -18 3 -2 15 15 1 -10
1532264820745565 17 -2 -4 -7 6 -45 -5 -6
1532264820820365 17 -27 -7 -7 0 9 -2 0
1532264820850284 5 2 9 20 -46 -44 -2 7
1532264820888183 21 -7 0 -6 -9 -24 3 3
1532264820941042 -2 7 -2 -4 15 35 -4 -4
1532264820992903 6 15 9 5 7 -33 5 0
1532264821112583 -7 -1 2 -5 -9 -13 6 5
1532264821165441 12 1 0 -3 -22 -6 6 3
1532264821188380 -5 -8 -3 2 5 11 1 2
1532264821218300 18 0 -4 -1 -5 -19 0 0
1532264821240242 -3 -1 1 1 0 9 1 -1
1532264821293100 -5 -13 -6 -4 -21 -8 -2 0
1532264821315042 -4 -5 9 16 4 36 -5 -6
1532264821345959 30 12 16 7 5 37 -2 12
1532264821405798 -2 4 -3 0 -2 -21 0 -5
1532264821442700 -6 -2 4 1 8 2 -1 -7
1532264821495558 -6 1 1 5 19 11 -10 -3
1532264821518498 -4 -7 -6 0 -4 -9 6 -1
1532264821548418 -2 2 1 -8 -10 -5 0 -1
1532264821563378 -7 -8 -5 -3 26 9 -3 -3
1532264821578337 1 -3 -2 0 7 -4 0 2
1532264821608258 -4 -3 -6 -12 -2 30 -4 -4
1532264821623218 4 0 -4 6 5 7 -4 1
1532264821645159 -2 -6 -1 2 -2 12 7 1
1532264821742898 -1 2 -1 -1 -13 9 4 2
1532264821795756 1 1 1 4 -4 -1 0 1

1532264821855596 1 -1 -1 -1 -7 -17 -6 1
1532264821960496 -3 -3 2 -2 -8 0 -1 0
1532264821975456 -3 -4 -5 -1 -3 -2 0 -2
1532264822005376 0 -1 1 -3 -39 7 3 -3
1532264822035296 -5 -6 1 -2 1 -9 -9 -4
1532264822050256 2 1 -3 2 6 4 4 0
1532264822065215 -2 -1 -4 -3 2 -4 -3 -4
1532264822088155 -2 -3 2 0 4 -4 -6 -4
1532264822110096 -2 0 9 12 47 28 -8 1
1532264822141014 3 -1 -7 6 31 21 2 0
1532264822162955 2 -3 2 -5 -16 -20 1 2
1532264822200853 -3 -2 -5 -2 -4 -13 1 -1
1532264822222794 1 2 0 -4 -30 -51 3 0
1532264822252714 3 -1 -1 -4 -2 -10 -4 -2
1532264822275653 0 -1 -2 0 2 -7 4 1
1532264822297603 -3 -2 -2 1 -2 3 -4 0
1532264822335494 0 0 0 1 -2 7 -1 0
1532264822425253 0 -4 -2 0 3 1 6 -4
1532264822455173 -1 0 -2 0 -6 -4 -1 0
1532264822478112 0 -2 -2 -3 -6 -20 -8 -1
1532264822522992 0 0 3 -3 -7 -3 1 1
1532264822575850 1 1 0 0 -1 1 0 -1
1532264822635690 0 -2 -2 -1 -1 0 1 -3
1532264822688549 -2 0 1 -4 -1 -1 -1 -1
1532264822733429 -1 0 1 2 0 -2 0 0
1532264822770330 -1 -3 -3 -1 -2 -1 0 -1
1532264822815210 -1 -2 -3 1 0 -1 -1 0
1532264822868069 1 -1 -1 -1 -1 -1 1 0
1532264822958845 -1 -1 0 -3 -1 -3 1 0
1532264823055567 0 -3 -2 -2 -1 -3 -1 -2
1532264823160287 0 1 19 20 0 -10 -3 1
1532264823205168 -1 6 23 -5 -6 -11 2 -1
1532264823266005 -1 -2 -1 4 -17 -36 -6 -4
1532264823280965 0 6 -12 -20 7 24 -4 -1
1532264823332826 3 -11 1 3 16 -4 3 -1
1532264823392666 5 -2 -5 -11 -8 -39 -4 -1
1532264823422587 29 5 17 11 3 -3 2 2
1532264823453503 0 -6 1 4 20 24 4 1
1532264823483424 0 -14 6 -5 -8 -17 4 3
1532264823520324 -6 -1 -4 5 5 47 -2 -4
1532264823550245 13 9 22 2 25 37 5 2
1532264823580165 -6 -24 -4 -6 -4 -2 -3 0
1532264823610085 -6 6 -15 -14 27 16 0 -4
1532264823685882 -8 -8 2 29 85 13 5 -2
1532264823722784 1 -30 -15 -7 -5 -9 11 8
1532264823828501 -4 6 -6 -4 -17 4 15 -2
1532264823873380 -3 24 19 9 33 -1 -3 -2
1532264823895322 5 16 3 11 27 -5 3 1
1532264823963141 2 2 -6 -4 3 15 -2 -3
1532264824037941 2 -5 -1 -5 -17 -26 -2 2
1532264824067861 -6 -3 -2 2 -11 -17 -21 -4
1532264824112745 2 -2 -1 -1 -7 -6 5 -8
1532264824165599 0 -1 -3 1 -6 -9 -21 2
1532264824196517 -2 -3 -2 -1 -2 11 24 6
1532264824218458 -2 -4 -1 -2 -8 -10 -17 -1
1532264824248378 0 0 -1 -4 -8 -35 -13 0
1532264824263338 -3 0 -8 -1 17 42 8 0
1532264824278298 -11 -5 -7 -17 -9 14 -4 -8
1532264824300239 5 6 0 -5 -19 -66 5 5
1532264824323178 -1 -2 0 5 67 31 8 -2
1532264824345119 7 -2 7 29 49 -28 8 2
1532264824390997 10 -1 -1 0 -26 -23 -9 4
1532264824442858 3 -2 1 5 -4 1 15 -2
1532264824487738 -2 -2 -5 -3 -18 -16 -11 -5
1532264824517658 -1 -9 3 1 -7 6 -13 -5
1532264824540606 5 4 -2 3 17 -33 -18 -4
1532264824563535 -2 2 4 -6 -8 0 -7 -4
1532264824578495 -4 -1 -6 1 -14 -3 1 -1
1532264824608415 2 0 -6 1 18 -14 -15 0
1532264824638335 1 -1 0 0 4 18 0 1
1532264824683215 -1 0 -5 1 4 13 1 -6
1532264824705156 -17 7 4 0 -2 -9 1 -4
1532264824780954 9 -2 -3 -1 -3 5 -1 1
1532264824810873 5 -3 -3 -1 0 8 16 4
1532264824847775 0 0 -4 -1 1 -6 3 1
1532264824870714 1 2 -3 -4 9 27 -7 -3
1532264824915594 3 0 0 1 -4 -4 4 -1
1532264825035274 -2 -5 -4 -8 -6 7 -9 -1
1532264825110074 0 2 5 9 25 16 -4 0
1532264825185871 3 1 -6 -9 18 5 18 22
1532264825269647 -1 15 -7 2 -2 1 4 23
1532264825313529 0 1 4 -14 -21 6 -19 -21
1532264825373369 1 -19 -7 9 -6 9 -3 -4
1532264825425231 -4 -7 -9 -8 -26 -5 21 -7
1532264825552889 -4 -20 -24 -1 9 5 -17 -6
1532264825605748 1 -13 -8 3 -6 5 2 7
1532264825665588 -2 -6 -6 -3 -2 -5 0 -5
1532264825815188 -6 -1 -3 -3 9 -63 -13 -2
1532264825876027 3 1 3 -4 -1 43 -7 36
1532264825935865 -2 4 2 -2 -24 2 -18 -7
1532264825973764 -3 -4 -3 2 16 22 0 1
1532264826017647 -2 -2 -4 4 12 10 53 3
1532264826055546 -2 -4 -1 -3 -31 -3 12 -3
1532264826070506 -2 -8 -9 -3 25 9 45 -7
1532264826093444 3 2 1 4 5 -3 7 -10
1532264826115386 -5 -3 -6 -6 6 -4 5 7
1532264826145305 -3 0 -2 -13 50 28 -2 4
1532264826183204 0 1 -2 3 4 1 6 -16
1532264826310863 2 4 0 0 -11 -15 0 2
1532264826347764 0 -11 -2 1 12 -16 9 -2
1532264826370703 -1 -1 -2 -4 -13 -44 -21 0
1532264826438521 -9 1 0 3 -11 -43 -7 0
1532264826588121 -4 -17 -10 -3 36 -11 -1 -2
1532264826626019 -5 -9 -8 -7 -6 5 24 -4
1532264826655939 35 -1 3 -1 -6 3 -1 2
1532264826692841 -4 4 -4 -11 12 40 4 1
1532264826730740 -4 -8 -5 -5 29 4 11 6
1532264826752681 -2 -3 7 7 10 -42 -8 -1
1532264826782601 -1 9 -6 -9 4 -23 5 3
1532264826798558 -5 -4 0 -7 -26 -36 -19 -6
1532264826843439 22 66 10 0 17 -19 -1 -1
1532264826858399 -8 -14 0 21 22 -23 -5 -5
1532264826873358 -9 -3 2 -7 -24 -25 2 -1
1532264826903278 -10 -14 -5 2 16 12 19 0
1532264826918239 -2 2 -1 7 31 -9 -6 2
1532264826940180 0 5 4 -5 -8 3 -7 -6
1532264826978090 2 -3 -2 -10 -3 -17 11 7
1532264827007999 2 -2 -5 -3 7 -5 18 3
1532264827052878 -3 -5 0 -6 -19 -14 -23 -5
1532264827082799 0 1 3 12 20 1 -19 -3
1532264827112719 -1 3 2 2 -6 -17 5 0
1532264827150617 0 -3 -4 -5 14 31 -7 2
1532264827180538 -3 -3 -5 0 -12 -13 5 -1
1532264827218436 -2 -2 -5 -8 -15 -11 -16 -6
1532264827270297 -1 1 0 0 -10 2 -16 -9
1532264827323155 20 -11 -4 -3 -2 21 14 12
1532264827382996 45 6 4 -4 -9 -24 -1 11
1532264827442836 -15 -7 -4 -5 -2 -15 -50 -13
1532264827487715 -1 2 4 2 9 54 6 -9
1532264827555534 -1 -4 -2 -3 -14 -6 -5 3
1532264827623353 8 0 0 -4 -8 4 0 0
1532264827675229 -8 -3 -2 -2 -2 -27 -10 -6
1532264827720094 28 -3 2 0 7 19 4 3
1532264827751011 4 -1 -3 0 -15 -7 10 -3
1532264827847765 21 0 0 -3 -2 1 -5 -3
1532264827923550 10 -4 -4 -2 9 25 -4 -5
1532264827998351 3 2 -1 1 2 -6 -5 -1
1532264828035251 0 -3 -2 2 10 2 4 4
1532264828073150 -17 -6 -4 -1 -4 -10 -3 -8
1532264828103070 11 15 14 9 7 -4 -3 5
1532264828132990 0 0 -2 -1 -4 -12 -4 -2
1532264828155929 4 1 0 3 -1 1 2 -1
1532264828185849 1 -4 0 -5 -4 13 -1 -2
1532264828207790 0 -1 -2 -2 -1 -4 -1 -3
1532264828230733 3 2 0 6 9 -18 -2 2
1532264828245689 -1 -3 -2 -8 -8 15 -1 -2
1532264828267630 0 5 -1 -3 0 10 1 -2
1532264828320490 -3 -3 4 2 -1 11 -1 0
1532264828373351 -2 0 0 -3 -1 -52 -7 -2
1532264828419225 1 -2 2 2 0 14 1 0
1532264828463107 0 -2 -2 -3 -7 -8 2 0
1532264828507987 -2 -1 -4 -3 6 23 -1 -1
1532264828530926 -1 1 -2 3 5 7 -1 0
1532264828575806 1 -1 -1 2 1 -13 -1 -1

1532264828620686 -2 1 0 -3 10 33 0 0
1532264828642627 -1 -2 -1 0 -5 -12 0 -3
1532264828673549 0 -2 2 -1 0 1 -3 0
1532264828727400 1 0 -1 6 18 0 -2 -2
1532264828772281 -2 -3 -1 -7 -12 -9 0 0
1532264828808185 -4 -2 -2 -1 7 -2 -3 0
1532264828861057 0 -1 5 5 3 0 -1 1
1532264828912905 -2 5 3 7 9 8 0 1
1532264828935843 -1 -1 -7 -10 -10 -16 -3 0
1532264828957785 0 -4 -3 -5 -4 0 0 -3
1532264829002664 -3 -1 -5 1 5 11 0 -2
1532264829048558 -2 0 -2 -4 18 11 -2 -3
1532264829123341 -1 -4 -3 -5 6 1 1 -1
1532264829228061 -3 -6 -2 -2 -1 -29 -7 -2
1532264829272942 2 4 5 8 -9 -46 -4 -1
1532264829385640 -2 1 0 0 2 10 -3 -1
1532264829400600 -1 -2 2 0 0 4 0 -1
1532264829453459 0 -1 -1 -2 -9 -12 2 -1
1532264829513299 1 2 0 1 -2 -1 0 -2
1532264829603062 -2 -3 -2 -1 -3 -16 -1 -1
1532264829662899 0 0 -1 0 0 3 -1 -1
1532264829677858 -2 -1 -3 -2 -1 1 0 -2
1532264829730718 0 0 0 2 5 1 0 0
1532264829888305 -1 0 0 2 -3 -6 0 -1
1532264829940158 -2 -3 -4 0 0 3 -1 -3
1532264830105714 -1 0 -1 -4 -2 -3 0 -1
1532264830270275 4 -4 7 57 62 -9 3 2
1532264830323133 -2 -1 6 -3 39 -7 -4 -2
1532264830382973 -2 -6 2 -1 3 15 -9 -6
1532264830480712 0 -4 -5 16 27 -23 6 3
1532264830533570 -5 -8 -3 -8 -36 -53 1 -3
1532264830585432 -7 -53 2 -9 -28 -36 2 -9
1532264830608371 -2 24 -2 7 16 60 -2 -11
1532264830728051 4 -10 -5 7 9 1 0 0
1532264830765949 -1 1 -3 -1 -3 -24 -1 1
1532264830877651 -1 -3 -2 -8 -10 -8 -2 -1
1532264830990349 0 -2 0 -2 -6 22 -9 -1
1532264831103047 0 -2 -1 -12 -18 9 2 -3
1532264831132967 6 11 -5 2 26 15 2 1
1532264831155906 4 -9 -2 4 6 -18 8 15
1532264831170867 0 -3 0 -1 -15 -26 -14 -10
1532264831185826 -9 5 -3 0 -6 19 8 0
1532264831224740 -3 -4 -2 3 -6 -22 -22 -4
1532264831290547 -9 4 1 5 4 -3 -17 -6
1532264831335426 -1 0 -3 1 -2 -35 -3 -2
1532264831358366 -6 0 0 -3 10 14 7 1
1532264831410227 -1 0 3 2 11 24 -5 -3
1532264831440147 -1 0 0 -3 -5 -29 -10 -1
1532264831455106 0 0 -3 0 -3 -3 -8 1
1532264831493005 -2 1 -3 1 2 -3 -3 -1
1532264831612685 1 -1 -3 -4 1 -14 0 -1
1532264831642605 -3 0 0 0 13 3 -10 -3
1532264831718402 -1 -4 1 -1 -11 -20 0 1
1532264831748323 -1 -2 -2 -3 -3 -1 -4 1
1532264831823123 1 -4 0 -9 -1 -2 11 23
1532264831845064 2 -2 -4 -5 0 3 1 20
1532264831868002 -8 -9 -3 -4 -2 10 -16 -9
1532264831957762 3 5 1 3 4 -4 0 26
1532264831987682 -3 19 7 1 -5 -2 -9 2
1532264832063480 5 2 -10 5 5 5 7 -6
1532264832078440 -10 2 2 -11 -48 -8 -11 -26
1532264832093400 4 3 8 21 6 -7 4 5
1532264832123320 8 -8 -1 0 -21 -2 23 -1
1532264832198119 -4 -4 3 7 5 16 -8 0
1532264832287880 -6 -5 -6 -2 1 3 -18 -19
1532264832325778 0 -2 -8 12 7 -5 -13 -8
1532264832370658 1 2 10 -16 15 1 1 -3
1532264832400586 -4 -9 -18 -22 -21 -3 -7 -7
1532264832453437 -1 -2 -6 -21 -23 7 4 2
1532264832483357 3 1 5 1 -23 -4 16 8
1532264832543197 15 5 4 5 13 3 -2 -8
1532264832565139 -4 -1 -1 4 -1 -9 9 0
1532264832589075 3 3 2 2 3 14 -20 5
1532264832611016 10 1 -2 8 26 18 34 4
1532264832655895 1 -4 -2 0 -23 -26 -2 -6
1532264832671853 -4 -3 -5 3 23 23 53 -7
1532264832700776 -8 -8 -8 -5 2 7 29 -37
1532264832730696 -4 -2 1 -1 5 8 -13 -27
1532264832805495 -1 -4 -3 -10 -14 -8 4 9
1532264832850375 -1 1 3 7 2 -5 0 -1
1532264832949111 2 0 0 -1 3 -6 -18 -2
1532264832978034 -1 0 -1 -5 18 -21 -48 0
1532264833105692 0 -7 -7 -11 2 -13 2 5
1532264833165533 -9 8 6 -2 -30 -22 -2 3
1532264833195452 0 -2 -2 -3 10 4 3 -1
1532264833240349 6 -3 -1 -5 -4 -9 5 -3
1532264833285213 -11 0 4 -9 -18 34 -10 2
1532264833323111 -7 -14 -8 -10 -4 -11 -5 -4
1532264833345060 -1 -1 -2 -6 -24 -31 -11 -1
1532264833382951 -11 -4 -7 -15 -14 -17 -6 -3
1532264833412871 4 -6 1 -4 9 9 -1 2
1532264833465729 2 3 11 35 22 7 8 1
1532264833502631 -1 -3 -1 2 -18 -23 1 -2
1532264833525570 0 -2 -8 -9 33 10 12 4
1532264833563468 -5 -5 0 -1 -56 -34 -39 -12
1532264833609346 0 2 2 10 31 -10 -5 0
1532264833675170 -3 -1 -1 -2 13 7 -4 -2
1532264833990327 -10 -5 -4 -1 -7 -7 3 1
1532264834020247 0 2 0 -2 -6 13 6 0
1532264834103026 3 19 -1 1 6 -11 -16 0
1532264834170845 -5 -6 -7 -8 -7 -5 -10 2
1532264834222706 -2 -3 -1 -14 -12 -16 16 0
1532264834275565 -1 -12 -15 -4 -5 -6 -13 -3
1532264834343383 -3 -7 -6 2 18 17 0 -6
1532264834388263 0 -8 -4 -3 12 34 6 -2
1532264834448103 -4 -4 -5 2 6 -7 -2 -3
1532264834560802 4 -3 -2 -5 2 -7 -6 -2
1532264834582743 -2 -8 -1 -3 -3 -13 5 -1
1532264834620642 3 7 -1 3 4 23 25 7
1532264834650561 -10 -11 -7 -6 12 39 7 -1
1532264834673500 1 1 -1 0 33 24 -10 -18
1532264834688460 -1 -4 -4 -2 -1 4 13 3
1532264834740322 3 3 1 3 -8 -33 4 1
1532264834763260 -4 -10 -2 -7 -8 -5 -6 -5
1532264834800162 -1 2 2 -4 -2 -23 -19 -3
1532264834823100 1 4 3 4 -2 -17 -5 1
1532264834838061 -4 -4 -5 9 7 -1 -8 -4
1532264834890928 2 9 -4 4 8 37 14 3
1532264834920839 4 3 3 -6 -37 -42 8 7
1532264834944775 -2 5 0 1 13 17 8 -4
1532264834980679 -9 2 -3 -2 4 25 -1 -1
1532264835002620 -2 0 -5 3 23 29 -2 -1
1532264835025559 -1 -3 0 -2 3 8 5 1
1532264835040518 0 -2 3 5 1 -1 -6 -2
1532264835070438 5 0 -3 4 0 0 -6 1
1532264835093377 -1 -3 -4 -4 -14 -21 4 2
1532264835123318 -1 0 0 2 -8 -35 -6 0
1532264835168177 0 -2 3 -2 0 2 -17 -3
