1532259653494186 0 2 0 -2 6 3 -4 -2
1532259653564996 -3 -2 0 6 -3 11 3 -1
1532259653621845 -2 -1 1 -4 -38 2 -4 -3
1532259653643786 -1 0 -1 1 1 12 -4 -3
1532259653696645 0 -2 -2 -4 -13 -15 -5 -3
1532259653719584 1 0 1 1 15 5 1 0
1532259653794384 0 1 1 -8 2 3 10 7
1532259653824304 0 -1 1 11 7 3 -2 1
1532259653907082 -4 -2 -3 4 15 9 -23 -1
1532259654044713 -1 -1 -2 -4 20 -3 -4 3
1532259654131482 3 2 -1 0 -7 -15 13 10
1532259654184341 -9 3 2 -1 1 7 -7 -9
1532259654348900 -2 -1 -4 -3 -7 -52 -6 -16
1532259654499498 0 13 -6 -14 -21 -24 -27 -23
1532259654536400 20 3 1 9 10 22 29 20
1532259654596239 3 1 -3 -7 0 6 20 -1
1532259654881477 4 14 5 24 17 35 24 2
1532259654949295 -6 -12 -4 -5 -3 27 5 -9
1532259655098895 3 1 -1 -1 -7 13 -15 2
1532259655166714 -6 -19 -5 -7 -12 31 19 3
1532259655273429 -3 1 1 2 -4 -30 -13 1
1532259655316332 -17 -1 -3 -10 -3 46 26 -28
1532259655429012 -4 -4 -11 -26 -6 -18 -41 -50
1532259655473892 -6 -3 -2 5 0 -52 -38 -13
1532259655526751 -5 -1 1 15 -4 14 -6 8
1532259655579609 1 -1 1 5 14 58 8 1
1532259655646431 -4 -8 -3 1 -6 -44 -63 -36
1532259655827946 -55 0 -1 0 12 79 9 -100
1532259655946628 1 9 -5 -14 -1 17 6 9
1532259656036388 -5 -2 0 3 -21 14 15 -13
1532259656081268 -1 -4 -5 -5 6 28 0 -3
1532259656193967 -1 0 0 0 -1 -9 -1 1
1532259656276745 -1 -6 -6 -5 6 12 6 -2
1532259656398420 -2 0 0 2 -1 7 7 3
1532259656480226 -7 -9 -5 -7 -4 -31 -13 -1
1532259656547048 -4 2 1 8 9 15 8 1
1532259656576968 -2 -2 -2 2 6 -16 -3 -4
1532259656628829 1 -1 -1 -21 -11 9 -3 -2
1532259656756488 -1 -9 -3 -1 -2 4 0 -8
1532259656824305 -1 -1 0 -3 -1 4 2 6
1532259656892124 -2 2 -2 0 -2 1 12 9
1532259656981884 4 -5 2 3 3 -2 1 5
1532259657116525 0 -2 -1 0 -1 3 7 -3
1532259657131484 -6 -4 -1 -1 0 1 -7 -2
1532259657244210 -1 -3 1 0 0 3 0 1
1532259657282109 -1 -1 -4 -3 -2 -5 -2 4
1532259657312029 -3 1 1 6 2 0 3 -3
1532259657356909 1 -1 0 -1 -2 -5 -9 -4
1532259657386829 -3 0 -2 -7 3 -7 -5 -13
1532259657408770 0 0 3 14 7 -4 -2 3
1532259657619208 4 0 3 3 -1 9 9 0
1532259657716947 0 -1 1 -2 -1 9 -1 -1
1532259657813688 -2 -1 -3 -3 -1 8 1 2
1532259658002190 1 -1 -3 -9 -5 0 7 3
1532259658151784 -2 -1 -1 -3 1 -3 -2 -2
1532259658234562 2 3 4 -3 -3 -8 1 1
1532259658369202 -3 -1 -1 2 1 5 3 4
1532259658571661 -2 2 0 -1 0 1 2 -1
1532259658646461 -1 0 -1 3 0 -4 -3 -2
1532259658699319 -1 0 -3 -2 -3 -2 -5 -4
1532259658752178 0 -3 -2 -8 -6 -4 -2 0
1532259658782098 -2 -4 -2 -2 -2 -3 -9 0
1532259658826978 -1 1 -3 -9 2 7 0 2
1532259658848919 -1 -1 -1 -1 1 3 -3 -5
1532259658893799 -1 0 1 1 -2 3 0 -4
1532259658946658 -1 -1 1 7 1 -2 5 1
1532259659127176 -1 -1 -2 -2 -3 6 1 -8
1532259659374514 -2 -1 -2 3 -1 0 -6 -6
1532259659456295 0 0 2 5 -2 0 0 -2
1532259659532092 -1 -1 0 -1 3 4 -2 -1
1532259659563010 0 -2 0 0 -4 -1 1 1
1532259659598914 0 0 0 -6 -7 -1 1 -1
1532259659651779 -1 -1 1 6 7 -2 -2 -3
1532259659667755 0 0 -2 -5 -5 -1 5 -3
1532259659690675 0 0 -1 2 0 -1 -3 -3
1532259659779436 -1 -3 0 -4 -2 12 5 -4
1532259659809357 3 -2 -1 0 -1 1 -3 -4
1532259659869197 -1 -1 0 -1 -4 -1 1 1
1532259659937030 -2 0 -1 5 1 -8 -2 0

1532259660079651 -1 0 -1 -1 1 -3 1 -2
1532259660146470 1 -3 -1 -2 1 -3 -5 5
1532259660221288 -1 -2 -1 -3 1 -7 0 -1
1532259660259168 -4 -1 -3 -4 -5 -3 -5 -2
1532259660289089 1 0 0 -8 2 5 -3 -2
1532259660356907 0 -1 -1 1 0 10 -1 0
1532259660386827 0 -1 0 -3 0 1 -2 0
1532259660423728 0 -1 -2 -2 1 -1 1 -1
1532259660484565 -1 0 -2 -3 1 2 -4 -5
1532259660499526 -1 -1 0 1 -1 2 -2 0
1532259660581307 -2 -1 0 -2 -2 -2 -2 -4
1532259660611227 -1 -1 1 1 -6 0 -1 -1
1532259660642144 -1 1 1 0 -3 -8 -1 -1
1532259660687024 -2 -2 -2 -2 1 0 1 2
1532259660708966 0 -1 -1 4 3 -2 2 -1
1532259660723927 -1 -1 -2 -1 1 -8 -3 3
1532259660776784 0 0 -1 -3 -1 3 1 -10
1532259660866549 -4 -2 -1 -4 -5 -4 -3 -2
1532259661054088 -1 -1 -1 -7 -4 -1 1 2
1532259661113927 1 0 -1 0 -2 4 -5 2
1532259661256546 -2 0 0 -2 -2 14 -2 -2
1532259661294444 0 -2 -2 1 0 -5 3 -1
1532259661316385 1 -2 -2 1 5 6 5 0
1532259661331346 0 0 -2 -12 -5 -21 1 1
1532259661391186 0 -1 3 12 5 12 4 0
1532259661406146 -2 -2 -3 -6 0 0 -1 0
1532259661444044 -1 -1 -2 -7 9 26 4 -1
1532259661496903 -2 -2 -4 1 -10 -16 -2 0
1532259661571716 -2 -1 1 4 10 -20 7 -1
1532259661766191 -23 -2 -5 -6 -1 2 -7 -42
1532259661827035 10 0 -2 -1 1 -20 -9 17
1532259661887860 -2 -3 -2 0 12 27 6 -27
1532259661961661 -6 0 1 1 -11 37 -11 -23
1532259662036460 7 -3 -5 -1 7 -48 -4 14
1532259662366577 -3 1 -1 -1 -16 5 -36 -29
1532259662396497 6 3 0 -4 -5 20 23 61
1532259662471297 0 0 -4 -7 -11 -34 0 9
1532259662524156 1 0 0 -3 -2 2 -9 4
1532259662622897 -10 -2 -8 -9 -5 12 -19 -23
1532259662651815 -8 0 -3 -16 -2 85 10 15
1532259662937053 2 3 2 10 16 0 1 -1
1532259663063713 -1 -8 -3 0 -12 72 -24 0
1532259663146492 5 -4 -4 -6 6 -6 12 26
1532259663214310 -5 0 -1 23 13 -21 12 -11
1532259663274150 -1 -6 3 16 8 15 1 12
1532259663393831 -2 6 -7 -2 -5 -31 -6 -16
1532259663416769 2 3 1 18 -6 18 -2 -2
1532259663469629 -3 3 1 15 0 25 5 -2
1532259663499558 -2 -6 -3 -5 -2 -5 -15 -5
1532259663566372 -2 -5 0 -7 -6 -4 2 1
1532259663611249 0 2 0 3 6 8 0 -14
1532259663776806 0 6 6 2 7 -25 4 -17
1532259663844625 -2 -2 2 -5 -9 24 -25 -11
1532259663919429 0 6 1 1 -1 20 11 0
1532259663941366 -1 -3 2 18 16 27 -3 0
1532259664016165 1 -3 -2 2 3 -12 6 4
1532259664032123 2 1 1 9 6 16 6 9
1532259664106923 -2 0 -1 5 3 6 -3 3
1532259664128865 3 3 0 -3 -2 -31 0 5
1532259664166763 -2 -3 -3 -3 1 23 17 -12
1532259664271483 -1 -2 0 2 0 0 10 -8
1532259664309383 0 1 2 3 0 -18 2 -5
1532259664369222 1 0 3 2 -2 1 0 1
1532259664384182 3 2 1 -4 -4 -14 11 -6
1532259664548742 -1 -1 -3 -1 2 -4 2 -2
1532259664586641 -4 -1 1 -5 -4 -2 0 -5
1532259664624540 -1 -3 -3 -7 0 -29 -10 -9
1532259664848939 1 1 2 -2 0 49 14 -1
1532259664863898 -2 0 -2 -2 -3 -8 -3 -8
1532259664938699 -1 -1 0 -1 2 -1 5 -3
1532259664999537 -3 -2 -4 -4 -3 -6 -2 -14
1532259665098273 0 -2 -3 -2 -4 -4 -7 2
1532259665126198 -1 3 2 -5 -8 0 -1 4
1532259665201995 -1 0 1 1 -2 12 -14 -5
1532259665253857 0 1 0 0 1 -9 -8 -7
1532259665336636 0 -1 -1 1 0 -8 -3 -6
1532259665434373 1 -2 -3 -8 1 7 2 8
1532259665554075 -2 -1 -1 5 2 -33 2 -8
1532259665606919 2 0 0 2 1 9 5 3
1532259665658774 -2 -1 -2 -1 -3 9 2 4
1532259665923067 0 -2 -2 5 3 -20 3 -4
1532259665958971 -2 0 -1 -3 2 35 6 -4
1532259665988892 -1 -1 -2 -3 -2 8 -3 -1
1532259666018811 -1 -2 -3 2 1 0 7 -1
1532259666048731 -1 -1 -1 1 -5 18 1 -3
1532259666124529 -2 0 0 -6 -2 -14 -10 -3
1532259666161429 2 1 2 1 -2 -34 -5 -2
1532259666251190 2 -1 -1 -2 2 20 17 13
1532259666319008 -3 -2 -2 3 2 -4 -9 -9
1532259666386827 -1 0 -1 -3 -10 -11 3 -1
1532259666423728 1 -1 -3 2 0 4 0 5
1532259666469605 -2 0 -2 -2 -3 -2 -12 -1
1532259666544413 0 -1 -2 0 3 3 -7 -5
1532259666619205 -1 -1 -2 -2 2 -3 -2 4
1532259666642144 -2 0 0 1 -2 3 -6 -11
1532259666738885 -2 0 -1 -2 -2 6 -7 5
1532259666798734 0 0 3 2 0 -2 -6 -2
1532259666866544 -3 -2 -3 -1 -2 -13 -10 -3
1532259666904443 -1 -1 -1 1 -2 -13 -1 2
1532259666971292 0 -1 -1 -3 1 3 8 2
1532259667017148 -2 1 0 0 2 -3 -2 1
1532259667047067 -2 0 -1 -2 2 3 -5 0
1532259667128849 -3 -2 -2 -4 0 10 -1 -1

1532259667158768 -2 -1 -2 -4 -3 5 3 3
1532259667234566 -1 -1 -2 -2 1 14 4 -4
1532259667301387 0 -3 -1 -1 -3 5 -10 0
1532259667324325 -3 -1 -2 -6 -3 -9 1 -3
1532259667437024 -2 0 0 2 -2 4 -3 -2
1532259667473926 1 0 -2 -6 0 14 1 5
1532259667503845 0 -2 0 -3 0 -3 7 1
1532259667526784 0 -2 1 2 1 1 -1 1
1532259667571664 0 -2 0 -3 -2 -6 -5 -6
1532259667729287 -2 -2 -1 -3 -2 -6 -4 -5
1532259667751228 -2 -1 -1 -2 1 -4 -3 -6
1532259667782145 -1 -2 -1 9 7 -2 -1 -2
1532259667812066 0 1 -1 -3 -4 3 2 1
1532259667878900 -2 -2 -3 -6 -2 10 -3 -4
1532259667916785 -1 -2 -1 -6 -1 1 -4 -3
1532259667984604 -2 -2 -1 -2 2 22 -2 -5
1532259668051426 2 1 -2 2 -2 1 2 0
1532259668104302 -1 -1 -1 -1 -3 -2 -3 -6
1532259668141185 -1 -2 -1 0 3 5 -8 -1
1532259668179084 -2 2 -1 -5 1 -1 -4 0
1532259668253890 0 0 -2 -2 0 5 -9 -1
1532259668283804 -3 -2 -2 -2 2 19 -6 2
1532259668336663 1 -1 1 -2 0 -4 2 4
1532259668381543 0 0 0 3 1 1 -3 -3
1532259668456343 1 -2 -4 -9 -12 -4 -2 2
1532259668562060 1 -1 -1 -4 -5 -2 20 7
1532259668621900 -2 -2 -3 -8 4 18 2 8
1532259668696700 2 0 -1 -3 -6 6 1 5
1532259668771509 -2 -3 1 -1 1 8 10 8
1532259669124556 -8 -3 -4 -5 -10 -103 2 -2
1532259669319036 -2 4 -1 6 -12 38 -20 -5
1532259669393836 11 -44 -16 -27 -29 -28 -47 25
1532259669469633 -8 17 -5 -6 2 3 34 16
1532259669657133 -3 -38 -4 -3 -9 37 4 8
1532259669785788 -4 1 -3 -3 1 35 25 4
1532259669874550 -8 -11 -17 -7 2 66 -4 -36
1532259669949350 -5 -29 1 11 -8 29 -16 -16
1532259670009190 0 15 -1 -2 9 11 -1 -5
1532259670077008 -1 -7 0 -3 -7 14 -7 -20
1532259670115905 -3 0 3 -1 -4 9 13 8
1532259670196689 -3 8 0 3 2 -12 0 -8
1532259670301409 0 2 -2 -9 3 22 8 2
1532259670488908 -2 -2 -2 -10 -10 2 -6 -8
1532259670752203 1 1 -8 -21 -3 -13 9 4
1532259670880859 1 -1 2 16 -4 -54 -3 2
1532259670969622 -2 -1 -5 -15 -1 1 -7 -2
1532259671029462 -6 -4 -1 -1 -2 3 -10 -16
1532259671082321 0 2 -3 0 5 13 10 0
1532259671134182 -2 -2 -1 6 1 -4 -25 5
1532259671208982 1 0 1 3 3 -8 6 2
1532259671246880 -3 -1 0 1 3 42 -15 -22
1532259671336641 2 0 -1 1 1 3 -2 19
1532259671494219 -1 -3 0 3 0 11 12 2
1532259671613899 1 -3 -2 -12 -6 -7 3 -1
1532259671764496 0 -2 -1 -7 0 -4 4 -1
1532259671966954 -2 -1 2 3 -5 -2 0 -1
1532259672079661 0 -1 0 6 7 0 -5 6
1532259672469611 -2 -1 0 -1 1 -18 -8 -2
1532259672506513 0 -1 0 11 4 10 2 0
1532259672649131 -2 -2 -2 -3 2 -12 -2 -1
1532259672708971 1 0 -1 0 0 14 3 0
1532259672776789 -1 -1 -1 -3 -2 -2 -5 3
1532259673054048 -1 -1 -3 -5 3 10 1 -3
1532259673128848 -4 -3 -1 0 0 -6 -1 -1
1532259673211626 -3 -2 1 8 0 5 -1 -12
1532259673361227 0 -3 -1 0 0 -6 -4 -3
1532259673414084 0 -2 -2 -8 -4 2 -7 -3
1532259673452000 -2 0 0 3 -3 7 3 -3
1532259673488886 -3 -2 0 4 -3 8 10 0
1532259673564693 -2 -2 -1 -3 -8 -8 -7 -2
1532259673616544 1 -2 1 -1 0 0 -1 0
1532259673691344 1 -3 -3 -8 0 2 -3 2
1532259673729242 0 -1 -2 -2 5 -1 -2 -2
1532259673819002 -2 0 -1 0 -3 -3 3 -1
1532259673841941 -3 -1 -2 -2 -5 -27 -2 -4
1532259673893802 -4 0 -3 -2 -2 -6 -6 -3
1532259673931701 0 0 0 -3 2 2 -1 -1
1532259673969600 -1 0 -2 -1 2 5 1 -1
1532259673991541 1 0 3 3 2 4 3 2

1532259674036421 -1 -2 -2 -4 -1 -6 -7 -2
1532259674111221 -2 0 0 -1 -8 21 1 0
1532259674142138 -3 -3 -1 5 8 17 -1 -2
1532259674172058 7 -2 -3 -4 -42 -54 -5 -9
1532259674216938 15 14 5 3 -9 -12 -2 23
1532259674268859 -4 3 1 -5 -38 12 3 19
1532259674359616 13 -4 -4 -12 -22 -36 -2 8
1532259674389536 -6 -1 -5 3 1 10 1 0
1532259674577035 -1 -2 -3 0 1 1 -3 -2
1532259674613936 0 -1 -1 -1 2 0 1 1
1532259674643856 -3 0 -2 0 -1 -3 -1 -2
1532259674711675 -2 0 0 -1 0 -1 -2 -1
1532259674771515 1 -1 -1 -1 -3 0 -3 -2
1532259674801435 -1 1 -2 -2 -1 0 0 -1
1532259674839333 0 0 0 -1 0 1 -1 -1
1532259674854306 -3 -2 0 -1 -2 0 -1 0
1532259674892192 -1 -1 0 -1 -1 -1 -1 0
1532259674928985 0 -1 -1 0 0 -2 0 1
1532259674973865 -1 -2 -1 -1 -1 -2 -2 -1
1532259675003786 0 0 1 0 -2 1 -1 -2
1532259675041684 -1 -1 -1 -4 1 -1 -1 -1
1532259675146404 -2 -1 1 -3 -1 1 -1 -1
1532259675297001 -1 1 -1 0 -1 1 -2 -2
1532259675348863 -3 0 -1 -1 -1 -1 0 0
1532259675371801 -1 -1 -1 1 0 -2 0 -1
1532259675574259 -3 -1 -2 -2 -1 -3 -1 -1
1532259675686958 -2 0 -1 -1 0 1 -2 -1
1532259675761758 -2 -9 -6 3 8 2 4 -2
1532259675956238 -4 0 -2 -14 -49 14 3 -2
1532259676279374 -9 4 -1 -8 0 -13 -57 -23
1532259676316275 3 3 3 11 18 56 33 10
1532259676369134 -4 -3 -1 -3 5 -19 22 9
1532259676481833 7 2 11 22 5 -36 -38 -25
1532259676518734 -2 1 -4 -18 14 35 51 -13
1532259676616472 -5 -2 1 12 -4 -35 0 -25
1532259676721199 -3 -1 -1 -16 -6 4 12 16
1532259676796990 -1 -3 -4 -23 -3 -54 6 -8
1532259676886750 -1 3 3 6 3 -71 -31 -7
1532259676961550 -2 3 -6 -23 -12 19 8 -8
1532259677074248 -3 -6 0 -8 1 -6 2 -11
1532259677112147 2 22 -9 -7 -12 -64 -8 -9
1532259677186947 1 4 -1 0 -1 19 26 2
1532259677246787 -1 -1 -3 0 -1 -3 -12 -5
1532259677300643 -2 0 1 -2 1 8 5 2
1532259677351507 5 -4 0 -4 2 -2 -1 6
1532259677486146 -5 -1 0 1 28 -10 -4 -3
1532259677576904 -3 -3 -3 -4 -8 5 -2 1
1532259677643743 -4 -4 0 -10 -17 23 4 -1
1532259677719535 -3 -4 12 1 -23 -9 0 8
1532259677749443 -6 3 -2 -1 -31 3 0 -24
1532259677846184 -3 -5 -5 -2 -4 19 5 -2
1532259677914002 3 -8 -2 0 -5 4 -1 1
1532259677996781 -3 -1 -1 -2 1 -2 -2 -2
1532259678176302 -1 0 -1 -1 0 13 3 2
1532259678207219 -2 0 0 0 -1 2 -2 1
1532259678252099 -14 -1 0 -1 -2 -18 -1 22
1532259678296978 -3 -1 0 1 -2 0 1 -4
1532259678356835 8 1 -1 1 0 48 13 35
1532259678461539 1 -1 0 1 0 -7 -3 -27
1532259678553293 -5 -1 2 0 -1 5 -7 -17
1532259678686936 -3 -1 -1 0 -1 -4 2 2
1532259678814594 -5 -3 -1 -3 1 -11 1 -1
1532259679002092 -10 0 -2 -1 -2 -16 -6 -12
1532259679061933 -6 0 1 3 -1 -22 -8 -5
1532259679159672 -7 0 2 -3 0 0 1 -4
1532259679241453 0 1 -4 -2 0 2 1 2
1532259679384072 -1 -2 -1 -2 -2 -1 -2 -1
1532259679518712 -2 -1 -3 -1 -1 5 3 -2
1532259679564589 1 -1 -3 -2 -3 7 2 -4
1532259679661330 1 -1 -1 0 -2 -6 0 -1
1532259679886728 -8 1 -1 -1 -1 0 0 -4
1532259680014385 -6 0 0 0 1 0 -2 -3
1532259680291645 -1 0 -1 -2 0 -1 1 1
1532259680472162 0 -1 -2 1 0 -2 2 0
1532259680517042 -1 -3 0 -1 0 4 0 5
1532259680675618 -2 -1 -2 -1 -1 -1 -3 -3
1532259680696562 0 -3 1 -2 -1 -1 2 0
1532259680749421 -1 1 -2 0 -2 -2 2 1
1532259680921959 1 0 -2 -2 -1 -3 1 2

1532259681311916 -1 -1 0 -2 0 2 1 0
1532259681356796 -3 -3 -2 -1 -2 1 -2 -1
1532259681461516 -1 -1 -1 -2 -2 -1 -1 -2
1532259681536316 -2 -1 -3 0 -3 -14 -7 -2
1532259681701874 -2 -2 0 -1 0 1 1 0
1532259681829533 3 -1 0 0 -2 0 1 7
1532259681866433 1 -3 -2 -1 -1 -5 -6 -4
1532259682106791 10 -2 -1 -3 1 -2 0 0
1532259682346151 -1 -1 -1 0 0 -3 0 -1
1532259682392028 3 -1 -1 -1 -1 -7 0 -2
1532259682564567 2 0 -1 -2 -1 -1 -2 -1
1532259682594486 1 0 -1 -2 0 0 -4 1
1532259682767025 -2 0 0 -3 -1 -1 -2 -2
1532259682946553 -2 -2 -3 0 -4 2 0 -1
1532259683119084 0 0 0 18 9 -13 0 -2
1532259683178924 -1 -2 0 9 7 -33 -3 -2
1532259683366939 -3 -1 -3 -2 0 -2 -18 4
1532259683403841 0 2 2 9 11 8 -10 -1
1532259683456699 8 -2 0 2 -2 -25 7 35
1532259683524518 8 2 -3 -17 10 63 11 -1
1532259683576379 -6 0 -2 -4 -3 70 -33 -35
1532259683606301 6 5 2 4 1 34 107 22
1532259683682097 -20 -8 -4 7 28 -1 -25 -59
1532259683808757 5 1 4 18 5 30 11 19
1532259683846669 -1 4 1 -6 -9 -92 -17 -2
1532259683884555 1 -6 -4 -4 -5 61 -18 -24
1532259683951376 -3 9 -6 -2 4 -18 -52 -4
1532259684011216 4 -16 2 -4 -12 31 12 12
1532259684146854 -1 7 -3 -4 -6 21 -35 2
1532259684161814 1 0 3 5 -25 -7 31 -13
1532259684311414 -2 3 2 -8 -4 17 -4 -33
1532259684454049 -1 0 -3 -3 1 16 8 -1
1532259684581690 -3 -2 -2 -1 -2 -1 -2 3
1532259684777184 -16 0 -3 -1 15 5 -3 -18
1532259684792129 0 1 1 5 21 -5 1 9
1532259684933750 -1 -3 -2 -1 16 -32 -5 1
1532259684986608 3 2 3 11 -11 -21 -2 -1
1532259685040464 -8 0 1 -3 -28 -24 5 0
1532259685121248 -9 -5 -2 5 -28 -11 5 -1
1532259685182085 -7 -3 0 -3 -2 -7 1 -11
1532259685263867 -2 -1 -2 -2 0 -4 -3 -3
1532259685338667 2 0 1 2 6 6 5 1
1532259685421446 -1 0 -1 -2 -2 1 -3 -13
1532259685445382 -1 -5 -2 -3 -1 -1 1 6
1532259685819381 -2 -1 -3 -1 -1 -4 0 -1
1532259685871243 0 -4 -1 -2 0 0 0 -2
1532259685939077 -2 -1 -1 -2 -1 2 -2 -2
1532259685954030 1 -1 0 0 0 6 2 -2
1532259686096640 -2 -3 -4 -2 -4 -1 3 1
1532259686119579 0 -1 -3 1 -1 -1 -3 0
1532259686322037 -1 0 0 -2 0 3 0 -1
1532259686396837 0 -1 0 1 -1 -1 0 -1
1532259686494575 -1 -3 -4 -1 -3 2 -3 -4
1532259686554415 -1 -2 1 0 -2 -1 1 -2
1532259686651157 1 -2 0 0 -1 6 -3 1
1532259686726955 -2 -1 -1 -2 0 0 1 -1
1532259686854613 -4 0 0 -1 0 -5 -2 -2
1532259686936418 -2 1 -2 0 -1 0 0 1
1532259687491932 1 -1 -2 -2 -2 -2 1 3
1532259687784154 -3 1 -1 1 1 -1 -1 -3
1532259687888871 -1 -2 -1 -2 -1 1 -2 -4
1532259687956689 0 -2 -1 0 -1 9 -10 -4
1532259687971649 2 1 -2 -1 -3 1 3 -4
1532259688039468 0 -1 -2 -1 -1 -1 0 1
1532259688069388 0 0 -2 -1 1 0 -1 -1
1532259688114268 -3 -2 0 -2 -3 1 1 -1
1532259688136209 1 0 1 0 -3 -3 -1 0
1532259688174108 0 -2 -1 -2 -2 -3 -2 -2

1532259688218988 -4 -3 -1 -1 1 5 0 -2
1532259688316727 5 1 -1 -1 0 -2 -3 0
1532259688564088 -4 0 -3 0 -2 0 -2 -3
1532259688646850 -2 -1 1 -1 0 0 -3 -6
1532259688728687 -1 0 -1 0 0 0 -2 0
1532259688766586 -1 -1 -1 0 -2 -4 -5 0
1532259688804486 1 1 -1 -2 -2 -1 -1 -3
1532259688879307 -2 -1 0 -1 -2 0 -2 -1
1532259688969083 1 -1 -1 -1 -3 1 -2 -3
1532259689021926 -1 0 -1 1 0 1 -2 -1
1532259689073787 -1 -2 -1 -1 0 3 2 2
1532259689149584 -1 -2 -2 -1 0 0 -1 -3
1532259689299184 -1 0 -2 -2 0 -4 -1 0
1532259689448784 0 0 -1 -2 -2 1 -1 0
1532259689561483 -2 0 -2 -3 -2 1 0 -1
1532259689756960 -2 -6 -13 -15 15 12 -1 0
1532259689989339 -4 -3 -3 -4 13 -4 -8 -6
1532259690266597 -2 -6 -2 8 3 58 8 -5
1532259690356358 -1 -3 -6 -9 9 4 -3 -12
1532259690462075 -21 12 10 20 -18 29 18 5
1532259690611674 7 -5 -5 -6 -13 93 43 30
1532259690694453 -2 -2 -7 -8 2 -63 -44 -31
1532259690784212 4 2 1 -1 3 12 -10 -23
1532259690837075 8 10 5 4 -2 9 -4 22
1532259690911872 1 -30 -1 5 8 0 7 25
1532259690963733 -6 -10 -11 -25 -22 -83 -49 -54
1532259691099370 -7 8 4 -5 7 -91 -29 -20
1532259691166191 1 -13 -9 2 -16 49 -7 -27
1532259691301828 -1 -3 -7 -7 -5 8 -2 -4
1532259691362666 2 -1 0 4 -3 -4 2 -1
1532259691476363 -1 -2 -6 -7 -5 -5 -4 1
1532259691549168 -2 2 2 -3 -2 -6 0 -4
1532259691616986 -5 3 -5 -12 -13 -12 -11 -7
1532259691744645 -4 -19 -12 -4 66 -10 -7 -5
1532259691819445 1 11 0 -3 23 -32 0 0
1532259691871307 1 1 2 -3 13 17 -5 -3
1532259691932151 -2 1 3 -2 9 15 0 0
1532259692068778 1 1 -2 -4 -12 -6 4 -1
1532259692171514 0 2 1 -1 -3 14 3 0
1532259692270239 0 -2 -2 -1 -1 -3 -4 -2
1532259692329083 0 -1 1 -1 -1 -5 -3 0
1532259692396901 -1 -3 -1 -3 -2 1 -3 2
1532259692479679 0 2 -2 -1 -4 5 1 0
1532259692614319 -1 -5 -3 -3 -1 -4 -2 0
1532259692778879 -2 -1 0 -1 -1 -6 2 -2
1532259693191774 1 -1 -3 -2 1 -9 2 0
1532259693394233 -2 0 -1 0 -3 -5 -4 1
1532259693447092 4 -2 -1 0 0 -8 -2 1
1532259693483994 -1 -4 -2 -1 1 11 1 -2
1532259693536857 -1 -2 -3 -2 0 2 -5 -5
1532259693588714 -3 -3 -2 0 -1 -6 -6 -1
1532259693746292 0 -2 -2 -2 -1 0 4 1
1532259694039508 3 2 -2 -1 -2 -5 3 1
1532259694354665 -1 1 -1 1 -2 -1 -2 -1
1532259694504275 0 -1 -2 0 1 0 0 0
1532259694668825 -1 -1 -1 0 -3 0 -2 -1
1532259694721699 -1 -1 -1 1 1 -2 -2 -1
1532259694766564 -1 -2 -1 -2 -3 -2 -2 -2
1532259694796484 -1 0 -3 -2 -3 0 -3 -1
1532259694924142 0 -1 -3 0 0 6 -1 -2
1532259694983982 -3 0 0 -2 -2 -3 -2 -2

1532259695058782 -3 -2 -1 -1 0 3 0 -2
1532259695156520 1 0 -2 -2 1 0 -4 0
1532259695201402 -2 1 -1 0 -1 -4 -6 -1
1532259695224340 -1 0 -1 0 -2 0 -3 -3
1532259695284180 -1 0 0 0 -3 0 0 -1
1532259695322078 -2 -1 0 -1 -2 -1 -2 1
1532259695403859 -1 -1 -3 -2 0 2 -1 -2
1532259695448740 -2 0 0 0 -2 0 0 -3
1532259695479656 1 -1 -3 0 0 0 -1 1
1532259695501598 -2 -2 -2 -1 -1 -4 -4 0
1532259695531518 -1 -1 0 -2 -1 -1 -2 2
1532259695554463 -1 -1 0 -2 -2 -1 -2 -4
1532259695606318 -1 0 0 0 -1 -2 -7 0
1532259695629257 0 -1 -1 -1 0 -4 1 1
1532259695682116 0 -2 -1 0 0 -3 5 0
1532259695741956 0 0 0 -1 -2 -1 -2 -3
1532259695801804 -3 -3 -1 -1 0 -1 -3 -1
1532259695816764 0 0 0 0 0 1 1 -1
1532259695876604 1 -1 -1 -2 -1 -1 1 1
1532259695936444 0 -1 -2 -1 -1 -1 0 0
1532259696004266 -3 0 -1 -2 -3 0 -3 -2
1532259696042161 0 0 -1 -2 0 -1 -4 1
1532259696079063 0 0 -1 -2 -1 -2 0 -1
1532259696108983 0 -1 0 0 -1 0 -2 -3
1532259696206722 2 -2 -3 0 0 -2 -3 -3
1532259696281521 -1 -2 -2 -1 0 3 6 0
1532259696311442 -2 -3 -3 -1 -2 -1 -4 -2
1532259696386241 -1 2 0 -3 -6 -4 -1 -1
1532259696462039 1 -2 -3 -23 -21 -15 -3 0
1532259696498940 -1 -1 0 25 36 11 3 2
1532259696784177 -3 0 -1 4 7 -4 -9 -14
1532259696844018 -1 0 3 4 3 3 23 1
1532259696888897 -3 -1 -1 -5 -3 -10 8 -16
1532259697039494 -2 -8 -2 -1 4 19 -8 9
1532259697204056 0 0 3 -11 4 -24 22 7
1532259697248935 3 1 -2 -15 -3 -9 19 10
1532259697278854 -5 -1 5 16 -16 -28 -17 -20
1532259697338695 -2 -8 -2 0 -17 6 -4 5
1532259697421474 -20 -2 -4 1 -2 12 38 17
1532259697459372 15 -11 -3 -4 -6 -33 -37 17
1532259697481312 -8 1 4 7 -6 -21 -9 -27
1532259697504252 -3 4 0 -6 -2 0 21 -22
1532259697549132 -11 -12 -24 -14 -12 10 -19 -24
1532259697608972 9 19 2 6 13 9 -2 23
1532259697676791 6 39 7 11 -3 -9 18 -1
1532259697902194 -1 18 5 4 -22 12 3 -8
1532259698028855 -5 11 3 26 19 12 -10 7
1532259698058776 1 -7 -3 -14 -11 -12 3 -3
1532259698104661 -3 0 -3 6 -3 -20 5 8
1532259698156515 1 3 6 8 -4 15 -7 -8
1532259698209373 4 15 5 -3 -14 -2 -1 1
1532259698239293 -5 -4 -1 0 -1 10 -4 -7
1532259698261233 -2 -8 -2 -6 1 -6 -1 -4
1532259698329052 0 -1 1 -1 0 -2 -6 -2
1532259698375927 -1 0 1 4 -2 -8 -10 -1
1532259698403853 -5 -8 -1 -3 1 5 -5 -2
1532259698449744 3 -1 -1 0 1 -50 -7 0
1532259698471681 1 4 0 -6 -11 -25 -20 -2
1532259698531511 0 -1 -1 -5 -21 52 7 -1
1532259698629250 -3 -4 -2 -8 -7 -7 -1 -4
1532259698689090 -2 -1 0 3 7 32 4 1
1532259698726989 5 6 -1 -4 -55 -10 -1 3
1532259698778850 1 1 1 3 5 7 2 -4
1532259698861628 -5 -4 1 -2 -16 5 -1 -3
1532259698936428 1 -6 -5 -1 7 7 -1 -1
1532259698981309 -4 -1 3 -1 0 -11 7 0
1532259698996269 0 -1 -2 -1 -12 -5 -2 1
1532259699057106 -2 1 -3 0 -2 -6 -8 -2
1532259699087026 -1 0 2 -1 0 12 5 1
1532259699185762 2 3 1 1 0 21 5 0
1532259699221675 -2 -2 -3 -1 -1 -5 2 -3
1532259699296466 -1 -1 0 2 5 9 2 2
1532259699341346 2 0 -2 -1 -3 -4 -4 -3
1532259699388223 -5 -2 0 0 3 14 1 -1
1532259699424124 -1 -1 -2 0 -3 -16 6 -1
1532259699447063 -14 1 1 0 0 -12 -4 -5
1532259699498924 3 0 0 0 -3 -6 -3 -2
1532259699844002 -2 -1 -1 0 0 -2 0 -3
1532259699926780 3 -3 -2 -2 -2 -11 -5 3
1532259699971660 -5 0 -1 -2 -3 -5 -1 -6
1532259699994599 2 -2 -2 -2 0 -2 1 1
1532259700039479 2 1 -1 -1 -3 -2 -6 -3
1532259700069399 -2 0 -1 -1 0 0 0 -2
1532259700151180 0 -1 2 -1 -1 3 -3 -3
1532259700182098 0 1 -1 -1 -3 -6 -2 3
1532259700293799 0 -1 -1 -1 -1 -6 -1 2
1532259700324716 0 -2 -3 -2 -1 2 1 -2
1532259700384556 -6 0 -2 -1 -2 -2 -4 -5
1532259700459356 0 1 0 0 -3 -3 -4 -5
1532259700496257 -3 -3 -1 -2 0 -1 -2 -1
1532259700534156 -3 -2 2 -1 1 -8 0 -4
1532259700623916 0 -2 -1 -4 -2 2 0 0
1532259700698716 -1 -2 1 -2 -3 0 0 -1
1532259700751575 0 -3 -1 -1 0 -5 0 -1
1532259700886215 -1 1 -4 -1 -2 -5 0 -1
1532259700962012 1 -2 -1 -4 -1 2 0 2
1532259701013876 1 -1 -4 -1 -1 -1 -2 1
1532259701231292 -2 -2 0 -2 0 1 -2 0
1532259701292129 0 -2 -1 1 0 0 -1 -2
1532259701381890 -1 -1 -2 0 -1 -1 -1 0
1532259701479627 -8 -1 -1 -1 -1 0 -3 -2
1532259701569388 1 2 0 1 0 0 1 -1

1532259701793787 -1 -1 0 -1 0 1 0 -3
1532259701839665 -5 -1 -3 1 -1 -2 0 -2
1532259701869585 -2 0 2 -1 -3 1 1 -1
1532259701936406 2 0 -1 0 -1 -1 0 0
1532259701989265 -2 -3 -2 -1 1 -2 -3 1
1532259702011210 -2 -1 -1 -1 -1 -3 0 -1
1532259702049105 -4 -1 -2 0 -2 1 -1 1
1532259702093985 1 -1 0 -2 0 -1 -1 -1
1532259702123905 -2 -2 1 0 1 0 -2 0
1532259702161804 0 1 -2 -1 1 0 2 1
1532259702191723 -2 -2 0 0 -1 0 -1 -2
1532259702236603 -2 -1 1 -2 0 -1 -2 -1
1532259702274502 -1 1 -3 0 -1 -1 0 -1
1532259702319383 -6 -2 0 -1 -3 -3 0 -2
1532259702341324 1 0 0 -2 -2 -2 -1 0
1532259702371244 0 -2 -3 -1 -1 -1 -1 0
1532259702402161 0 0 -4 0 -3 1 1 -1
1532259702468982 2 0 -3 0 -1 0 -1 0
1532259702491921 0 0 -2 0 -1 -2 0 1
1532259702513862 1 -1 0 -2 1 0 0 1
1532259702551761 -2 -3 0 -1 -1 0 -1 -3
1532259702619579 -3 0 -1 -1 0 -2 0 -1
1532259702694380 -1 0 0 -1 -1 0 -3 0
1532259702746605 -1 -1 0 -2 -1 0 -2 0
1532259702791503 1 -3 0 -1 -2 -1 0 -1
1532259702851344 1 1 -1 -1 -1 0 -1 0
1532259702919163 1 0 -1 0 1 0 0 0
1532259702972026 -9 -2 -2 -3 0 1 1 3
1532259703023882 -2 0 -1 -1 -2 -1 -2 -2
1532259703068763 0 -2 -2 -1 -1 0 0 -5
1532259703151542 0 -1 0 1 -2 -1 -2 -1
1532259703234320 -3 -1 -1 0 -2 -2 2 -1
1532259703294176 -2 0 -2 -2 0 2 -2 -1
1532259703332059 -1 -1 -2 0 -3 -4 -1 -2
1532259703353999 -1 -3 -4 -5 1 6 -1 -1
1532259703428799 -1 1 -1 -9 -45 -19 -2 0
1532259703474677 -1 -2 -3 -5 -16 7 -6 -3
1532259703511578 -1 -3 -5 -12 10 -9 -28 -16
1532259703534517 -3 -1 -2 -2 33 0 26 -9
1532259703654197 2 0 2 -5 1 2 5 0
1532259703811776 5 3 4 5 -1 -6 -11 12
1532259704082053 -10 -5 -2 2 3 11 -15 -17
1532259704126933 -10 -3 3 4 6 19 13 -28
1532259704231653 4 0 -4 -11 9 34 -22 -17
1532259704411173 -3 -7 -7 1 0 -17 16 3
1532259704493952 8 7 13 43 -2 -11 -26 -6
1532259704614629 0 -7 -12 -25 -17 -8 22 21
1532259704898869 0 -2 1 -7 -2 -50 1 -7
1532259705101327 -2 -1 2 -11 -6 27 10 -7
1532259705214026 0 0 4 7 3 36 0 3
1532259705326725 -4 0 -2 -9 -4 -15 12 -4
1532259705454384 -1 5 -1 -13 -6 1 -7 7
1532259705591034 -1 0 0 3 -6 37 10 -3
1532259705611962 0 4 8 19 -16 29 6 1
1532259705648863 0 -4 13 6 -8 51 8 5
1532259705791481 -1 -9 -2 -1 62 -3 5 5
1532259705821402 -5 5 7 7 43 9 2 1
1532259705934100 1 4 -1 -5 -42 -55 -10 -1
1532259705993940 0 0 0 -2 2 -5 -1 -6
1532259706084697 -3 -2 -1 4 20 -13 -1 -33
1532259706159497 -3 0 1 3 17 12 2 7
1532259706249257 -13 -1 0 -2 6 37 1 -2
1532259706361956 -1 0 -3 0 0 17 -2 1
1532259706428778 -4 2 -2 -1 -11 -7 0 -1
1532259706504580 -2 -1 0 0 5 17 5 -4
1532259706707034 0 0 0 0 0 2 0 -2
1532259706728974 -4 0 -2 0 -3 -17 -6 -4
1532259706781833 -4 -1 0 2 2 -1 1 -4
1532259706939412 1 0 -2 -1 -1 3 -2 -3
1532259706991273 -4 -1 -1 -1 0 -1 5 1
1532259707141870 0 0 -1 -1 -2 -7 -2 -1
1532259707193731 4 -1 -1 1 -1 30 7 -1
1532259707434090 -1 -1 -1 -1 -1 -8 1 0
1532259707809086 0 1 2 -1 -1 12 -1 -1
1532259707824047 -2 -1 -1 -1 0 -15 -1 -1
1532259707891865 -8 -2 -1 -2 -2 10 6 1
1532259708094324 1 1 0 -1 -1 0 -1 -1
1532259708169124 0 1 -2 0 -2 1 -1 -1
1532259708348643 -2 -3 -1 -1 -2 -2 3 3
1532259708446381 1 1 1 -2 -1 -1 -2 -3
1532259708522187 7 0 0 1 0 1 -2 -1
1532259708596979 -6 1 -2 0 0 1 1 -3
1532259708731619 1 0 -1 0 1 -1 -1 -2

1532259708830355 -3 0 -1 0 0 -1 -1 -1
1532259709046776 7 0 -2 0 -3 -2 -1 1
1532259709076697 -2 -2 -1 0 1 -1 2 1
1532259709121577 -3 -1 -1 -2 -3 0 -1 0
1532259709181417 -2 -1 0 -1 0 0 -1 -1
1532259709204355 -6 -2 0 -3 0 -3 -4 -3
1532259709264195 0 -1 -1 0 -2 0 -3 -2
1532259709309075 -1 -3 -1 -1 -1 -1 0 -1
1532259709338996 1 -1 0 -1 0 -1 2 -2
1532259709361934 0 -4 -2 -1 -2 -2 1 7
1532259709383875 -1 0 0 -2 -2 -2 -3 -1
1532259709413795 -3 -2 0 1 1 -1 -2 -3
1532259709474632 -1 -2 -2 -1 0 0 -2 -3
1532259709489598 0 -1 -2 0 -1 0 -1 -3
1532259709526499 -2 -1 -2 0 0 -1 -2 -2
1532259709556420 0 -1 0 -3 -1 -2 0 -2
1532259709586339 0 0 -1 0 -1 -1 0 1
1532259709616260 -1 -1 -2 -1 -2 -1 -1 3
1532259709662137 -1 -1 0 -1 -1 0 1 -2
1532259709692057 -1 -1 -1 -1 0 -1 -2 -2
1532259709728958 5 -1 -4 0 -1 0 2 3
1532259709803758 -4 -1 -1 -1 -1 -1 1 2
1532259709818718 0 -3 -1 0 -1 -3 -2 -1
1532259709886537 -3 -4 0 -1 -2 -3 1 -1
1532259709969316 -1 0 -1 0 -1 -4 -2 -1
1532259710037135 0 -1 -2 -2 -3 1 0 -1
1532259710059076 1 -1 2 -1 -12 -19 -1 2
1532259710163799 1 1 5 10 2 -5 -2 -1
1532259710584671 -4 0 -3 -17 -6 -10 -17 2
1532259710666451 -2 -3 0 -1 0 20 1 -13
1532259710922767 5 3 -1 -13 -6 -5 -23 -18
1532259711004547 3 0 -3 3 -8 0 9 -1
1532259711071369 -13 -9 4 10 5 -21 8 5
1532259711154147 8 -12 0 -13 12 -3 -1 23
1532259711296767 -9 10 -4 6 6 43 16 2
1532259711371567 -9 21 -2 -4 -10 -19 -26 -7
1532259711431407 -2 -19 -1 13 0 -30 -6 -7
1532259711529145 -21 -12 -27 -4 -11 25 14 -2
1532259711574025 4 0 0 -14 -13 0 -3 3
1532259711626883 -1 2 -3 -4 2 -3 -4 -4
1532259711678745 3 -1 1 6 -9 -24 -2 9
1532259711754542 -3 -18 -7 -6 1 26 10 0
1532259711776483 -1 11 0 -3 2 -32 10 -2
1532259711836324 3 -21 6 2 -2 22 2 -2
1532259711859262 1 20 -1 -5 -4 -14 -6 -6
1532259711904143 1 -2 -6 -1 -2 -40 -3 -2
1532259711934062 0 3 1 1 -4 0 2 -1
1532259712038782 3 7 -2 -2 2 3 3 1
1532259712100617 2 6 -1 0 -4 18 1 -4
1532259712317037 -1 -3 -4 -11 -49 69 10 0
1532259712406798 -1 5 3 -2 3 -27 -5 27
1532259712466638 -6 4 9 4 12 38 6 -8
1532259712534457 -8 -1 -2 1 11 67 5 -2
1532259712594297 -3 -5 0 2 9 1 -5 -5
1532259712609256 15 -4 -1 2 17 14 -4 -18
1532259712669096 -10 0 0 0 19 -25 -2 -5
1532259712736915 -3 1 0 0 -9 -16 -3 -15
1532259712758857 -9 0 -2 -2 6 -10 -4 -1
1532259712818697 -2 0 0 -1 -6 -15 2 -4
1532259712871562 7 -2 -2 0 -3 -27 -3 10
1532259712962313 -1 -1 1 -1 7 -1 -5 -4
1532259713081993 -1 0 0 -2 -1 1 -1 2
1532259713148814 -2 0 -1 -1 0 -6 1 -4
1532259713171752 -1 -4 -1 0 2 24 -2 -2
1532259713224611 0 -3 -1 0 -2 -10 -3 4
1532259713261513 0 -1 0 0 -2 -4 -3 -2
1532259713314370 -1 -3 -1 0 -2 -12 -3 -7
1532259713493891 0 0 -3 0 -2 0 -4 -3
1532259713576670 -2 -1 0 0 -2 -10 -2 -12
1532259713614569 -2 -2 -2 -2 -2 3 -2 -1
1532259713666429 -8 0 -1 -1 -1 11 2 -5
1532259713726269 -1 -2 -2 -1 -1 -3 -9 -5
1532259713838968 4 -2 -1 -2 2 10 3 1
1532259713913768 -2 2 -3 -1 -2 -3 2 0
1532259713928728 4 -4 -4 -2 -1 -19 -6 -3
1532259713981587 -1 -1 -1 1 -2 0 -3 -1
1532259714079326 -1 -1 -2 0 -1 -4 -1 -1
1532259714199006 -1 1 1 -1 -1 -2 -7 -2
1532259714266824 -3 -2 -1 0 -1 -6 2 0
1532259714281784 -1 -2 -1 -1 -1 -11 -2 -2
1532259714446344 -2 -2 -1 -2 -1 -12 -2 -3
1532259714537101 -1 -1 1 1 1 -1 0 0
1532259714559042 -1 -3 -2 -1 -2 -2 1 1
1532259714596942 0 -1 0 -2 -1 -4 -7 -3
1532259714776461 -1 0 -1 -2 -2 -4 -1 -1
1532259714927058 0 0 -1 -2 -2 0 -3 -2
1532259714963959 -1 -1 -1 0 -1 4 1 -1
1532259715038760 -3 -1 0 -1 -1 4 3 -1
1532259715166418 -4 -2 -1 -2 -2 0 1 2
1532259715226259 -1 -1 0 0 -2 -3 -1 -1
1532259715241219 1 0 1 -1 -2 -9 -3 -5

1532259715444691 -2 -2 -1 -2 -2 0 -1 -1
1532259715511520 0 -1 -1 -2 0 -4 -7 0
1532259715586320 -3 -2 0 0 -2 -1 -2 -3
1532259715646167 -2 -3 -1 0 1 1 1 -2
1532259715736932 -1 -1 -1 -2 0 -1 -1 0
1532259716014183 -2 0 -2 -2 -1 0 -1 0
1532259716133863 -1 1 -1 -1 -2 -1 -1 -1
1532259716163783 -1 0 -2 0 -1 -1 -1 -3
1532259716186722 -1 0 -1 -1 0 -1 -1 -1
1532259716208663 -1 -2 -1 -3 -2 -2 0 -1
1532259716261522 -1 -1 0 0 -1 -2 -2 0
1532259716276482 -2 0 -1 -1 -3 0 0 -2
1532259716314380 -1 -2 1 -2 -1 -1 -1 0
1532259716351281 0 -1 -1 -3 1 -1 0 -2
1532259716412118 -1 -2 0 -3 0 0 -2 -1
1532259716463996 0 -1 -1 -1 -2 -1 -2 0
1532259716478957 0 -1 -1 -2 0 -2 0 0
1532259716516855 -2 -3 0 -1 -2 -1 0 -1
1532259716577693 -2 -1 -1 -1 0 -1 -1 -1
1532259716621576 0 0 -1 0 -1 0 0 -1
1532259716644514 -1 -2 -1 0 1 -1 -3 -2
1532259716696375 -1 -2 -1 -2 -2 -1 -1 -1
1532259716749234 0 0 -2 -1 -1 0 -1 0
1532259716764193 0 -1 0 1 0 -2 -1 -2
1532259716824034 -1 -1 -3 -1 -1 -1 0 -3
1532259716838993 -2 -3 -2 0 -2 0 -1 0
1532259716876892 -1 0 -1 -1 1 -2 -1 -1
1532259716898834 0 -1 -2 -2 -2 -1 -1 -1
1532259716966652 1 -1 -2 -1 0 0 -1 -1
1532259717026493 -1 -1 0 1 0 -1 1 0
1532259717049431 -2 -2 0 -2 0 -2 -1 -1
1532259717064391 0 -1 -3 0 -1 -1 -2 -1
1532259717086333 -1 -1 0 -2 -3 -1 0 -2
1532259717109271 -1 -1 -1 -1 0 -1 -2 0
1532259717131212 -1 0 -1 1 -3 -3 -1 0
1532259717154157 -1 -2 -2 -2 0 -1 0 0
1532259717184086 -2 0 -1 -2 -2 1 -1 -1
1532259717236938 -1 -2 -1 -1 0 -2 -2 -1
1532259717251894 -2 -1 -2 -2 0 -1 0 0
1532259717266850 -2 -1 -1 -1 -1 -1 -1 0
1532259717303751 -2 -1 1 0 -2 1 -3 0
1532259717326690 0 -2 -1 0 1 -1 -1 0
1532259717364588 -1 -1 -2 -2 -1 -2 -1 -1
1532259717386530 0 -2 1 0 -5 3 0 -1
1532259717454349 -2 -2 -3 -2 -3 -1 -2 -2
1532259717484268 -1 -1 -2 -1 2 -1 -1 -1
1532259717552087 0 0 -3 -2 -6 -5 -2 -3
1532259717588988 -2 -1 0 -1 -16 -9 -4 1
1532259717648838 -1 0 -1 -5 -14 -3 1 1
1532259717678748 0 -1 -1 1 -8 3 -3 0
1532259717731607 -3 1 6 13 -38 -43 -1 -1
1532259717761527 0 -1 -1 4 10 -1 -4 -2
1532259717806407 -3 0 -9 -31 -7 4 0 0
1532259717866247 -4 -3 -5 -10 -1 -6 -5 -7
1532259718061724 -3 -4 -4 -16 -3 -3 3 -8
1532259718114583 -1 -2 1 2 7 21 -26 -23
1532259718294103 6 1 1 -3 9 -1 -8 18
1532259718459669 -2 1 -4 -2 -11 -19 21 -27
1532259718556401 -1 -2 -2 -16 -2 14 7 -46
1532259718571362 2 0 -2 -2 -38 -38 -7 30
1532259718699020 -1 2 -9 -14 17 -50 -12 26
1532259718775815 12 -15 2 12 7 10 11 33
1532259718819702 -3 -14 -3 20 10 26 -13 -4
1532259718864577 -5 -23 1 19 10 18 -44 -16
1532259718992236 -1 -7 -3 -9 2 -24 -19 -2
1532259719111916 -4 -6 -2 -5 -15 -15 2 -8
1532259719186726 -8 -9 -5 -11 -6 -34 -17 9
1532259719246556 -4 -15 -5 2 -5 4 14 2
1532259719269494 5 5 7 6 1 -7 -1 -6
1532259719321356 7 -6 -1 3 -17 9 -2 -6
1532259719344295 1 13 -8 -7 -6 46 -9 24
1532259719397153 -1 -10 -5 -4 -2 1 10 4
1532259719471953 -1 8 -2 0 0 -22 -3 1
1532259719517831 -3 -9 -2 0 6 9 2 -2
1532259719531793 -1 4 8 -24 1 9 4 -4
1532259719591633 -1 -10 3 4 2 -4 -4 -3
1532259719653468 -7 -26 -4 -2 -1 1 1 1
1532259719674412 -3 -29 -6 0 5 0 -1 -6
1532259719741233 -2 0 -6 -1 0 -1 5 8
1532259719802070 -1 -5 -1 0 -2 3 -13 0
1532259719855926 1 -3 1 1 -39 58 5 2
1532259719868892 6 2 4 9 100 28 5 2
1532259719891830 -2 -3 4 10 117 48 12 2
1532259719928732 0 -1 -1 -10 -68 -21 6 1
1532259719974609 -6 4 12 31 42 -26 -3 2
1532259720034449 -2 -20 5 -8 -1 12 -1 -2
1532259720109249 -11 5 -6 -9 -36 -6 4 -9
1532259720132187 1 -9 -4 0 30 -3 -5 -1
1532259720184048 -1 -3 0 4 37 13 -10 -4
1532259720236908 9 0 -1 -2 15 4 1 6
1532259720350604 -8 -9 -4 -2 17 5 9 18
1532259720401468 -1 4 2 2 31 -13 2 2
1532259720454326 12 2 -2 -2 24 13 -3 3
1532259720603926 -6 -4 0 -3 -4 -8 -5 -2
1532259720731585 5 -1 -2 -2 -3 -10 -4 2
1532259721061704 3 1 -1 0 -1 8 0 1
1532259721136502 -2 -1 -1 -1 -1 5 2 -2
1532259721234245 -1 -2 0 0 0 4 4 -2
1532259721264161 -1 2 0 -1 -1 -13 -2 -3
1532259721287099 -5 -1 -2 -1 -1 1 -2 -4
1532259721413761 -9 0 -1 -1 -2 -9 -8 -2
1532259721474598 7 0 0 3 1 -4 -9 0
1532259721519478 -3 0 -1 -2 1 3 -1 -1
1532259721549397 -1 -1 0 -1 -1 1 2 -2
1532259721586299 0 -2 -3 -2 -1 1 2 -2
1532259721639158 -1 -2 -1 -1 -1 -5 -7 1
1532259721698998 -4 0 0 0 -1 3 -2 0
1532259721766816 -1 1 -3 -3 1 0 0 -1
1532259721939355 -6 -3 -1 -1 -1 5 -4 -4
1532259722014155 9 -2 0 -1 -1 5 4 6
1532259722044076 -2 -2 -2 -2 1 -1 0 -1
1532259722096933 1 -2 0 0 1 1 0 4
1532259722141813 -2 1 -2 -1 -2 -2 -2 -2
1532259722194672 -4 0 -2 0 -2 1 -1 -2
1532259722306374 -1 -3 -2 0 -2 0 1 -1
1532259722374192 -4 -1 0 0 0 1 2 -1
1532259722442010 0 1 -2 -1 -1 -1 -1 -1
1532259722471931 0 0 -1 -2 1 -1 0 -1
1532259722516811 -1 -1 1 1 -1 0 1 -2
1532259722584629 2 -2 -1 0 2 -1 2 0
1532259722681371 0 0 -3 -1 -1 -1 0 3
1532259722726250 -4 -1 -2 -1 -1 -4 1 0
1532259722794069 -2 0 -2 -1 -1 0 1 1
1532259722929708 -2 0 -2 0 1 -1 0 -2
1532259722974586 -2 -2 0 1 0 -1 0 -1
1532259723004506 -2 -2 -1 0 -2 1 4 2
1532259723049386 -1 0 -1 -4 0 0 -3 0

1532259723213946 -1 0 2 -3 8 10 1 -1
1532259723281796 -5 -41 -3 -11 4 -5 -2 -1
1532259723379535 3 13 -3 8 -3 -8 10 3
1532259723424415 1 -27 -2 0 15 5 11 2
1532259723514175 3 -16 4 5 10 26 12 2
1532259723588975 5 6 2 11 11 27 5 2
1532259723633854 -1 -47 -15 4 15 9 7 2
1532259723678735 -7 -7 -9 -10 11 15 5 -3
1532259723731593 5 14 17 2 -11 5 -9 -7
1532259723769492 -3 -7 -2 -12 2 7 0 -1
1532259723806401 -4 -36 0 2 40 16 8 -2
1532259723844299 3 7 4 -5 -32 -33 0 2
1532259723882198 0 9 4 -4 -31 -17 6 -9
1532259723912135 0 4 0 -3 -25 -7 4 3
1532259723971958 1 51 0 0 1 -4 -6 -8
1532259724008859 2 -6 -12 -2 2 -3 -1 4
1532259724046757 -2 -5 -7 -6 0 9 -1 2
1532259724061718 8 28 8 -3 9 15 -8 0
1532259724136517 -3 -1 -2 -2 6 -2 0 2
1532259724181397 2 -3 -4 14 33 9 7 2
1532259724196357 7 -16 -4 -1 15 25 0 5
1532259724257211 -15 -14 -11 2 7 -1 3 13
1532259724309056 34 55 12 -1 -45 -58 -24 -2
1532259724338976 2 -16 -10 1 1 -6 -1 0
1532259724398816 -6 -8 -3 5 18 -7 -4 -1
1532259724466635 -1 -3 -2 -2 11 6 3 -2
1532259724669092 0 2 1 6 -17 -14 -2 -1
1532259724766832 1 -2 -2 -6 -43 -112 -17 -3
1532259724841632 3 -3 -4 -11 2 5 0 0
1532259724864571 14 -2 -4 -2 -18 5 9 7
1532259724886512 -5 3 -1 1 2 14 3 -4
1532259724901471 -1 -1 1 -2 1 8 1 4
1532259724916432 0 0 0 1 0 -5 0 1
1532259724954348 0 -2 -2 0 -1 -2 -2 -1
1532259724984250 0 -2 -1 -2 -2 1 -3 -1
1532259724999210 2 0 -1 -1 -2 -2 -2 -2
1532259725014171 -1 -1 -1 -2 0 0 -1 -1
1532259725059051 0 -1 0 -1 -1 0 -1 0
1532259725074010 -1 2 0 -1 0 -1 -1 -1
1532259725096949 0 -1 1 -1 -1 1 1 0
1532259725118891 -3 -1 1 -1 -2 -1 0 -1
1532259725148810 1 -1 -1 0 1 4 3 1
1532259725171749 -14 -3 -1 -1 -2 -1 -1 0
1532259725194688 1 -2 -2 -3 0 2 -3 -2
1532259725246549 0 -1 0 0 -1 -2 -2 -2
1532259725269488 0 -2 -2 0 -3 1 0 1
1532259725306389 -1 -1 -2 -1 -1 0 -1 -1
1532259725321349 -2 -1 1 -2 -1 -1 -1 -1
1532259725374208 -1 -1 -2 -3 0 6 1 -1
1532259725412106 -1 1 0 -5 -50 0 2 1
1532259725427067 -3 -2 -2 -10 24 -7 2 -2
1532259725449008 2 3 7 44 9 -14 -7 1
1532259725508848 0 1 2 18 8 -9 4 0
1532259725584645 -3 -5 -4 -14 3 7 -5 -12
1532259725636506 1 0 -1 12 0 18 3 2
1532259725711306 -4 -3 -4 6 1 2 -13 -11
1532259725749205 0 0 0 4 -12 -5 -2 -18
1532259725779125 2 -1 9 27 7 -28 -9 11
1532259725794085 -4 -5 -8 -12 38 -8 23 5
1532259725809045 -4 -2 -1 1 28 9 20 -1
1532259725876863 6 -3 -1 0 9 -2 44 34
1532259725989562 -1 2 2 8 2 -2 10 14
1532259726139162 8 2 0 -2 0 38 -103 -41
1532259726416420 1 7 -1 20 23 6 10 13
1532259726461301 0 -3 3 -10 -16 21 -2 -34
1532259726491221 1 -8 9 2 10 107 15 1
1532259726514160 -8 -11 -10 -30 -15 -46 -59 -50
1532259726544079 20 79 23 28 8 50 -6 16
1532259726588959 -17 -22 -12 -13 11 14 -5 -21
1532259726731577 -4 5 0 -9 -3 24 38 6
1532259726769476 -1 35 4 11 0 24 -13 38
1532259726859237 2 8 3 -7 9 -27 18 18
1532259726897135 0 4 -7 -19 -7 7 -11 -5
1532259726956975 -1 0 -2 -14 -1 -7 -14 -8
1532259727008836 -3 4 7 36 11 56 6 -15
1532259727038757 -3 -1 6 22 -12 -38 -9 -20
1532259727061695 1 6 3 7 16 -37 18 16
1532259727159434 -3 -19 -6 9 7 -36 -19 3
1532259727189354 -6 4 -11 -4 -7 -18 -13 -4
1532259727242212 -2 -12 2 1 1 19 1 -5
1532259727294074 -4 -17 -7 -7 -11 -7 -22 -14
1532259727376853 -1 9 1 2 -5 -4 7 -2
1532259727413754 -2 2 -2 5 1 -12 -1 -5
1532259727466612 0 -4 0 -7 -7 17 1 1
1532259727579311 0 -6 0 -5 -9 -3 7 6
1532259727639151 -6 -3 -5 -9 -5 0 -2 5
1532259727736889 -10 -4 -4 -1 0 23 9 5
1532259727796730 5 -9 -2 0 32 -46 -25 -6
1532259727849588 0 5 5 8 -5 3 15 1
1532259727894469 5 13 8 14 -57 -10 6 3
1532259727999188 -7 -7 -10 -12 -17 -30 -16 -8
1532259728269465 0 -6 1 1 6 20 -1 6
1532259728412084 -6 3 0 -3 -10 -15 -12 -2
1532259728523785 -3 -3 -1 -4 6 -22 -3 -1
1532259728629502 4 -3 1 -2 -3 -10 3 1
1532259728726244 -3 1 1 1 1 -10 -5 0
1532259728853922 0 0 -1 0 -1 18 4 1
1532259728966601 1 -2 -2 -1 -3 -12 -6 3
1532259729041401 -2 0 -1 -1 0 12 -2 3
1532259729116201 2 -1 -1 -1 3 -1 2 -1
1532259729154100 -1 -1 -1 -2 0 4 7 5
1532259729206958 0 2 -1 -1 -1 -1 -1 -1
1532259729290741 -2 0 0 -1 -2 8 3 0
1532259729356558 3 -1 0 1 -1 3 1 0
1532259729379497 -14 -1 0 -4 0 1 -5 -5
1532259729461279 1 -3 -1 -2 -2 10 -1 0
1532259729596916 4 -2 -2 0 0 -7 0 -3
1532259729821316 0 -1 2 0 0 8 1 -1
1532259729948974 -4 0 -2 -1 1 2 -3 0
1532259730076633 -3 -2 -2 -1 -3 7 0 -3
1532259730302030 -1 1 -1 0 -2 3 -2 -5
1532259730368851 0 -1 1 -2 1 -4 0 1
1532259730496510 -4 0 -1 -2 1 -2 -2 -4
1532259730579289 0 -1 -1 -1 -2 1 -6 0
1532259730773769 -3 2 -1 0 0 8 4 -4
1532259730819646 -1 0 -1 -3 -1 2 0 0
1532259730901427 -8 -1 -1 -1 -1 -3 1 -2
1532259730946318 -1 -1 0 0 1 4 4 0
1532259730984206 -1 -3 -3 -4 -3 -3 -4 -2
1532259731186665 0 -1 -1 -1 -1 1 -9 2

1532259731299364 -3 -3 -1 -3 -2 1 -6 -5
1532259731336264 -1 -2 0 0 -1 0 3 0
1532259731382142 1 -3 -1 -2 -2 -2 3 0
1532259731434003 -1 0 -1 -1 -1 0 1 -3
1532259731501822 -1 -1 0 -2 -2 -2 -1 -3
1532259731561662 -3 -1 1 -1 -2 0 0 -2
1532259731651422 -2 -2 0 -2 -2 2 1 -3
1532259731681342 -2 -1 -1 0 0 -1 4 0
1532259731779080 0 -1 0 -1 0 1 -3 -2
1532259731831939 -1 -1 1 0 -1 1 -2 0
1532259731876819 0 -1 -2 -2 -2 -2 -4 -1
1532259731914724 -1 -1 -2 1 -2 -1 -1 0
1532259731951619 -1 -2 -2 -1 1 -1 0 -1
1532259731989518 1 -3 -1 -1 1 -2 -3 -4
1532259732026419 -1 -2 -1 -1 0 -1 -4 -1
1532259732064317 -2 0 0 0 -2 -2 -2 -2
1532259732094238 -2 -2 -1 -2 -3 -1 3 -3
1532259732228878 -2 1 0 -1 -1 1 -2 -5
1532259732266776 -1 -1 -1 -2 -1 -2 -1 0
1532259732379474 -4 -4 -1 0 0 1 -3 -1
1532259732409395 -2 -2 -2 -1 -2 12 2 -2
1532259732446296 2 2 4 2 5 7 4 3
1532259732470232 -1 -2 -4 -3 8 4 0 -2
1532259732558994 1 0 -4 0 -4 -9 -7 0
1532259732641773 -3 -4 -4 -2 -10 -9 9 0
1532259732664712 0 2 -1 -20 -30 -17 -1 -6
1532259732814313 1 -1 1 -11 -9 -11 -18 1
1532259733279070 -6 -7 -1 -1 11 -33 44 24
1532259733316968 0 -3 -1 5 18 11 20 -24
1532259733406727 2 3 5 14 0 10 11 1
1532259733444627 4 5 1 -7 -15 2 0 25
1532259733496488 -1 -1 -2 8 22 2 25 20
1532259733549347 -2 1 -6 -7 0 15 22 -1
1532259733571288 -3 2 -1 -12 -6 -16 20 24
1532259733624146 4 -6 3 2 0 28 3 27
1532259733691966 5 -6 5 3 -8 -38 -21 -26
1532259733834584 -2 -10 -4 -5 4 -12 -2 13
1532259733879464 0 1 3 25 -1 0 -19 -10
1532259733909384 -1 -4 7 32 20 -14 -14 9
1532259733961245 0 0 5 -7 -28 24 -6 -9
1532259734044024 -1 4 -2 6 24 -1 -15 -28
1532259734096882 -4 16 -12 -17 -12 -44 -2 -1
1532259734186642 0 4 2 1 -3 -7 -13 3
1532259734254469 14 23 0 -9 -5 11 17 8
1532259734352205 0 20 1 3 -5 29 -1 -6
1532259734433981 -5 -5 -5 -16 -2 19 14 -5
1532259734463901 -1 -12 2 2 -6 -11 -3 6
1532259734486840 -10 -7 -18 -8 2 -5 -6 -12
1532259734531719 2 25 -15 17 11 2 -7 -7
1532259734569618 0 -1 1 -10 5 -3 3 3
1532259734606520 0 1 1 -4 -7 -1 -15 -1
1532259734651400 -6 5 -3 -1 -14 -7 -6 -3
1532259734734178 -2 0 -4 -5 -3 -20 -4 -4
1532259734757118 -5 -4 -5 -9 -24 -35 -20 -9
1532259734801997 -1 0 0 -1 -2 -14 0 0
1532259734853858 2 -3 1 12 5 -3 2 1
1532259734883777 -1 -1 3 1 4 32 5 3
1532259735011437 -10 -5 0 12 7 37 -16 -7
1532259735057314 3 4 -6 1 0 -29 3 4
1532259735071291 1 0 1 -1 1 3 -4 -7
1532259735147074 -3 -3 0 -10 -34 1 -7 -4
1532259735169015 0 43 3 -13 79 9 -2 6
1532259735222872 -3 6 6 11 -44 -11 8 11
1532259735289692 -3 21 -1 -1 -5 22 3 9
1532259735409373 -1 -3 0 -1 11 -19 -4 -2
1532259735484173 -4 -1 -2 -2 2 -12 7 5
1532259735558973 0 -1 -1 0 2 2 4 1
1532259735573932 8 -3 -1 -1 0 -5 4 1
1532259735648733 -5 1 -1 -1 -1 -1 -3 -4
1532259735671671 -2 -2 -2 0 -6 -1 -1 0
1532259735701591 1 -1 -2 -1 0 -12 -2 1
1532259735740488 1 -2 -4 -1 -3 1 0 -1
1532259735919009 1 -1 1 -1 1 9 -6 2
1532259735963890 -1 -1 -1 -2 -2 -1 -1 -2
1532259735993810 1 1 0 0 0 1 -5 -3
1532259736046668 1 -1 0 -2 -2 0 -2 -3
1532259736196268 -3 -3 -1 -1 -2 7 -1 -1
1532259736227185 0 -3 -1 1 0 -6 1 1
1532259736294007 -2 0 0 -1 0 0 -13 -5
1532259736323927 -2 -2 -2 -1 -3 -2 7 1
1532259736406706 -1 -1 -1 -1 0 3 2 1
1532259736526386 -4 -2 -1 -4 -1 -1 0 -4
1532259736556306 -3 0 1 -1 0 -4 2 3
1532259736683964 11 -1 -1 -1 1 1 -2 2
1532259736721863 -3 0 -2 -1 1 -3 0 -4
1532259736781703 0 -1 0 0 -3 0 -3 0
1532259736879441 -1 -1 0 -2 -2 0 -3 -3
1532259736901383 -1 1 1 0 0 1 -1 1
1532259737007100 -1 -2 -2 -1 1 8 -4 -2
1532259737126780 0 0 -2 -1 0 1 1 1
1532259737254439 2 1 0 0 1 2 -2 0
1532259737508759 -1 -2 -2 -1 -1 -1 -5 0
1532259737846855 -2 -2 -1 0 -1 1 -3 0
1532259737921655 0 -2 -2 0 1 0 -3 -1
1532259737944593 -1 -1 -3 -1 -2 -8 0 -3
1532259737966535 -2 -2 0 -1 0 0 -8 -2

1532259738071264 -1 -1 -2 -2 1 7 -2 -3
1532259738139073 0 0 0 0 0 8 -3 0
1532259738183952 -2 -1 0 -3 -1 -3 0 -1
1532259738221852 0 -2 0 -2 -1 -1 -1 0
1532259738274714 -3 -1 -1 -1 -3 -4 -2 1
1532259738319590 0 0 1 0 -1 -3 -4 -3
1532259738379431 0 -2 -1 -1 -1 -1 -6 0
1532259738394391 -1 0 -2 -1 -2 -1 -4 0
1532259738416332 -1 0 0 -1 -1 -2 -4 -3
1532259738477169 1 0 -1 0 -2 -1 0 1
1532259738499182 -3 -1 0 -1 0 1 -3 -4
1532259738522199 -4 -1 -2 0 -2 -3 2 0
1532259738552121 -2 -1 -4 -1 -2 -1 0 1
1532259738589022 1 -1 -2 -1 -1 -1 1 -1
1532259738611961 -1 0 -2 -1 -2 -3 0 -1
1532259738641881 0 0 1 -3 -2 -6 10 -2
1532259738693742 -1 -1 -2 -2 -1 1 -6 -4
1532259738754580 -1 -2 -1 -1 -1 3 -2 -2
1532259738785506 -2 -2 -1 2 0 -2 0 -2
1532259738806441 0 -1 -1 -2 0 -2 4 1
1532259738829380 -3 -2 -1 -2 0 0 2 0
1532259738851321 0 -2 -1 -2 0 -1 -1 -1
1532259738919140 -1 -2 -2 -1 0 -3 -1 1
1532259739016878 -3 -3 0 1 -1 0 -1 3
1532259739038819 0 0 0 0 -2 -3 0 1
1532259739091678 0 0 -1 -1 -2 0 -3 -3
1532259739106639 -1 0 0 -1 -2 1 -3 1
1532259739129577 0 -3 -1 -3 -2 -4 -1 -1
1532259739166478 -2 -1 -3 1 1 -1 -3 -3
1532259739189417 1 -3 0 1 -2 -1 -2 -3
1532259739249257 -3 -1 0 -2 -3 0 -1 0
1532259739272196 1 -1 -1 -2 -2 -2 1 0
1532259739309097 0 1 0 0 -2 -2 0 -4
1532259739332038 -2 0 -1 -1 1 4 5 -2
1532259739376916 -1 -2 -1 -1 -1 -2 0 2
1532259739428776 1 -1 0 -1 1 -1 -1 -1
1532259739474654 -2 -2 -2 -1 -1 2 -4 -5
1532259739519534 0 -1 -2 -1 0 -2 -4 -1
1532259739534494 -2 -1 -2 0 -1 -1 -3 -2
1532259739571395 0 0 1 0 1 5 -1 -1
1532259739609308 -2 0 0 1 -1 -1 1 -4
1532259739631236 -2 -1 -2 -1 -1 2 -3 0
1532259739677124 0 -2 -1 -1 -1 -2 -2 -1
1532259739699054 -1 0 0 0 1 -1 -3 0
1532259739728974 1 0 -1 -1 0 -1 0 0
1532259739781833 0 -2 0 0 0 -2 2 1
1532259739803774 -1 -1 -2 -2 -2 -6 4 -1
1532259739856632 0 -1 2 0 0 1 -5 -4
1532259739924483 0 -2 -2 -2 -1 -4 -4 0
1532259739976345 -2 0 -1 -1 -2 0 -2 0
1532259740014292 -2 -2 0 0 0 -2 -2 -3
1532259740036224 -1 -1 0 0 -1 2 2 1
1532259740059162 1 0 -2 -1 -1 -1 -1 -2
1532259740089082 0 0 0 0 -2 -1 -3 -1
1532259740126981 0 -1 -2 -1 -6 -8 -1 0
1532259740141941 -2 -3 0 0 8 14 0 -2
1532259740208763 -1 0 -2 7 -15 -8 3 -1
1532259740231701 1 1 3 1 -3 6 0 1
1532259740254640 0 -1 -7 -13 7 9 5 -2
1532259740291541 0 3 7 -2 -21 -11 -1 -2
1532259740344400 2 3 6 14 -3 1 -4 0
1532259740464080 -1 1 3 27 4 2 17 2
1532259740681498 9 3 7 25 -14 -9 4 0
1532259740734357 -7 1 3 2 2 4 22 20
1532259740848053 -9 -3 -6 -11 -1 14 46 -13
1532259740891936 -6 0 -1 -2 6 39 -25 -28
1532259740989689 2 -1 -2 -5 11 7 -20 8
1532259741049514 -11 -3 -2 -2 -2 25 -19 -44
1532259741184154 -3 -3 -4 -14 3 29 3 -13
1532259741251973 0 -14 -8 -11 -1 16 -8 5
1532259741318794 1 4 -1 -6 -5 -10 -7 -17
1532259741341732 -2 -1 5 1 -5 -6 1 0
1532259741491333 7 14 -10 -13 -15 7 -6 -18
1532259741544191 -4 -16 -10 -12 -5 -38 1 13
1532259741604032 3 -1 -1 23 9 -6 6 23
1532259741626970 -4 -2 -2 -3 20 36 -5 -16
1532259741678831 -2 -7 1 7 -15 -20 -2 -4
1532259741731690 -1 2 -1 -4 0 -14 -37 -20
1532259741806490 -3 -9 -4 -14 -8 45 12 -3
1532259741874308 -5 -29 2 -4 -11 8 -16 -10
1532259741920186 -1 -13 4 2 -17 -28 13 3
1532259741979029 0 -6 3 0 -1 7 15 7
1532259742023909 -4 -17 -2 -1 2 0 0 20
1532259742076767 2 10 -1 -2 4 -41 -10 -1
1532259742129626 -3 -10 -2 -1 -7 -15 1 4
1532259742204436 -1 -1 -3 -12 -11 -31 -3 -18
1532259742234346 -1 -2 2 2 -3 45 -16 -1
1532259742332084 -2 1 3 -1 -5 -8 -4 7
1532259742444806 -1 -1 2 4 -1 -29 -5 -3
1532259742481684 1 0 -3 -1 -1 4 -4 2
1532259742511605 -1 -1 -3 0 0 23 2 1
1532259742526564 1 1 1 -1 6 75 16 -1
1532259742601364 0 -2 -4 -9 11 7 25 -2
1532259742639263 -2 -3 -6 -12 -5 -13 -8 0
1532259742714063 -1 4 9 -7 -8 12 -9 -10
1532259742856682 3 -2 4 5 7 12 -5 2
1532259742954438 -2 1 1 1 8 55 25 0
1532259743052159 1 2 -1 4 1 -20 -6 -6
1532259743089061 -3 -2 0 0 -1 -9 -2 1
1532259743141919 -2 0 -2 0 2 7 -3 -4
1532259743208740 1 2 0 0 4 35 10 -4
1532259743254618 -2 0 0 -2 -2 7 1 -1
1532259743284537 0 0 -2 0 1 -4 -7 1
1532259743344377 -1 -1 -2 -3 -5 2 -11 0
1532259743404233 2 -1 -2 0 2 -8 -2 -3
1532259743472037 0 -3 -2 0 -1 -5 -2 1
1532259743531876 -1 -2 0 -2 -2 -7 -1 -3
1532259743591716 0 11 7 0 17 -15 -8 -2
1532259743636596 2 3 7 17 -33 6 3 2
1532259743817113 1 6 2 -7 -52 -29 -1 2
1532259743966714 -1 0 -2 -1 6 1 3 -1
1532259744049492 -3 -2 -1 0 -1 -1 1 -1
1532259744139252 -2 -2 -1 -2 -1 -3 -3 -1
1532259744192122 0 0 -1 1 -1 4 1 0
1532259744341711 0 2 -2 1 -1 2 2 2
1532259744416511 0 -4 0 -1 1 9 4 0
1532259744469369 -1 -2 -1 -2 -1 -5 -2 -1
1532259744589050 0 -3 -2 -2 0 3 -2 -1
1532259744678809 -2 -1 -1 0 1 -1 0 -3
1532259744874286 -1 -3 -1 -1 -2 0 1 -3
1532259745001945 -2 -4 0 -3 0 -1 -3 -2
1532259745023886 -1 0 0 1 1 6 3 0
1532259745061785 0 -1 -2 -3 -1 -2 -3 -1
1532259745121625 -3 0 0 0 -2 -2 -1 -1
1532259745151545 0 0 -2 -2 -2 -1 -2 -1
1532259745181465 -3 0 0 0 0 -1 -1 -1
1532259745204405 1 -2 1 -3 -3 -3 -3 -2
1532259745226345 -1 -1 0 -1 -2 -1 0 1
1532259745287183 -1 -1 -2 1 -1 -7 -5 1
1532259745339044 0 -2 -3 -2 -1 3 4 0
1532259745361982 1 -2 0 1 -1 -4 0 0
1532259745474686 1 1 -2 0 -1 0 0 0
1532259745489640 -3 -2 -1 0 -2 -2 -8 -4
1532259745534521 0 -1 1 -1 -2 0 -2 -1
1532259745556463 -1 -2 0 -1 -2 -1 -2 -1
1532259745639241 0 0 -2 -1 0 1 -3 0
1532259745662179 -1 0 -1 1 -1 1 0 -2
1532259745684121 -1 0 1 -1 -1 -1 2 3
1532259745729001 0 0 -2 0 0 -5 -2 -1
1532259745758921 -1 -1 1 -1 0 1 -2 0
1532259745811779 -2 0 0 -3 -2 -2 -3 -2
1532259745841699 0 -1 0 0 0 2 2 0
1532259745894558 -1 -3 -3 -1 0 -1 1 -1
1532259746037177 -1 0 0 0 -1 0 -2 -5

1532259746089039 -1 2 2 0 1 0 -1 0
1532259746141897 -1 0 -2 -2 -2 2 4 0
1532259746186776 -1 -1 1 0 -1 -1 0 -2
1532259746231657 -1 -1 -1 -1 -2 1 -3 -2
1532259746246617 -1 1 -2 -1 -2 -2 0 0
1532259746269555 -1 -1 1 1 0 -2 0 -2
1532259746314435 0 -1 -1 -2 -2 -2 -1 0
1532259746336377 -1 0 -1 -3 -2 -3 -2 -2
1532259746366297 -1 -1 -3 0 1 -1 0 -3
1532259746412174 0 1 -1 -2 -1 -2 -2 -2
1532259746501934 -2 -1 0 0 -2 -2 -2 -1
1532259746516894 -2 -2 -2 0 -1 2 2 0
1532259746561774 0 -1 -2 1 -1 -1 1 -1
1532259746591694 0 -3 -1 -3 -3 -1 -1 0
1532259746614632 -1 0 0 -1 1 -1 -2 -3
1532259746651533 -2 -1 1 0 -1 -2 0 -2
1532259746689432 0 0 -2 -4 -1 -1 -1 -3
1532259746713369 -1 1 -2 -1 -1 -2 -1 -2
1532259746734313 -2 -1 -2 -1 0 -1 1 0
1532259746749272 1 -2 -2 1 -3 -2 0 -2
1532259746772222 -2 0 0 -1 -1 -1 -1 -1
1532259746817091 1 1 -1 -1 -2 -1 0 0
1532259746839033 0 -2 -1 -2 -1 1 0 2
1532259746876931 1 -1 -1 -1 -1 -2 -2 -1
1532259746913832 -3 -1 -2 -3 1 -1 -1 -3
1532259746943752 -1 -3 0 -1 0 -1 1 0
1532259746966691 -1 -2 -3 -4 0 -1 1 3
1532259746989630 -2 0 0 -1 1 0 -2 -3
1532259747019550 -1 -1 -3 0 -2 -1 -1 -1
1532259747079390 -1 -1 0 1 0 -1 0 1
1532259747102328 0 1 0 -2 0 -1 -1 0
1532259747154191 0 -1 -2 -2 -4 -2 -1 -1
1532259747192088 -2 -2 1 -3 -1 -1 -3 -2
1532259747243949 0 1 -2 -2 -3 -2 -2 -1
1532259747258919 -1 -1 -2 -1 1 -1 0 -1
1532259747334707 -2 -3 -2 -1 -3 -3 1 3
1532259747356649 0 0 -1 -2 0 0 -1 0
1532259747424467 -1 0 1 -1 1 0 0 -2
1532259747529187 0 1 -3 -2 0 -2 -2 -1
1532259747633906 0 -2 0 -5 -16 6 -2 -1
1532259747656846 0 2 -2 -1 0 6 -1 2
1532259747709717 -3 -5 -5 -20 -12 -13 -3 -4
1532259748046803 0 -1 -2 10 5 3 6 3
1532259748076723 -1 -4 0 4 3 -1 1 -3
1532259748121603 5 -3 -3 -3 18 12 7 0
1532259748181451 2 -3 1 -3 -1 -4 4 -9
1532259748196403 -13 -3 5 8 12 -13 -1 2
1532259748241283 -3 -5 -7 -9 -12 16 -24 -8
1532259748309101 -3 -2 -3 3 -1 -15 -3 -13
1532259748398861 2 0 1 1 21 22 -12 3
1532259748459699 -2 -1 -3 -5 -18 21 9 1
1532259748511560 -1 -1 -3 5 7 -39 -14 -1
1532259748579378 -3 -1 2 -1 -27 -68 -17 -3
1532259748631240 -4 -1 -2 -6 3 19 -10 9
1532259748654179 3 -2 -2 -2 -7 -26 5 3
1532259748721997 -1 -2 -1 -7 -5 -14 -11 0
1532259748751917 2 -4 1 1 3 21 -6 4
1532259748811757 4 0 -1 1 -1 39 14 -5
1532259748918472 -5 -5 -4 -2 4 -8 8 -8
1532259748939416 -1 0 9 11 -27 6 10 -2
1532259748961357 0 0 -1 -5 5 80 13 0
1532259749022195 0 1 1 2 -2 -32 8 -6
1532259749044136 -1 1 -5 -14 4 26 -4 -8
1532259749096995 -5 -4 -4 -13 -13 -5 -42 2
1532259749163816 -7 0 2 4 -5 43 15 18
1532259749186755 -2 2 2 9 -6 -14 -3 -7
1532259749314413 -2 2 -3 -8 -2 20 1 14
1532259749389213 4 -2 -4 1 -7 -7 6 6
1532259749442071 -1 2 -1 5 -1 -5 13 2
1532259749493933 -3 -3 -1 0 2 -11 -12 -4
1532259749584699 1 1 -1 2 9 3 16 3
1532259749644530 -5 -18 0 -3 4 -11 -1 -1
1532259749734290 -4 -8 0 -1 -6 -6 0 1
1532259749794138 -5 4 11 4 6 -3 5 2
1532259749861949 -3 -5 -4 0 17 11 -4 1
1532259749928770 -7 -5 -5 -13 -20 -25 -6 -5
1532259749943730 0 11 5 3 -6 10 -5 3
1532259750056429 3 6 2 2 -12 -79 9 4
1532259750094328 3 4 0 -5 -4 5 0 -7
1532259750131229 3 -1 -3 -1 -14 19 3 -16
1532259750169128 4 -11 -8 -5 5 48 -2 -14
1532259750221986 1 15 -1 0 -20 6 3 2
1532259750296786 0 -1 0 0 59 16 -2 -4
1532259750371586 0 -1 -3 -3 12 -7 -7 3
1532259750446386 4 -1 1 -2 -7 1 -8 4
1532259750559085 -6 -12 1 1 2 -4 2 -2
1532259750626903 -1 2 3 -1 -2 13 2 -5
1532259750686750 -6 -3 -2 0 0 4 10 0
1532259750776503 0 0 -1 -2 -2 -11 -4 -1
1532259750800440 11 -1 -1 -1 -2 -4 -2 -3
1532259750851303 -6 2 0 0 -2 -4 3 -3
1532259750912141 -2 -2 -1 -2 -1 0 -7 -2
1532259751053762 3 -2 -2 -1 -2 -4 10 6
1532259751114599 1 -1 -1 -1 1 8 0 -1
1532259751151501 -3 0 0 0 1 -6 -12 -1
1532259751189399 -1 -1 -1 0 0 6 2 -5
1532259751257219 -4 -2 -1 -1 -1 -4 -3 -2
1532259751309079 -5 0 -3 -1 -2 -5 -4 -2
1532259751458679 -1 0 -3 -2 1 1 1 -2
1532259751556418 0 0 -3 -1 -3 -2 -4 -2
1532259751601298 -4 -1 0 -1 0 -4 -2 -1
1532259751662135 -4 -2 -2 1 0 -4 0 4
1532259751856615 -2 -2 -2 1 -2 -1 -1 -4
1532259751894513 -1 -2 -1 -3 -2 -8 1 0
1532259751916455 2 0 -2 0 -1 3 0 1
1532259752088994 -1 -3 0 -2 -2 -10 -9 -3
1532259752111932 0 -2 -2 -1 0 6 -3 0
1532259752148834 0 -1 -1 -1 0 10 4 1
1532259752224631 -2 -2 -2 -1 -2 -8 -4 -2
1532259752276492 -2 -1 -1 -2 -2 0 -1 4
1532259752299431 0 2 0 0 -1 -9 -4 -4
1532259752321372 0 0 -1 -3 0 -9 0 2
1532259752366253 -3 0 -1 1 -4 -11 1 0
1532259752419111 -1 -3 -2 -1 -2 2 3 0
1532259752449031 1 0 -2 -1 -2 1 0 -2
1532259752493910 1 -1 -1 0 0 0 -1 3
1532259752516849 -3 -2 -2 -2 0 0 0 0
1532259752546770 5 -2 -1 -2 -3 -2 -2 -4
1532259752568711 -4 -2 -2 -1 -1 -4 -2 -1
1532259752591650 2 -1 0 -1 -2 0 1 1
1532259752629548 0 -1 -2 1 0 -1 1 4
1532259752689397 -1 0 -1 -2 -2 0 0 -3
1532259752727291 -2 -1 -2 0 -1 -1 -4 -2
1532259752817046 1 -3 -1 -2 -1 -1 -2 -1
1532259752853948 -1 -1 0 -1 -2 0 -1 -3
1532259752898828 1 -2 0 1 -1 0 -1 -1
1532259752921776 2 -3 -1 -1 0 -1 -2 2
1532259752996566 -2 -2 0 -1 -2 0 -1 -2
1532259753019505 0 -1 -2 0 -1 -2 -1 -1
1532259753101287 -4 -1 -2 -1 0 0 -1 -4

1532259753147164 0 1 -2 -1 0 -1 0 -3
1532259753213985 -2 -1 -2 -2 0 -2 -2 0
1532259753319703 -3 0 -1 -1 -1 2 -1 -2
1532259753349622 0 -2 -3 -3 -1 0 0 2
1532259753386524 2 -1 -2 -2 -2 -1 -2 1
1532259753401484 -1 -2 -1 -1 1 -2 0 0
1532259753439382 -6 -1 -2 0 -1 -1 -3 -3
1532259753461324 1 -1 -3 0 -3 -2 -1 3
1532259753507201 -11 -2 -2 -1 -1 -1 0 -4
1532259753552081 1 -1 0 -2 -1 -1 -1 0
1532259753588982 1 0 -1 -3 0 0 -2 -3
1532259753663783 -3 -1 0 -1 -2 0 1 0
1532259753739579 -1 -2 -1 0 0 0 -1 -2
1532259753829370 0 -2 -1 0 -1 -2 2 1
1532259753881231 -1 -1 -2 -1 -3 -2 -2 -1
1532259753934090 0 -1 -2 -2 -1 0 0 1
1532259753957029 -2 0 0 1 0 0 -2 -1
1532259753978970 -1 -1 -2 0 -1 -2 0 -1
1532259754038811 1 -1 -1 0 1 -1 -1 -2
1532259754084687 -1 -2 -2 -3 -2 -1 0 -1
1532259754106629 1 0 0 -1 -2 -2 -3 -4
1532259754129567 -1 -1 -1 -1 0 -1 -6 -3
1532259754159487 -1 -3 0 0 0 0 0 2
1532259754219327 -2 -1 -3 0 1 -6 0 0
1532259754257226 0 0 -1 -3 -1 24 -1 -2
1532259754287154 -3 -1 -5 -11 2 -12 -5 -3
1532259754317065 -2 -3 0 -2 -6 -11 -2 2
1532259754361946 0 0 0 12 6 -6 1 -2
1532259754391866 1 2 6 22 33 4 3 0
1532259754436758 -2 -1 -3 -14 -14 -9 -1 -1
1532259754459697 -1 -3 -3 -1 2 15 -3 -2
1532259754541466 -3 -2 1 6 25 -1 -26 4
1532259754788804 -1 -4 -2 1 2 -1 7 8
1532259754811743 -1 1 2 2 -1 -42 2 11
1532259754924442 9 0 2 1 10 29 37 -14
1532259754946383 3 1 2 1 4 -25 6 64
1532259755037156 0 -4 -2 -12 -2 -24 0 -2
1532259755059082 -2 1 4 2 -10 30 4 4
1532259755126900 1 1 1 20 -17 -28 7 10
1532259755172784 -2 -4 -9 -6 8 5 -27 -44
1532259755291461 -1 -2 -3 0 -1 9 -16 -21
1532259755315396 -4 -1 -2 -12 -9 -36 22 -8
1532259755374239 2 3 2 5 9 -2 7 -7
1532259755419118 -4 -1 -3 0 0 1 -3 -1
1532259755478959 0 4 -1 6 5 14 15 -4
1532259755546778 -2 3 -1 -8 -4 31 -17 -3
1532259755689396 -1 1 0 4 12 29 18 -1
1532259755756217 -4 0 -4 -11 -9 6 5 1
1532259756109273 1 -4 -1 2 0 -7 13 5
1532259756162132 6 -11 -1 -4 -3 -27 2 5
1532259756379550 -2 2 -4 -3 -2 -11 -3 -1
1532259756416452 7 1 -1 -2 -6 -21 -6 1
1532259756507209 -1 -4 -3 -4 8 1 3 0
1532259756656809 2 5 5 5 62 54 3 0
1532259756791449 4 9 5 10 54 16 4 1
1532259756859267 -1 6 3 -2 1 -22 0 2
1532259757053747 1 -2 -1 -1 1 0 -1 -3
1532259757162457 -1 -2 -1 -3 -3 -1 1 -1
1532259757204353 1 -3 -1 1 0 0 -1 0
1532259757234265 0 0 0 0 -2 -2 -3 -2
1532259757361924 0 0 0 1 1 -1 -1 2
1532259757421763 3 2 0 1 -3 0 2 -2
1532259757489582 -2 -2 -2 -4 -2 -2 -1 0
1532259757534462 1 -1 0 -1 -1 1 0 0
1532259757625220 -1 -3 -1 -1 -2 0 0 -1
1532259757647172 -2 -3 -1 0 1 -3 -3 -2
1532259757736921 -1 0 0 -1 0 -1 -3 -1
1532259757826681 -3 -1 0 -1 -2 -1 -1 0
1532259757894500 -2 -1 1 0 -2 3 -1 0
1532259757991241 0 2 -3 1 0 -2 0 0
1532259758022158 1 -2 -1 -4 -2 1 -2 -3
1532259758088979 -1 0 -2 -1 1 -1 -2 0
1532259758118900 2 0 -2 -2 0 -3 -2 -1
1532259758148819 -2 0 1 -3 -2 -3 -1 -1
1532259758178740 0 -1 -1 -2 0 -1 0 0
1532259758382195 0 -2 -1 -1 -1 0 -1 -3
1532259758456995 0 2 -3 0 0 -2 -2 -1
1532259758606595 -1 0 -1 0 -1 1 3 0
1532259758659454 -1 -1 0 0 -1 -2 -2 0
1532259758681395 -1 -3 -1 -2 -2 -1 -3 -2
1532259758749214 -1 0 -1 -3 -2 -5 -5 -2
1532259758794094 -1 -1 0 -1 -1 -2 -1 -2
1532259758824014 0 1 0 1 1 -2 0 0
1532259758959651 0 -1 2 0 -1 -1 -1 -1
1532259758981593 0 -1 -2 -2 -4 0 -3 -4
1532259759079331 -1 -2 -2 -2 0 -1 0 1
1532259759213971 0 -6 -1 -3 0 -1 0 3
1532259759401470 3 -3 -3 -5 -3 -2 -3 0
1532259759431390 -4 -1 -2 -2 -2 0 -2 -6
1532259759454329 -6 0 -1 0 1 -1 -1 -7
1532259759492226 3 -3 -2 0 -1 -1 -2 5
1532259759559048 0 0 0 2 -3 -2 -1 0
1532259759604935 -3 -1 0 -2 -2 -1 -1 0
1532259759641827 -2 0 -3 -4 -1 0 0 -2
