1532257618166114 -1 0 -1 0 1 3 -2 -1
1532257618205011 -2 -1 -2 -3 -2 0 1 -1
1532257618224958 1 0 -2 0 0 0 -5 -2
1532257618264851 0 -1 0 -1 1 0 -4 -1
1532257618306739 -3 -2 -3 0 -2 -1 -10 -2
1532257618336671 -2 -1 -1 -1 -1 0 3 0
1532257618351619 0 -2 -1 -1 -2 -2 8 0
1532257618366579 0 -2 -3 -1 -1 4 1 0
1532257618397498 -2 0 0 1 -1 0 -4 1
1532257618412455 0 0 -2 0 0 -6 -3 -1
1532257618479277 2 -1 0 1 1 2 -2 0
1532257618509216 -5 -2 -2 -3 -11 -14 -14 -4
1532257618532168 -2 -2 8 -4 -11 -42 -9 -3
1532257618554109 -1 4 -3 -8 -14 -31 2 -2
1532257618577047 1 -4 1 5 -16 5 -1 -3
1532257618606967 2 0 -1 -2 5 20 0 3
1532257618621927 -2 -4 -6 -7 3 23 2 0
1532257618644866 -2 0 -4 -6 0 -3 -10 -1
1532257618666807 -1 -2 1 -7 -13 3 4 -1
1532257618689746 0 2 -9 -3 -9 1 -5 -1
1532257618711687 -2 3 0 1 0 4 -2 -1
1532257618726648 -1 -2 2 3 8 -5 1 -1
1532257618756567 0 0 -3 1 0 -8 -3 -3
1532257618771527 0 -2 0 -3 3 10 3 1
1532257618786488 -1 1 -2 3 -2 3 -4 -2
1532257618824386 -4 -4 1 9 6 -9 -4 -5
1532257618854306 0 1 -3 -2 -3 -7 -5 -4
1532257618884226 -1 -2 -2 -4 -7 -11 3 0
1532257618914151 1 4 1 2 -2 6 -2 -2
1532257618937085 -3 -3 0 -2 -2 -8 -2 -1
1532257618952044 -1 -3 0 -4 12 -37 -4 -3
1532257618967004 0 -2 -3 -5 -17 7 4 1
1532257619004903 0 3 -1 2 6 2 -1 1
1532257619026845 1 -2 -2 -3 -8 -18 11 1
1532257619049783 0 0 0 0 -4 10 0 0
1532257619086685 -1 -1 -1 -2 -1 12 0 -3
1532257619109623 -2 -2 0 -1 -5 6 2 0
1532257619131565 1 1 0 -1 -3 4 -3 -1
1532257619146525 -1 -2 2 1 -1 5 -3 -1
1532257619169463 -2 -2 -3 -3 -5 -4 -26 -2
1532257619199383 -1 1 -1 0 -2 -16 -3 -2
1532257619237282 3 0 -1 -1 -6 -7 -1 -2
1532257619259223 -2 0 -1 -2 -8 -8 12 0
1532257619274184 -1 -1 0 0 -3 -7 5 0
1532257619289143 -1 -3 0 -1 3 6 -4 -1
1532257619304103 -2 1 -1 0 0 -2 3 -1
1532257619319064 -3 -1 -1 -3 -8 -15 4 -1
1532257619342002 -2 0 -2 -1 3 14 4 0
1532257619363943 0 0 -2 1 -3 2 -1 0
1532257619386882 0 0 -1 1 -3 -1 -5 1
1532257619409820 -2 -1 -1 0 -4 -4 1 -4
1532257619446721 1 1 -2 -1 -4 -2 2 -1
1532257619469661 -2 -1 0 -2 2 4 0 -2
1532257619506562 -1 -1 -1 -1 -7 -20 -1 0
1532257619536482 -2 0 -2 -2 -2 2 2 -2
1532257619551442 -4 0 -1 -1 3 1 -4 -1
1532257619567398 -2 -1 -1 -1 11 12 -4 0
1532257619589340 -2 -3 -2 0 1 2 2 0
1532257619604300 1 -2 0 0 -3 -5 -10 -2
1532257619627238 -1 -1 -1 -2 -5 -9 1 -1
1532257619649180 -1 -1 -2 0 -1 -2 -1 -2
1532257619672119 -1 0 -1 0 -2 -7 2 -2
1532257619694060 -2 -1 -1 -1 -1 -2 -5 0
1532257619716999 0 0 0 -1 -4 -3 0 -1
1532257619731959 -4 -1 -1 -2 -5 -6 -2 -2
1532257619754897 0 -2 0 -2 -6 -9 -3 0
1532257619791799 -1 1 -1 0 -4 -1 7 0
1532257619814738 -1 -1 -3 -2 3 8 1 0
1532257619844658 -1 1 1 4 11 15 1 1
1532257619866599 -1 1 2 1 -1 2 7 1
1532257619889537 -2 -5 -3 -6 11 13 20 -1
1532257619911479 -2 1 6 7 -8 7 -12 -1
1532257619927437 0 -3 -6 -5 -12 5 1 -1
1532257619949378 0 1 -6 -13 -35 -7 7 1
1532257619964337 0 0 3 23 56 -8 5 0
1532257619987276 -2 -3 -4 -8 -13 4 3 0
1532257620009217 -3 -5 -4 -9 -14 -11 -2 -4
1532257620047116 2 6 11 10 -25 -2 1 0
1532257620062076 2 -5 -11 -3 20 3 28 14
1532257620084018 -1 -1 -4 -12 -19 -9 -9 -2
1532257620106956 -4 -2 -10 -15 -7 -17 -6 -6
1532257620121917 -2 -4 -1 -2 19 28 4 2
1532257620174775 0 3 10 23 -9 -5 -14 -6
1532257620196716 -5 -3 -3 -2 14 -7 -5 -4
1532257620234615 -1 -19 -5 2 7 -3 2 1
1532257620407154 0 -3 -1 17 18 2 0 1
1532257620519852 -5 -4 -5 -5 -5 5 -18 -5
1532257620609612 -2 9 5 -6 -5 25 23 1
1532257620661474 6 -8 -5 1 6 3 -1 -3
1532257620684412 -15 -10 -8 5 -5 2 8 -2
1532257620699372 -17 -7 -9 -9 -7 -18 -6 3
1532257620759231 7 9 11 -1 -1 7 7 -5
1532257620812090 8 0 -9 -8 15 4 4 4
1532257620886890 1 -6 -21 -6 -3 3 -1 -1
1532257620916809 4 -2 3 9 16 -24 -6 2
1532257620931770 10 5 17 -6 -4 8 -1 -6
1532257620954708 -4 6 -3 -3 4 7 -9 -2
1532257620976650 -6 -13 -14 -17 -11 1 -1 -4
1532257621014548 11 -3 23 4 -11 -15 -9 0
1532257621067407 -4 -16 0 -1 -44 -16 -3 -6
1532257621119269 0 -4 -2 4 6 -11 -3 1
1532257621179108 -1 -1 2 -2 -5 -2 -1 0
1532257621194082 1 5 7 5 5 6 -4 -2
1532257621217021 -2 -2 1 -5 -6 -8 -7 -4
1532257621276861 -2 2 -5 -4 -2 -7 1 0
1532257621306780 -2 -2 -4 -3 -2 1 -1 -3
1532257621344679 3 -1 -1 2 2 4 7 5
1532257621396540 0 -1 -2 -2 -1 -2 -8 0
1532257621442417 0 -4 -3 -2 0 -1 0 -1
1532257621464359 -2 -2 -2 8 -7 -4 -1 0
1532257621509239 0 -2 1 0 -3 0 10 2
1532257621524199 2 1 3 9 3 -21 -7 3
1532257621562098 -2 -1 -2 -1 2 -28 -5 -2
1532257621606978 -1 -2 -1 -2 4 6 0 -1
1532257621629917 3 0 -4 2 12 -7 -10 0
1532257621644876 -3 -4 1 1 5 -22 -8 -3
1532257621659837 0 0 -2 -3 5 12 22 2
1532257621689756 -2 -2 1 -3 3 30 -4 -1
1532257621719677 -1 0 -3 -5 32 24 6 -1
1532257621749596 -1 -1 -4 0 0 37 7 1
1532257621779517 1 0 2 4 2 -51 -4 -1
1532257621794476 -2 0 -1 -2 3 -2 3 1
1532257621809436 -1 -1 -4 -7 -2 -14 1 0
1532257621847334 -2 -1 -1 -6 -7 3 -15 -6
1532257621862294 -2 1 0 -2 -2 -1 -1 -3
1532257621892215 -1 -2 0 -1 -2 25 -1 -2
1532257621914156 -3 -2 -2 -3 3 33 -5 -2
1532257621929116 -1 -1 -2 -2 4 23 -3 -2
1532257621944076 1 -1 -3 -1 -3 -8 -2 0
1532257621967015 -1 -1 1 3 9 -12 1 1
1532257621981974 0 -1 -1 -2 -11 14 8 -1
1532257622011895 2 -2 -1 0 8 -1 3 -1
1532257622026855 -6 -2 -1 -1 5 6 4 -1
1532257622049794 -4 0 2 -3 -5 -22 -7 -2
1532257622080711 -3 -1 -2 0 7 27 -6 -1
1532257622101656 0 2 0 0 3 11 3 -2
1532257622131575 -5 -1 -1 -3 0 4 -7 -4
1532257622154513 -1 -1 1 0 -8 -7 -3 2
1532257622169474 -5 0 -2 -2 -1 -18 -17 0
1532257622184433 0 -3 -1 0 0 8 0 -1
1532257622207372 -4 -1 -2 -2 3 27 24 -1
1532257622229314 3 0 -1 -1 -13 -21 -21 -4
1532257622252252 12 2 0 1 3 1 5 3
1532257622274194 -5 -2 -1 0 -18 -15 -1 -3
1532257622289153 -5 -1 -1 -2 4 -2 -4 -1
1532257622304113 4 1 -1 -1 0 -2 -7 -1
1532257622334034 -1 -1 -1 -1 -4 -7 2 0
1532257622348994 -5 -3 -1 -1 0 -2 -4 -2
1532257622379920 -1 -2 -3 0 6 3 5 0
1532257622394871 -13 -1 0 -2 3 2 8 1
1532257622409830 -8 -3 -2 -3 -3 0 9 -1
1532257622424791 4 -1 -1 0 -4 -2 -5 -2
1532257622446732 4 -2 0 0 9 23 -7 -1
1532257622461692 1 -2 0 0 4 6 5 -3
1532257622484631 17 -1 -3 -1 -3 -9 -3 -2
1532257622506571 -7 0 0 0 -3 -3 -1 2
1532257622544471 -1 -1 -1 -1 8 27 -2 -2
1532257622567409 -1 1 0 -2 -6 -7 -2 -2
1532257622604311 -6 1 -2 1 -2 23 -2 -4
1532257622627249 -3 -1 -2 2 2 13 3 1
1532257622664150 -6 -1 -4 -3 -4 -20 -2 1
1532257622687090 8 -1 0 -3 -3 -5 -1 -1
1532257622723991 -5 -1 -1 -2 1 -7 -13 -2
1532257622754908 -1 -1 -1 0 -5 -5 0 -3
1532257622814747 -4 -2 -2 0 -2 -12 2 -5
1532257622829708 -2 0 -1 -1 -2 4 8 0
1532257622868605 -1 0 1 0 0 -1 -5 -1
1532257622919467 -3 -1 -1 -2 0 -8 1 -2
1532257622957367 -1 -2 0 -1 -7 -21 -8 0
1532257622979308 2 2 6 24 9 -6 11 1
1532257622994268 -3 -5 -7 -15 49 34 0 -5
1532257623024188 1 4 13 -23 21 -5 -15 2
1532257623054108 0 0 -12 -3 -3 52 1 2
1532257623121926 -2 -1 -10 -35 -90 1 -13 -5
1532257623137884 -1 1 -1 -5 43 1 -12 -4
1532257623181766 -6 -6 -15 -23 12 22 -2 -3
1532257623279505 1 0 -5 -8 9 -39 4 2
1532257623459025 -1 -4 -6 -9 22 14 0 0
1532257623534833 0 1 -5 11 -22 -20 -3 -3
1532257623586684 6 4 13 1 6 33 2 5
1532257623699383 6 1 -3 -1 14 38 4 -1
1532257623842001 26 4 4 -2 -9 -15 4 13
1532257623939740 2 -2 -3 -1 -7 34 -3 -3
1532257623961681 -22 -4 4 5 3 -4 -2 -7
1532257624021521 -1 2 2 2 1 12 1 1
1532257624097318 3 0 -7 3 -4 -10 -1 -1
1532257624127238 0 -4 9 -1 -8 -45 -1 0
1532257624149179 4 -1 -3 -2 1 0 3 -4
1532257624202039 -8 -1 3 1 -2 -4 -1 0
1532257624216999 7 -6 -5 0 -3 -6 -5 -2
1532257624239936 -1 -3 -2 -1 -1 -3 -5 -3
1532257624269872 2 0 0 0 -1 0 -2 -1
1532257624306758 0 4 1 0 -3 -2 -1 -1
1532257624321718 -3 5 4 0 0 1 -2 -1
1532257624344656 -10 -1 4 -2 -2 -2 -1 0
1532257624374577 -13 -4 -6 -3 -3 -1 -2 -1
1532257624389550 3 -1 -4 0 -2 -3 -1 1
1532257624419456 -1 -1 0 1 -1 -2 0 1
1532257624457355 -2 -2 -4 -1 -2 0 -3 0
1532257624472316 -1 -4 1 0 -3 -2 -2 -2
1532257624532156 -4 -1 -2 0 -1 -2 -2 -2
1532257624562075 -1 -1 -2 -2 -4 -2 -1 0
1532257624599974 0 6 2 13 24 19 3 0
1532257624621917 -1 -1 1 2 -5 -11 -2 0
1532257624644854 -3 -5 -5 -15 -19 -18 -8 -3
1532257624674773 -1 2 -2 -3 -13 -4 1 1
1532257624719654 1 0 2 14 -2 -42 0 0
1532257624734615 0 -3 -4 -5 -9 4 2 2
1532257624771515 0 2 6 -2 -4 -17 -16 -3
1532257624786476 -1 -3 0 -1 2 -3 -3 -2
1532257624809414 -1 -3 -3 -10 -7 11 0 -1
1532257624839334 0 1 -1 -4 1 -14 -4 -3
1532257624862272 -1 -1 -1 0 0 3 -1 -1
1532257624884214 0 -1 -7 0 0 -3 -8 -4
1532257624907153 1 1 2 2 4 3 10 2
1532257624929094 -1 0 1 -6 -10 -75 -3 -1
1532257624944054 1 -1 1 6 8 50 5 1
1532257624966992 -3 -4 -2 -2 10 39 5 -1

1532257624989931 0 -1 0 6 10 4 4 0
1532257625011873 0 0 0 -2 0 -7 0 -1
1532257625034389 -2 -1 -2 -1 -3 -1 -4 -1
1532257625049337 -1 -1 0 -2 -3 9 1 -1
1532257625088233 0 -1 1 1 -15 -2 -1 1
1532257625109177 -3 0 -3 0 5 2 1 -2
1532257625139097 -1 -2 -2 -4 -10 -14 2 1
1532257625162036 -2 -2 -3 -4 10 0 -3 -2
1532257625183977 -3 -2 -1 -1 -2 -5 0 0
1532257625199945 -1 -1 0 -1 0 12 -2 -2
1532257625221876 0 0 -3 1 -3 6 -2 -3
1532257625251795 1 0 0 -3 -3 -5 -4 -2
1532257625274734 0 -2 -4 -4 -2 5 12 -1
1532257625319631 0 2 1 0 0 -4 -4 0
1532257625334574 -3 -1 -3 -6 -6 -4 -3 -4
1532257625349534 -2 -2 -1 3 1 5 7 0
1532257625364494 1 0 -2 -2 6 -2 -1 -1
1532257625386436 -1 -2 -2 -1 -4 -2 0 -1
1532257625409374 -1 0 0 0 -5 -2 -4 0
1532257625447273 -1 -2 -1 -3 0 2 4 0
1532257625477193 0 -1 0 -2 -3 -1 -4 -2
1532257625514094 1 -1 -1 1 0 0 -1 0
1532257625558973 -1 0 -2 -5 -8 0 -2 1
1532257625581913 0 -2 -1 2 12 -2 -3 0
1532257625596873 -2 0 0 -5 -6 -1 -1 -1
1532257625649732 0 0 -4 -8 -33 -4 -1 0
1532257625701636 -4 -3 0 0 -3 -1 -3 -1
1532257625731532 -2 -2 -3 -2 -1 0 -1 -2
1532257625777409 0 -1 -1 0 -3 -3 -2 0
1532257625799350 0 -1 -1 2 12 0 -1 -1
1532257625814310 0 -1 0 3 -11 -1 -1 1
1532257625837263 -4 -1 -1 -2 -6 -1 0 -1
1532257625867184 -1 -1 -1 -5 -10 0 0 1
1532257625882185 -1 -2 1 -1 0 1 2 0
1532257625912105 0 -2 -2 -2 -7 -2 -1 -1
1532257625956986 0 -4 -2 -4 -13 -1 -1 -1
1532257625979923 1 -2 -2 -3 8 0 -1 -1
1532257626009844 0 -1 0 2 4 0 -1 -1
1532257626061705 -1 -1 -1 7 7 2 -1 -1
1532257626084653 -1 -1 0 2 1 -1 -2 0
1532257626121545 -2 0 -2 -3 -13 -3 -3 0
1532257626144483 0 -1 0 0 0 0 1 1
1532257626159443 -2 0 0 4 4 -1 -1 0
1532257626174404 -1 0 0 -5 1 0 -1 -1
1532257626189364 0 -2 -3 -1 6 -1 -1 0
1532257626212303 -2 -3 0 -3 -4 -2 0 -2
1532257626234244 -1 0 0 0 -3 -2 -1 -1
1532257626249204 -2 -1 -1 -1 4 -1 -1 -2
1532257626279124 -3 -1 -2 -2 2 -3 -2 -1
1532257626302062 1 0 -1 4 9 2 0 -1
1532257626324004 0 0 0 -1 1 -2 1 0
1532257626346970 -3 -2 -1 0 -4 -1 -2 1
1532257626370906 0 -2 0 0 -3 -1 0 -1
1532257626391850 0 -2 -1 -2 -4 -2 0 -1
1532257626414789 -2 -1 1 5 7 -2 -2 -2
1532257626429749 0 -1 0 -3 -8 -2 -2 -1
1532257626451690 -1 -2 -1 1 -1 -3 -4 -2
1532257626474629 -1 -1 -1 0 -3 -1 0 -2
1532257626489588 0 -2 -1 3 4 -1 -2 0
1532257626511530 -3 0 -1 -1 -2 -6 -2 -1
1532257626542462 -2 1 6 6 2 -10 -1 0
1532257626579348 -1 -2 -5 -4 -8 -6 -1 -1
1532257626624229 -1 0 0 3 1 -25 0 -1
1532257626639189 0 -1 -2 0 -7 8 -13 0
1532257626654148 -1 -1 -3 0 3 -7 3 1
1532257626721967 0 0 0 -1 1 0 -1 1
1532257626752901 0 -1 -2 0 1 -12 -2 0
1532257626781807 -1 -1 -2 0 -8 -8 -2 0
1532257626819706 0 0 -1 0 1 2 0 0
1532257626834666 0 0 -1 1 1 -1 0 -2
1532257626864586 -3 0 0 -1 -8 -3 -3 0
1532257626886527 -1 -1 -3 -3 3 1 0 0
1532257626916447 -1 -3 -3 -2 0 2 -1 1
1532257626932405 -3 1 -2 -2 -1 0 -2 -2
1532257626969306 -1 -1 1 -1 -1 -1 0 -3
1532257626984266 -1 -1 0 1 0 -1 0 -2
1532257627007205 0 -1 -1 -3 0 -1 -1 -1
1532257627029146 -2 0 -1 0 0 -2 -2 -1
1532257627052085 -1 -3 -2 -1 -1 -1 0 -2
1532257627074036 -1 -2 0 -1 -1 -2 2 -1
1532257627096964 -1 2 -2 0 1 -1 -2 -2
1532257627119903 1 -1 -2 -2 -1 -2 0 -2
1532257627141844 0 -3 -1 -1 -1 -2 -1 -1
1532257627171764 -3 -2 -2 -2 0 0 -3 -1
1532257627194703 -2 -1 -2 -1 -1 0 1 0
1532257627224623 -3 -2 0 0 -2 0 0 -3
1532257627246564 0 -3 -2 -1 -1 0 -2 -3
1532257627269503 -1 1 0 -1 -2 0 1 0
1532257627291444 -1 0 -2 0 -1 0 -1 0
1532257627307402 -1 -2 1 0 -1 -2 -1 -2
1532257627322361 -1 -1 -2 -1 0 -1 -3 -2
1532257627344303 0 -1 -2 -2 -1 -2 -1 0
1532257627374223 0 -1 0 -1 -1 0 -1 -1
1532257627397162 0 -2 1 0 -1 -2 -1 -2
1532257627412123 -2 -1 -2 1 0 0 1 -1
1532257627427082 -2 -1 -1 -1 0 -2 -1 -2
1532257627457002 1 -1 0 1 -1 -2 -2 0
1532257627471962 -2 -2 -2 0 -1 -1 -2 -2
1532257627494900 -2 -1 -3 -1 -2 0 -1 0
1532257627509861 0 -3 -1 -2 -1 -2 -1 -2
1532257627539780 0 1 -1 1 -1 -3 -1 -1
1532257627561722 1 -3 -1 0 0 -1 -1 -1
1532257627591642 -1 0 -1 -1 -1 -3 -1 -1
1532257627606602 0 -3 -2 0 0 0 -2 0
1532257627629540 -2 0 -1 0 -2 -1 0 0
1532257627659460 -1 -1 -2 -2 0 -2 -2 0
1532257627697359 0 -1 0 -1 -2 2 0 -2
1532257627727279 -2 -1 0 -1 -2 -2 -1 -2
1532257627749220 -1 1 -3 -3 -1 2 -4 -1
1532257627772159 -1 -1 0 0 -2 0 -1 2
1532257627794105 0 -2 2 0 -1 -1 0 -2
1532257627817039 -2 -2 -1 -2 -1 -4 -1 0
1532257627838980 -1 -2 0 0 1 1 -1 -3
1532257627854937 -1 -1 1 -1 -1 -1 0 1
1532257627884874 0 -3 -1 -1 2 9 0 -2
1532257627906799 -1 -2 -3 -3 -8 12 -2 -2
1532257627921759 -1 -1 -2 -2 -7 5 0 0
1532257627951703 -2 -1 1 -7 -6 -8 -12 -4
1532257627966639 -2 -1 -3 -4 6 0 -2 -2
1532257627989577 0 1 2 0 -7 10 -5 -1
1532257628019497 0 1 0 7 17 -8 -2 0
1532257628042448 -1 0 3 15 -8 -6 -4 -2
1532257628094297 -1 -2 -2 -5 -12 10 2 0
1532257628117236 -1 -2 -1 -4 -1 4 9 3
1532257628177076 -1 1 3 1 11 10 -1 0
1532257628192036 -1 -1 3 18 -11 14 -2 0
1532257628229935 -1 1 4 3 19 -6 -7 -2
1532257628304735 -1 -1 -6 -4 -3 3 -3 0
1532257628357594 0 0 1 10 16 17 4 1
1532257628416436 -3 -5 -7 -9 -8 4 -2 -1
1532257628529135 -5 -4 -2 -6 -20 -21 0 -2
1532257628634852 5 -7 -5 -8 -2 6 0 -1
1532257628671753 -15 13 4 0 0 2 -3 -4
1532257628694692 1 9 -5 3 4 7 2 1
1532257628724612 -3 -2 3 -5 -2 -3 -1 -1
1532257628829333 1 6 1 -1 4 -4 -2 -1
1532257628897150 -2 -4 -5 -4 -4 -1 -5 -3
1532257629009849 -2 -9 -18 -9 -15 -10 4 4
1532257629039769 -1 8 6 2 6 10 4 2
1532257629069689 0 -1 -3 -2 -1 -12 -3 -2
1532257629106590 0 -3 -4 0 -14 -19 -1 0
1532257629121551 -1 1 3 21 33 6 -2 -2
1532257629136511 0 -5 -6 -4 -19 2 1 0
1532257629189369 -1 -4 1 0 -10 -3 -2 -1
1532257629272148 0 0 -12 -1 8 -14 1 1
1532257629302068 0 -4 1 -4 5 -6 -4 0
1532257629340963 -2 -3 -7 7 0 8 -1 0
1532257629391828 -1 -6 0 -3 3 -3 -6 -2
1532257629414766 -2 0 1 0 0 8 -1 1
1532257629466628 -3 -2 -4 -1 -2 -1 -3 1
1532257629483582 1 -3 -4 -4 -1 -2 -1 -2
1532257629496548 -1 -1 1 -1 -1 2 -1 -1
1532257629511508 1 -1 -1 -2 -1 -2 -1 -1
1532257629526468 -5 -4 -3 -1 0 -1 -3 -3
1532257629579326 0 -2 -3 -3 -4 -2 0 0
1532257629617225 -6 -4 -2 -2 -3 -2 -2 -2
1532257629684046 0 3 5 1 2 5 0 0
1532257629706984 0 -1 -1 8 2 -18 -7 1
1532257629781785 -1 0 -2 -3 4 6 9 1
1532257629804724 -2 -3 -6 -9 -4 0 -14 -3
1532257629843625 0 -2 2 7 22 -19 1 -1
1532257629879524 -3 -1 -2 -6 -3 12 1 -2
1532257629985241 2 7 10 25 14 -2 -2 3
1532257630022142 0 -1 2 1 5 13 0 0
1532257630037102 -2 -2 -4 -6 -2 -5 -2 0
1532257630067022 -2 -1 -6 -7 -2 -9 -3 -1
1532257630134840 0 -1 -2 -3 -7 0 6 2
1532257630149801 2 3 -1 -1 -3 -5 -3 -2
1532257630164761 -2 -2 -3 -2 -6 8 -2 -2
1532257630186703 -1 -1 2 -5 -11 9 -2 -1
1532257630231582 0 -1 -1 -3 -2 -14 -1 0
1532257630276462 -2 -2 -1 -1 -1 -10 0 -3
1532257630314361 -3 -2 -2 1 -1 -5 0 -3
1532257630337300 0 0 0 -2 -1 -7 -2 1
1532257630359241 -1 -1 -1 -4 0 2 -2 -2
1532257630427059 -5 -3 -2 -2 18 12 2 -2
1532257630478920 -1 0 1 -3 0 1 -2 0
1532257630531779 0 -1 -2 -1 -3 2 2 -2
1532257630599598 -2 -1 -2 2 5 -1 -1 -1
1532257630712297 -1 0 -1 0 -3 -6 -1 -2
1532257630749198 0 0 0 -2 2 4 -1 0
1532257630764158 -2 0 1 0 -5 -1 -2 1
1532257630802065 -2 -2 0 0 -4 1 6 0
1532257630831977 0 0 0 -1 -14 -2 -2 -2
1532257630876856 1 -2 -3 -1 -2 -1 -6 -2
1532257630891834 0 -1 -1 -2 -3 -9 1 1
1532257630966616 -1 -1 -1 -2 19 14 -3 -1
1532257631026457 -1 -1 3 3 -16 6 3 -1
1532257631079315 1 2 3 8 -24 -41 8 2
1532257631094275 -2 1 9 19 -36 21 -24 -4
1532257631132174 -1 -1 -2 -8 -33 -32 -5 -1
1532257631154115 -2 -3 -3 -10 26 18 -2 -2
1532257631214953 -3 -3 -9 -18 -44 -64 -13 -7
1532257631334640 -3 -1 -1 -20 -34 6 -7 -4
1532257631349592 1 2 5 19 71 44 6 -1
1532257631447331 -2 -3 -8 -16 3 -15 -3 -1
1532257631499193 1 -1 -2 -3 2 5 2 0
1532257631544072 -3 -6 -5 -4 11 44 -7 -5
1532257631573993 -4 -2 -3 -7 4 27 3 -3
1532257631596931 -2 -4 -7 -21 -24 5 1 -3
1532257631634830 0 3 3 -4 -24 -22 -4 0
1532257631671731 0 -2 1 6 1 5 -5 0
1532257631724590 -5 2 0 -12 -22 -32 0 0
1532257631739550 -2 -5 -3 -1 1 4 0 -3
1532257631792408 1 7 5 4 0 -1 -2 -3
1532257631874190 -23 0 0 6 -3 0 -1 -5
1532257631897128 2 -4 -2 -4 -3 22 0 -1
1532257631934030 -15 -2 2 -3 -3 -17 0 -4
1532257631986888 -8 -4 -6 -3 0 32 -2 -6
1532257632039747 -12 -4 1 0 3 -16 -2 0
1532257632054707 -12 -2 1 -1 -1 -12 -2 -1
1532257632069667 2 5 1 0 0 -3 -1 1
1532257632106568 0 0 0 0 -2 7 1 1
1532257632144467 -8 -4 -3 -3 -2 -4 -3 -14
1532257632159427 7 -4 -1 0 1 -4 -9 1
1532257632174386 -1 -2 1 -4 -7 -8 0 -1
1532257632212285 9 -2 -3 -1 -1 -23 -1 6
1532257632242206 9 -6 -3 0 -1 6 -5 2
1532257632272126 -13 1 -1 -1 -2 2 7 -4
1532257632294067 2 -2 -2 -2 0 11 -3 -2
1532257632309027 -11 -2 -2 -4 -5 15 -1 -4
1532257632339945 -2 -5 -8 4 2 -33 -1 -1
1532257632361886 9 -4 2 -2 -4 -5 0 -4
1532257632384824 16 3 1 0 1 10 4 2
1532257632406765 -3 -1 0 -1 -2 -1 -1 2
1532257632451645 1 -3 -1 -3 -1 7 -1 1
1532257632466605 -8 -2 -2 -1 -4 -6 3 -2
1532257632527443 -1 -3 -2 0 -1 -2 -2 1
1532257632557363 2 0 -1 0 -1 3 -3 1
1532257632594264 8 2 -3 2 0 3 -1 2
1532257632639144 -3 0 5 -1 -1 2 2 1
1532257632669079 -2 -1 -3 -3 -2 -2 -1 -3
1532257632692003 -4 -3 -8 0 0 0 -1 0
1532257632721923 -5 1 -2 -1 -2 -1 -1 -2
1532257632736884 -4 -3 -1 -4 -2 -1 -3 -2
1532257632759821 -1 1 1 1 0 0 -1 -1
1532257632781763 -4 -1 0 -1 1 -2 1 0
1532257632796722 -2 -2 -1 -3 -3 -3 -2 -1
1532257632819675 -4 -5 -8 -3 -3 -4 1 -2
1532257632841603 0 3 -2 -4 -1 1 0 -1
1532257632864540 -2 -1 -1 -1 -2 -1 -1 -2
1532257632879501 0 -2 -3 -3 -2 -4 -1 0
1532257632909421 -2 -2 2 1 -4 -23 -5 -1
1532257632932360 -3 0 1 0 -2 1 -2 -1
1532257632947320 4 -2 -3 -4 -1 7 0 4
1532257632969261 0 -1 -1 -2 -1 -4 -2 1
1532257632999181 -5 -2 1 -4 1 5 1 0
1532257633022120 -6 0 -1 -5 -6 15 -5 -5
1532257633052057 5 -1 -2 -4 -1 5 0 -1
1532257633073981 0 3 5 2 2 12 0 -1
1532257633104899 -1 -2 -1 -3 -1 -15 0 0
1532257633119859 -1 0 -2 -2 0 -14 0 -1
1532257633149778 -1 -1 -1 1 2 -9 -2 -2
1532257633171720 -2 -2 -3 -2 0 -33 -7 -2
1532257633194659 0 0 2 1 4 22 1 0
1532257633209618 -1 -2 0 1 5 -3 -2 -3
1532257633239538 -2 -1 -4 -2 -8 -32 -9 -1

1532257633269458 -1 -1 0 0 0 22 6 0
1532257633292397 1 4 2 6 9 -2 1 -2
1532257633322317 -3 -3 0 1 4 34 0 0
1532257633344258 -2 -6 -1 -5 -2 36 0 0
1532257633374387 0 3 0 -2 -16 -16 -8 -1
1532257633389363 2 3 3 3 -6 -54 -6 -3
1532257633412286 -1 -2 1 -3 -3 17 -2 -2
1532257633427246 -2 -3 0 0 12 -4 2 -1
1532257633442206 -1 2 3 5 21 15 7 -1
1532257633464147 -19 0 -8 -4 -1 1 -2 1
1532257633487094 -7 -2 5 1 1 -15 0 1
1532257633502046 24 3 -1 -4 -6 -8 -6 -5
1532257633523987 2 -1 -1 6 21 27 7 2
1532257633546926 -3 -5 -3 -2 -6 -13 0 0
1532257633561886 2 -3 0 -1 -5 17 0 0
1532257633584825 -6 -3 -3 -3 0 0 -9 -6
1532257633606766 1 -1 -4 -4 -9 15 0 -1
1532257633621726 0 -1 2 -2 2 4 0 -1
1532257633644664 -1 -2 -1 -1 0 -11 -1 0
1532257633674584 1 0 1 0 2 0 1 0
1532257633689544 -3 -2 1 1 1 8 -1 -2
1532257633711486 2 -1 0 0 -8 4 0 1
1532257633726445 -2 -2 -1 -5 0 8 -1 0
1532257633742402 -1 0 -2 -1 0 7 0 0
1532257633764344 -2 1 -2 -2 -5 -2 -2 -1
1532257633787283 -3 -2 -1 -1 0 -2 -5 -2
1532257633802243 -3 -2 -4 -5 -7 24 -5 -5
1532257633832163 -1 -2 0 0 -1 -8 0 -1
1532257633862083 -1 -1 -1 -3 1 -4 0 -1
1532257633877043 -1 -3 -1 0 1 2 -3 0
1532257633892003 -1 0 -1 0 1 4 0 0
1532257633921923 -1 0 -1 -2 -1 -5 1 -1
1532257633944862 -2 -2 0 -1 -2 -4 1 -1
1532257633966802 -3 -1 -1 -1 -2 -12 -2 -3
1532257633981763 -1 -1 -3 -1 -2 -6 -1 -3
1532257634004702 0 -3 -1 0 -1 1 0 -3
1532257634026643 1 -1 0 -1 1 5 -2 -1
1532257634041603 -1 1 -1 -2 -2 -4 -3 -2
1532257634071523 -1 -2 0 1 1 0 1 -1
1532257634094462 0 -2 0 0 0 0 -1 -1
1532257634109422 0 -1 -1 -1 0 0 -1 -2
1532257634139342 -1 -1 0 0 -1 -1 -2 0
1532257634154302 0 0 -2 0 -1 -1 1 -1
1532257634169262 0 -2 -1 -1 -1 -2 -2 0
1532257634207160 0 -3 -1 0 -1 -2 -2 -1
1532257634222120 -1 -1 -1 -1 -2 -1 -1 0
1532257634237080 -1 -2 0 -2 -3 -1 0 0
1532257634259033 -2 1 0 -1 -1 0 -1 -1
1532257634281960 0 -2 -2 -1 0 -1 -2 -1
1532257634311880 -2 -1 -1 -1 -1 -1 -2 0
1532257634334819 0 0 0 -1 -1 -2 -3 0
1532257634349779 0 -1 -1 -1 1 0 -1 -1
1532257634364739 0 -1 -1 0 -2 -1 -3 -1
1532257634386680 -1 -2 -1 -2 -3 -1 0 -1
1532257634401640 -1 1 1 1 0 -2 0 0
1532257634424578 0 -2 -3 -2 -2 0 -2 -1
1532257634446520 -1 -2 0 0 0 -1 0 -1
1532257634469459 -2 0 -2 0 -1 -2 -1 -1
1532257634484419 -3 -2 1 0 -3 0 -1 0
1532257634507357 -1 3 -1 -2 -2 0 0 -1
1532257634529298 -2 -3 1 0 -1 0 0 0
1532257634544259 0 0 -1 -2 1 -1 0 -2
1532257634567197 -4 0 -1 -1 -1 0 -1 -2
1532257634589139 -2 -1 0 0 -1 -1 -3 -2
1532257634604111 -1 -1 0 -2 -1 -2 -2 -1
1532257634627049 -1 -1 0 -2 -2 0 -1 0
1532257634648991 -2 -2 -2 -1 -1 -1 -2 -1
1532257634664948 -1 -2 -1 0 -1 -2 -2 -2
1532257634694867 -2 -1 -2 -2 -1 -2 0 -2
1532257634716810 0 -1 0 0 -1 -1 -1 -1
1532257634731768 -3 -2 0 1 -1 -2 0 0
1532257634754707 0 -2 -1 -1 -1 1 -1 -1
1532257634776649 -1 0 0 -1 0 -1 0 -1
1532257634791609 0 -1 -1 -1 0 -1 -1 -3
1532257634821529 0 0 -2 -1 -1 -1 -3 1
1532257634836490 0 0 -2 0 -1 0 0 0
1532257634851449 1 -1 -1 -1 0 -1 -1 -1
1532257634889348 -2 0 -1 1 0 0 0 -1
1532257634904308 0 -2 0 -2 -2 0 -1 0
1532257634927247 -2 -2 0 -1 -1 0 -2 -1
1532257634942206 -1 -1 -2 -2 0 -1 -1 -1
1532257634957166 0 -3 0 -1 -2 0 -1 0
1532257634972134 0 0 -1 -1 0 -2 0 0
1532257634987086 -2 0 -1 -1 -2 0 0 -2
1532257635009028 1 0 -2 -1 0 -1 -1 -1
1532257635023988 -2 -1 0 -1 1 -1 -1 -1
1532257635061886 -1 -2 -1 -2 -3 -1 0 0
1532257635091807 0 -2 -1 -1 -2 0 0 -2
1532257635114745 -1 0 -1 0 -2 -2 0 -1
1532257635136687 -2 -2 1 -1 0 -1 -1 -1
1532257635151646 -2 -2 -1 -1 0 0 -1 -1
1532257635189559 -1 0 -1 -2 -1 -1 0 -1
1532257635211486 -2 1 -1 0 -2 1 0 -1
1532257635226446 0 -1 -1 -3 -1 -2 -1 -1
1532257635242419 -2 -3 -2 0 -1 -1 1 -2
1532257635272324 -2 0 -3 0 -1 -4 -2 0
1532257635309224 -1 -2 -2 -1 -2 -2 0 -1
1532257635332164 -1 -1 -3 0 1 0 -2 -1
1532257635347124 0 -2 0 -2 -1 1 0 -2
1532257635369065 -2 -1 -1 0 0 1 -1 -1
1532257635384025 0 0 -2 0 -1 0 -1 -1
1532257635406964 -1 -3 -2 -2 -1 1 -2 -2
1532257635436891 -1 -1 -1 0 -1 -2 -3 -1
1532257635466804 0 -1 0 0 -1 -2 -1 -1
1532257635489742 -2 0 -1 -3 0 0 -2 1
1532257635504702 -1 -1 -1 -1 -2 -2 0 -2
1532257635541604 -1 0 -1 0 -1 -1 -1 -1
1532257635556564 0 -1 1 1 1 -1 1 0
1532257635579502 -1 -2 -1 0 -2 -2 -1 0
1532257635625380 -2 -2 0 -1 0 -1 -2 0
1532257635662281 -2 -4 0 -1 -1 0 -2 -1
1532257635684222 -1 -1 -3 -1 -1 -1 -2 -2
1532257635722121 -2 0 0 0 0 0 0 0
1532257635737081 -2 -2 0 1 1 2 1 -1
1532257635773982 0 -1 -1 -2 -2 -1 0 0
1532257635804900 -1 0 -2 -1 -1 -2 -1 1
1532257635834820 -1 -1 -2 -1 -2 -3 -1 -2
1532257635871721 -1 0 -1 -1 -1 1 -1 -2
1532257635886681 0 -1 -1 -3 -1 0 0 -1
1532257635909620 -3 -3 -1 0 -3 -3 0 1
1532257635931561 -3 1 -1 -3 -1 -2 -3 -1
1532257635946521 -1 0 -2 0 -2 -2 -2 -1
1532257635969460 -1 -1 0 -1 1 0 1 0
1532257635984419 -3 0 1 0 -2 -1 -1 0
1532257636014339 -1 0 -1 -1 1 -2 -1 -1
1532257636037278 0 -3 -1 -1 0 -2 1 0
1532257636059219 1 -1 -1 0 -1 0 0 0
1532257636106094 -1 -1 -3 -1 -4 -1 -2 0
1532257636136026 2 1 0 -3 1 3 0 -1
1532257636156958 -1 1 -1 -1 0 -5 -2 -1
1532257636186878 -1 -1 -2 0 -1 2 -1 0
1532257636201838 -1 -1 0 -1 2 0 0 -1
1532257636216798 0 -3 0 -2 -1 -1 -1 -1
1532257636261677 0 -2 -1 2 0 2 -2 -2
1532257636276638 -2 -2 -2 0 0 0 1 -1
1532257636299577 -2 -3 -2 0 1 -4 0 -1
1532257636329497 2 0 0 -1 -1 -2 0 -2
1532257636344457 -4 1 -1 -2 -3 2 -1 -2
1532257636382356 -3 1 0 -2 0 0 1 -1
1532257636404297 -2 1 -1 -3 -4 -5 -2 0
1532257636427236 -2 -1 -3 6 -2 5 -3 -4
1532257636449190 -2 -3 -5 -15 -24 1 -1 -1
1532257636479097 -2 -2 -1 -7 -10 -3 0 0
1532257636509017 -3 -4 -1 7 -2 -8 -3 -3
1532257636539933 0 -1 1 5 19 -5 -5 -3
1532257636591795 -3 -5 -11 -15 -1 8 4 -3
1532257636832153 1 -3 -4 -11 -12 0 3 -3
1532257636891993 -1 4 -1 -4 2 -3 5 8
1532257636996713 15 -22 -10 0 1 0 -5 -3
1532257637019651 32 6 4 2 -2 -7 4 7
1532257637056553 2 -1 1 1 0 -8 14 8
1532257637109411 -17 1 0 0 -3 1 1 -2
1532257637178228 -26 -2 0 -4 -1 3 0 -11
1532257637259011 -13 -2 0 8 10 1 1 0
1532257637281950 13 -2 -2 -2 -5 -15 -5 -2
1532257637386670 -28 15 18 -7 -13 -20 -10 -4
1532257637431550 -3 1 -5 -23 -24 17 -2 -1
1532257637484408 2 -2 3 -9 5 5 8 1
1532257637514328 7 3 9 11 7 7 2 0
1532257637552227 6 -3 -3 6 -33 -64 -4 3
1532257637621043 1 -6 -9 2 9 7 0 -1
1532257637648968 -1 0 -3 -1 -2 6 1 0
1532257637686867 0 -1 -3 0 -1 3 2 0
1532257637731747 -18 -1 0 1 1 1 0 -3
1532257637791587 -3 0 1 -2 1 0 -2 -1
1532257637890323 0 -4 -1 0 1 0 0 -1
1532257637994045 0 -4 -2 -2 -5 -4 -1 0
1532257638061864 -2 -2 -1 3 9 35 0 -1
1532257638091784 1 -1 0 1 8 8 -3 1
1532257638129682 -1 -4 -5 -4 -3 11 0 0
1532257638174563 -2 -3 -3 -4 -8 -18 7 1
1532257638234402 -1 1 2 9 19 2 5 2
1532257638272301 -18 0 1 0 5 32 0 -4
1532257638294243 2 -2 -3 -1 3 8 2 1
1532257638332141 2 -4 -1 -4 -2 -2 -2 0
1532257638377022 1 -1 -1 -1 -8 -16 -4 0
1532257638451840 -2 0 -1 -2 -7 -13 -4 -2
1532257638511661 -2 -1 -1 -2 -4 -6 2 -2
1532257638594440 0 0 -1 -2 -8 11 3 -2
1532257638647299 0 2 0 -3 -3 -4 1 1
1532257638699160 -1 -2 -3 -3 1 -3 0 -3
1532257638722098 -2 -2 -1 -1 0 -6 -1 0
1532257638766978 -1 -1 0 1 -4 -1 -1 -1
1532257638782936 -2 0 -1 1 3 3 3 -1
1532257638826819 -3 -2 -2 -1 0 -6 -5 -2
1532257638871708 1 0 -1 1 -8 -5 -8 -1
1532257638886659 -3 0 -2 -3 -3 2 -6 -2
1532257638909597 -3 -1 0 1 -1 3 -4 -1
1532257638954477 -5 1 0 -1 -4 -4 -6 1
1532257638984397 -2 0 -2 0 0 12 7 1
1532257639014317 0 1 2 0 2 9 7 -2
1532257639044237 0 -2 -1 -1 -1 -1 -2 -1
1532257639074157 -2 -1 0 0 1 -1 -5 -1
1532257639112056 -1 -1 -2 -2 2 2 -7 0
1532257639149955 1 0 -3 -15 32 18 5 0
1532257639165912 -2 -2 2 6 13 26 -9 0
1532257639186856 -2 -1 2 9 -43 -25 -21 -5
1532257639201820 0 0 7 51 -8 35 -8 1
1532257639216776 -4 -3 -3 -17 -55 -20 -15 -6
1532257639246696 4 4 6 24 1 22 11 6
1532257639269635 0 1 -3 0 27 16 -8 -1
1532257639284595 0 -1 -5 -12 18 -88 -10 1
1532257639344434 0 -3 -2 -4 5 1 -14 -3
1532257639427212 0 -1 1 -4 -3 8 9 1
1532257639451149 -3 -3 -6 1 17 20 2 -4
1532257639508994 -3 -1 0 9 13 -17 -18 -6
1532257639554872 -2 -2 -3 -16 9 57 9 1
1532257639606733 1 0 1 -12 -12 -38 2 1
1532257639629672 -2 -2 -2 -6 8 -21 -6 -3
1532257639839112 -1 -5 -6 0 21 43 1 0
1532257639944828 -5 -13 -29 -3 1 4 3 1
1532257639989709 8 -14 5 0 -2 -9 -1 2
1532257640011650 2 -17 -4 -7 -3 -5 5 1
1532257640064509 -38 -27 -5 0 0 8 -10 -9
1532257640109389 -3 -9 0 -1 -14 -21 -3 1
1532257640147288 3 4 15 -3 2 -7 8 4
1532257640184189 8 -2 5 -3 25 27 -1 1
1532257640222088 -1 6 0 -16 -4 -5 -2 -2
1532257640252007 -21 6 -4 0 2 -6 -2 -2
1532257640274947 7 6 0 14 2 -13 5 0
1532257640311847 10 -5 -5 -4 1 4 5 1
1532257640334786 -15 -6 -3 -4 -4 -23 -9 -5
1532257640371687 11 -4 -1 0 -2 -2 5 10
1532257640401615 7 -3 -2 -4 -2 -9 -9 -4
1532257640424546 0 -2 1 -1 -12 -29 -15 1
1532257640446487 8 1 0 -2 -8 2 11 8
1532257640461448 -1 1 0 0 2 -2 3 0
1532257640492367 23 -21 -5 -4 -6 -7 -7 3
1532257640514306 -3 24 5 0 -1 4 1 0
1532257640544226 -19 -13 -2 2 0 1 0 -4
1532257640589106 0 -6 -1 -2 -1 0 -3 -2
1532257640604066 -3 -2 -1 -2 -2 -2 -3 1
1532257640641965 -5 -7 -1 0 2 6 -1 -2
1532257640656925 16 3 3 -1 1 1 -20 8
1532257640671885 -8 2 -1 0 -1 -1 -1 1
1532257640716765 7 -21 -7 -10 -22 -16 -8 -13
1532257640746685 13 -12 -1 -3 -7 -6 2 5
1532257640761645 3 -3 -5 0 6 6 3 -1
1532257640776604 -2 -6 -5 -3 -7 -3 -3 0
1532257640806525 -6 -15 -9 -10 -12 -9 -20 -5
1532257640821484 -6 4 2 -10 4 4 -4 -1
1532257640844423 2 3 -6 -5 -3 1 -4 -1
1532257640874343 -2 -2 -1 -3 17 2 2 -1
1532257640897282 4 7 4 -3 -7 2 1 -2
1532257640927202 0 -2 -2 -1 1 9 -2 0
1532257640942162 -3 -5 -2 -10 -16 8 2 0
1532257640964103 0 1 -1 4 -3 -10 1 4
1532257640987051 -2 -2 -4 -3 -2 -12 -3 0
1532257641002004 -2 -2 -5 -2 0 7 -4 -3
1532257641031922 -1 -2 -3 0 2 5 -3 -1
1532257641054860 0 2 4 0 -7 -34 1 1
1532257641076801 -1 -4 1 2 0 4 -13 -1
1532257641106722 -2 -2 -3 -4 -25 -34 1 1
1532257641136642 -2 -3 -3 -1 7 -4 -1 -2
1532257641159580 -1 -2 -1 -2 2 -9 -5 -2

1532257641189500 0 -1 -1 3 -3 -14 -8 -2
1532257641204461 -1 -2 3 -1 -2 -37 4 -1
1532257641227399 -2 -2 -2 -7 -14 -68 -12 -6
1532257641249340 -5 -1 -2 3 10 13 5 -1
1532257641272279 2 5 9 3 -1 33 7 3
1532257641294220 -2 -4 -5 -8 -3 22 -8 -4
1532257641309180 -2 -4 -5 -4 -4 4 -1 -2
1532257641324140 -1 -1 -5 -3 -18 -12 1 -3
1532257641347079 -1 -3 3 1 -7 -10 -6 0
1532257641362039 -1 -3 -3 -2 2 -17 -3 0
1532257641383980 -1 -2 0 -2 5 29 3 -1
1532257641406919 -6 -1 0 -4 -19 -42 -10 -3
1532257641421879 -17 1 2 -2 -7 -28 2 -1
1532257641444818 -8 0 -1 -1 -18 -35 -2 0
1532257641466759 -6 -1 -1 1 4 -1 3 -2
1532257641481719 -4 -2 -2 0 12 4 -3 -2
1532257641504657 3 -2 0 1 4 -8 1 1
1532257641526599 -6 0 -2 1 -1 11 3 -1
1532257641541570 0 -2 -3 -3 -3 -25 -11 -2
1532257641564498 1 0 -1 -2 1 4 1 0
1532257641594418 -3 -1 2 -1 0 13 1 -1
1532257641609378 1 -1 0 2 0 4 -2 0
1532257641632316 -3 -2 0 1 -1 3 8 0
1532257641654258 0 1 0 -3 -4 -8 -3 -3
1532257641669217 -1 -2 -2 -3 3 8 1 -2
1532257641692156 -2 -2 0 0 -3 -4 -3 -1
1532257641707116 2 0 -1 3 0 -15 -1 1
1532257641722077 -1 0 0 -1 -4 -8 1 0
1532257641752007 -1 -2 -2 0 -2 -3 -1 -1
1532257641773955 -2 0 -2 -3 -3 -9 -9 -2
1532257641789908 2 0 0 0 0 -1 -2 -1
1532257641811836 -3 -1 -1 -1 -1 6 -2 -2
1532257641849735 -1 -1 -3 0 -1 -4 1 0
1532257641871676 -1 0 0 0 1 2 -2 1
1532257641901596 0 -1 -2 -1 0 -4 -1 -1
1532257641924535 1 -1 -1 -2 0 -3 -1 -1
1532257641946515 0 0 0 0 -1 0 0 0
1532257641961475 -1 -2 -1 -2 -2 -2 1 0
1532257641984414 -3 -2 -2 -1 -2 1 0 -2
1532257642007352 0 -1 -2 -1 -1 -1 -1 0
1532257642022312 0 -1 0 0 0 1 0 0
1532257642044254 1 -1 -3 -2 -1 -1 0 -2
1532257642067192 -3 -1 0 -2 -2 1 -1 0
1532257642089542 -3 -1 -2 -1 -1 -2 -1 -1
1532257642104503 0 0 -1 -1 0 0 -1 -1
1532257642127442 0 -1 -2 0 -1 0 -2 -4
1532257642149383 1 -1 -2 0 -2 0 1 -2
1532257642164343 -1 -1 -2 -2 -1 1 0 -1
1532257642187282 -1 -1 -2 -2 -1 -1 0 -2
1532257642217202 4 -2 -1 -2 -1 0 -1 -1
1532257642239143 -2 0 0 -1 -1 0 -1 -2
1532257642284023 -2 -3 1 -2 -2 -1 -2 -2
1532257642307029 -3 -1 -1 1 -1 -1 -2 -2
1532257642336949 -1 1 -2 -1 0 -1 -1 -1
1532257642351909 -1 -1 -3 -2 -2 -1 0 -1
1532257642374848 -2 -2 -2 -1 0 -1 -2 -1
1532257642389808 -1 -2 -3 0 -3 1 0 1
1532257642404768 -1 -2 -1 1 -1 -1 0 -1
1532257642426708 -2 0 -1 1 -3 -2 1 0
1532257642449648 -1 -2 -1 -2 3 1 0 0
1532257642464608 0 -3 -2 -1 0 5 -1 -1
1532257642494528 0 -2 -1 -2 0 -4 -5 0
1532257642517472 0 1 0 1 0 -3 -4 -2
1532257642532441 0 -1 -1 -2 6 -4 -11 1
1532257642547387 0 -1 -2 -1 2 15 4 0
1532257642569327 -2 0 -2 0 -2 -7 5 -1
1532257642592267 -2 -1 0 -1 -3 -3 3 -1
1532257642622186 0 -1 -2 1 -1 -2 -10 -2
1532257642644127 2 -1 0 -1 -5 -6 7 -1
1532257642659088 -2 0 -1 -1 -4 -4 -3 -1
1532257642682026 0 -2 -1 -3 -1 7 -2 0
1532257642703968 0 -1 -1 0 2 -4 -2 -1
1532257642719925 -3 -1 -1 -1 1 2 -1 0
1532257642749845 -3 -2 -3 -1 -3 0 3 0
1532257642786746 0 -1 -1 -2 -2 -6 -4 0
1532257642809685 0 0 -1 0 1 -1 -5 -1
1532257642854564 -1 -2 -2 -1 0 -3 -7 -1
1532257642876506 1 0 0 0 -3 -1 -3 0
1532257642891466 -1 0 -1 -1 17 4 -1 -1
1532257642914404 -1 0 -1 0 8 3 -3 -1
1532257642937344 -1 -3 -1 -2 -2 3 -3 -1
1532257642952304 -2 -1 -1 -1 -5 -2 -19 -3
1532257642974245 -1 -2 -1 0 -2 -5 -7 0
1532257642997184 -2 -2 0 1 -4 0 5 -1
1532257643012143 -2 -1 -2 0 4 1 -1 -1
1532257643034084 0 -2 0 -1 -7 1 3 -1
1532257643071983 0 -1 0 -1 2 2 5 -1
1532257643109882 -4 -1 -1 -2 -5 -1 0 -1
1532257643146783 -3 -1 -1 -1 2 2 2 1
1532257643169722 0 0 -2 -2 -2 -2 0 -4
1532257643184699 -4 -3 -1 0 0 -3 -20 0
1532257643214602 0 1 -2 0 0 1 3 1
1532257643229562 -1 0 0 0 -3 -1 -2 -1
1532257643251504 -1 -1 0 -2 -2 1 2 -2
1532257643266463 0 0 -2 0 -6 2 -16 -3
1532257643297382 -2 -2 -2 -1 2 -3 0 0
1532257643319322 1 -1 0 -2 0 -2 3 -1
1532257643334282 -1 -1 -2 -2 -1 1 0 0
1532257643364202 -1 -2 0 0 -1 -2 -10 -1
1532257643379163 0 -2 -2 1 -3 3 4 -1
1532257643402102 -1 -2 0 1 2 1 -1 -1
1532257643432020 -3 0 -1 -2 -3 -1 -1 -2
1532257643446981 -3 -1 -1 -2 -1 1 1 1
1532257643461941 -3 -1 -2 1 1 -1 0 -2
1532257643491861 1 -2 -1 -1 2 2 -2 -1
1532257643506820 0 -1 0 0 -1 -1 -3 -3
1532257643529760 -1 -1 -2 0 -1 2 9 -3
1532257643559680 -1 -3 -2 -2 -2 -2 -3 0
1532257643574639 -1 -1 -1 1 -2 0 1 -2
1532257643596581 -3 -3 0 -1 1 -1 3 -1
1532257643619519 -2 0 0 0 -3 -8 -3 1
1532257643643455 -1 -1 -1 -1 -1 -1 -3 -2
1532257643664399 -2 -1 -2 -1 -1 -3 -1 -1
1532257643679359 -1 1 -1 -1 -2 -1 -1 -1
1532257643709279 -1 -1 -2 0 -1 -1 -5 -2
1532257643732218 -1 -1 0 -3 0 0 2 -2
1532257643747177 -1 -1 -2 -1 -2 -4 -4 0
1532257643769120 0 -1 1 -1 0 0 -1 0
1532257643807017 -2 -1 -2 -1 -2 -3 -4 -1
1532257643828959 0 -1 -2 0 -1 0 -1 -1
1532257643851899 -2 0 -1 -2 -6 -6 -3 -1
1532257643866857 0 -2 -4 -19 -1 5 0 -2
1532257643896778 -5 -6 -4 -9 -12 40 -4 -2
1532257643919728 -1 -3 1 -4 -20 -26 -1 -1
1532257643941669 1 3 7 22 -10 -32 -11 -1
1532257643994527 2 6 11 18 53 -19 -15 -8
1532257644032426 -1 -2 -1 7 -15 2 -5 3
1532257644069327 1 2 5 22 24 -1 5 -1
1532257644159103 -2 -1 -8 -11 -2 -7 -7 1
1532257644234886 -1 0 -9 -36 -24 -9 0 -2
1532257644331626 4 1 0 -7 20 10 -9 0
1532257644346586 -9 0 4 -4 7 -22 -19 1
1532257644376506 -2 -11 -9 -1 -1 20 4 -10
1532257644429365 -11 23 -3 7 4 6 3 -1
1532257644498198 -2 1 0 5 5 2 3 -1
1532257644549045 9 -1 2 -2 1 -2 3 7
1532257644586943 -11 12 5 -1 -2 0 -2 -4
1532257644624842 15 -7 3 0 1 -3 -3 8
1532257644676704 -7 0 -3 -2 -1 5 -3 -1
1532257644767474 -1 2 -4 -1 -1 -1 2 -1
1532257644827301 -1 7 6 0 0 -12 -3 1
1532257644872180 1 -4 3 2 1 -4 8 3
1532257644939002 0 0 1 0 3 19 -4 -4
1532257644991864 -3 -4 -4 -12 -56 -17 -5 -1
1532257645068672 0 -2 -2 -2 2 13 -1 0
1532257645119519 -2 -1 -4 -2 -3 -2 0 1
1532257645149438 0 -2 1 1 -3 -3 -1 0
1532257645164399 -1 -1 -1 -1 -2 2 2 0
1532257645224239 -3 -4 -3 -4 -3 -1 -3 -3
1532257645269119 -3 -2 2 0 -2 -36 -8 0
1532257645336938 0 -2 -4 -3 1 30 4 -2
1532257645374836 -1 -5 -6 -5 -2 -2 -5 -1
1532257645404756 -2 1 4 1 -5 -13 0 -3
1532257645471585 1 7 3 7 4 -39 7 1
1532257645517461 -2 0 -3 8 6 -27 -6 -3
1532257645531418 -4 0 1 0 8 -31 8 -1
1532257645599236 12 -2 -1 1 -3 -1 -9 3
1532257645644116 0 -1 -2 -3 -2 -1 -13 -3
1532257645659076 13 -5 -4 -2 -3 -27 -10 -1
1532257645688996 12 1 -2 -2 -21 -3 -7 5
1532257645711934 -11 -1 -1 0 5 7 -7 -3
1532257645749834 1 -1 0 -1 1 -2 7 -2
1532257645771775 -13 1 1 -2 0 0 -3 -4
1532257645816655 -1 0 -2 0 2 -12 -6 -4
1532257645846575 14 0 0 1 0 6 1 0
1532257645952292 12 -2 0 0 0 -1 6 -1
1532257646027092 1 1 0 2 2 -14 -3 -1
1532257646071972 24 -1 0 0 2 5 -6 5
1532257646116852 -12 -1 -1 -2 -7 -10 7 -1
1532257646139790 4 -1 -1 -2 -8 -18 -13 1
1532257646169718 2 2 0 -1 -2 10 0 0
1532257646184671 6 1 0 -1 4 23 -9 -4
1532257646214591 -16 0 -1 -1 0 3 0 1
1532257646236545 5 -1 -1 -1 -4 -19 -7 6
1532257646267449 -13 -3 -2 -3 -5 -6 -7 0
1532257646312329 -15 -3 -2 -2 -3 2 4 0
1532257646342250 6 0 0 -1 0 -7 -19 -2
1532257646379150 -5 0 0 -1 4 14 -1 -1
1532257646396105 0 -1 -1 0 15 7 8 2
1532257646411065 -11 -2 -2 -1 1 20 8 -8
1532257646432009 -4 -1 1 1 2 5 -3 -4
1532257646461929 0 -1 -2 -2 -6 -2 -23 -3
1532257646476889 9 -1 1 0 3 -1 -3 3
1532257646506809 -6 -3 -1 -2 2 22 3 2
1532257646544707 -7 -2 -2 -1 -1 -3 9 1
1532257646574627 6 -2 -3 -2 -1 16 -5 -1
1532257646604548 -6 0 -1 0 0 -15 -10 -3
1532257646634468 -7 -1 -3 -2 -1 19 1 -3
1532257646649428 2 -3 -1 -2 -1 -8 6 -7
1532257646664388 0 -1 -1 -1 -2 -2 -1 0
1532257646687326 -5 -1 -2 0 -3 -26 -12 0
1532257646717246 -5 -1 -1 0 -3 -5 -6 0
1532257646747166 -10 0 1 -1 -1 12 1 -2
1532257646769108 1 -2 -2 -4 0 -7 13 2
1532257646793044 -5 -5 -3 -1 12 7 6 -2
1532257646836927 -1 0 -1 -4 -18 -25 -9 0
1532257646859865 -5 -8 -5 -3 12 50 -13 -6
1532257646926687 0 5 0 16 16 -26 -4 -2
1532257647001486 1 1 -1 -10 -54 -46 -11 0
1532257647062324 1 2 -1 8 17 -4 2 2
1532257647174025 -4 -3 -11 -10 -18 -26 -6 -4
1532257647339582 -5 -13 -27 1 8 -5 -3 -4
1532257647601882 0 -3 -3 -4 9 21 -5 -1
1532257647842249 10 -3 5 1 0 -6 12 3
1532257647864180 -6 -2 -1 0 6 -24 3 -1
1532257647909060 7 -4 -1 0 8 2 0 2
1532257647932006 -13 -10 -3 -3 -4 -17 -4 -3
1532257647946966 -47 0 6 3 4 10 -4 -19
1532257647999824 10 -3 -13 -5 -2 -11 -4 2
1532257648029744 7 -1 -1 8 -1 3 -10 4
1532257648044704 -20 -1 6 1 -14 -12 14 -2
1532257648081606 2 7 4 0 2 1 -12 0
1532257648096566 -7 -2 -2 1 -2 12 -3 -3
1532257648111526 7 1 0 0 5 12 10 3
1532257648134464 -4 -3 3 -1 4 3 -4 0
1532257648164384 1 -3 2 -2 -29 -45 8 -1
1532257648202284 -4 0 2 -2 -6 -20 3 1
1532257648247163 15 -4 -1 4 -4 -14 8 4
1532257648293040 -2 2 5 -1 2 8 -4 -1
1532257648321963 -3 -1 3 -4 -4 0 8 -5
1532257648351883 0 -4 -3 -2 0 4 -2 -7
1532257648374822 5 2 0 1 -5 -15 -7 9
1532257648396763 -17 -5 -2 -3 0 3 0 -15
1532257648411723 9 6 -1 -2 1 -4 2 13
1532257648434662 107 7 0 0 0 -1 1 12
1532257648449622 -22 4 1 1 2 1 6 -7
1532257648471563 47 8 3 1 1 -1 -2 -1
1532257648494502 18 -4 -5 0 0 -1 -3 -15
1532257648524422 41 -1 -5 -4 -4 -3 4 5
1532257648562320 -15 -9 -1 -4 -6 -7 -8 -5
1532257648614182 3 5 1 0 -1 1 -3 4
1532257648674022 2 0 2 1 -1 2 7 5
1532257648696960 2 -3 -1 -2 3 4 4 2
1532257648719899 2 3 8 -1 -19 -42 -5 0
1532257648741840 2 -2 0 -2 -8 -19 -13 -3
1532257648764779 1 3 1 5 11 -5 4 4
1532257648786728 5 6 1 0 0 -33 -1 0
1532257648801680 -6 -1 -3 1 14 -19 -7 -6
1532257648831601 1 0 -7 -3 1 -16 1 1
1532257648861520 -6 -2 -2 0 10 13 -4 1
1532257648884459 3 -6 -4 -5 5 -8 -2 -1
1532257648899419 4 7 5 0 4 19 -14 -1
1532257648937317 -10 -3 -4 1 0 5 4 1
1532257648967237 -12 -1 -2 1 1 -8 12 0
1532257649004139 -2 -3 -2 0 2 -12 0 0

1532257649042037 3 -1 0 1 -3 -17 3 0
1532257649079936 -2 -1 -3 -1 -5 -4 -5 -5
1532257649109857 -5 1 -2 0 0 8 5 -2
1532257649131797 -27 0 0 0 -8 -11 -7 -6
1532257649169696 4 -1 -1 -1 -2 4 9 -2
1532257649184656 4 -1 -1 -1 0 11 -5 -1
1532257649199616 -1 -3 -1 0 1 5 -4 -2
1532257649214576 1 -2 1 1 2 3 -4 -1
1532257649244496 -4 -1 0 0 -3 -10 -3 -2
1532257649267435 -4 -2 -1 -2 -1 -3 -2 -1
1532257649282395 -3 -2 -3 0 1 0 -1 -1
1532257649312315 -1 0 0 -2 -2 -1 0 -2
1532257649334256 -2 -2 0 -3 -1 -2 -4 -1
1532257649349216 -1 0 -2 -2 -2 -3 -2 -1
1532257649364176 0 -1 -1 -1 -1 -1 -1 -3
1532257649387114 0 0 -1 -1 0 -1 -2 -2
1532257649402075 0 -1 -2 -1 -2 0 -1 -2
1532257649439974 -1 0 -2 -1 -2 1 -1 -1
1532257649454951 2 -1 0 0 -1 -1 -3 -6
1532257649469893 -6 -2 -2 -1 0 -1 -1 0
1532257649491842 1 -1 0 -1 0 -2 -3 -1
1532257649514773 -1 -2 -1 0 -2 -3 -1 -1
1532257649536721 -1 1 1 0 -2 -1 -1 -3
1532257649559659 -3 0 -3 -1 1 0 2 1
1532257649589579 0 -3 -1 -3 -2 -2 -1 -1
1532257649604540 0 0 -1 -1 -3 0 -2 -1
1532257649619499 -2 -1 0 -1 0 -2 -4 -2
1532257649664379 -2 0 -1 -2 0 0 -1 0
1532257649694299 -1 0 -1 -1 -2 -2 -1 -1
1532257649747158 0 -1 -2 0 -1 -2 0 0
1532257649784059 0 0 0 0 -2 0 -1 -3
1532257649813980 -3 -1 -2 -1 0 -3 -3 -2
1532257649836918 -2 -1 -2 -2 0 0 -2 0
1532257649851889 -1 -1 -1 -1 0 1 -1 -2
1532257649874817 -2 -1 -1 -2 -2 0 0 0
1532257649911718 -1 -1 -1 0 -2 -1 -1 0
1532257649934657 -1 -1 0 -1 0 0 -1 -2
1532257649956598 0 -1 -2 -2 -2 0 -2 0
1532257649971558 -1 -2 -1 -1 -1 1 -1 -2
1532257650001478 -1 -1 0 -3 -1 -2 -2 -1
1532257650024417 0 -2 0 -1 -1 -2 -1 -2
1532257650047392 -2 0 -2 -1 -1 -1 -1 -1
1532257650077312 -1 -2 0 -1 0 -1 -2 -1
1532257650092272 -3 0 -1 -1 -2 -1 0 -1
1532257650122192 -2 0 -2 -1 -2 0 1 0
1532257650137181 -1 0 1 1 0 0 -1 0
1532257650152159 -1 -3 0 1 -1 -1 -1 -1
1532257650189058 -2 -2 -1 -1 -1 -1 -1 -2
1532257650204002 0 -1 0 1 -1 0 0 -1
1532257650219960 0 -1 -2 -1 -2 0 0 1
1532257650234919 0 0 0 0 -1 -2 -2 -3
1532257650256862 -1 0 -1 -2 1 0 -1 -3
1532257650309720 -2 -1 -2 -3 0 -2 0 -1
1532257650324695 -3 -1 -1 0 0 0 -1 -1
1532257650339640 -2 -3 -2 -2 -2 -1 -1 0
1532257650354600 -1 -1 -1 0 -3 0 -2 -1
1532257650384520 1 0 0 -1 -1 3 3 0
1532257650414439 -1 -1 -3 -2 -2 -1 -1 -1
1532257650444359 1 -2 0 -2 0 -2 1 -2
1532257650459320 -1 -1 -1 -2 0 -2 -6 -1
1532257650489239 0 -1 0 -1 -2 2 0 -1
1532257650504200 -3 -2 -2 -1 -1 -2 -3 0
1532257650527138 -1 0 -1 -1 -1 -2 2 0
1532257650557058 -1 -1 -2 1 -1 0 -2 -3
1532257650572018 -2 0 -1 -2 -3 -1 -2 0
1532257650586978 0 -1 -1 -2 0 0 -1 0
1532257650601953 -1 0 -2 1 -2 -1 -1 -1
1532257650639837 -1 -1 -1 -2 -1 -1 -1 -1
1532257650654797 -1 -3 -1 -1 -1 -2 1 -1
1532257650676738 -1 0 0 -2 -1 -1 -1 -1
1532257650706658 -1 -1 -1 -1 -1 1 -1 -1
1532257650729597 -1 0 -2 1 0 -1 -2 0
1532257650751538 0 -2 -2 0 -1 0 -2 -1
1532257650766498 0 -2 -2 -1 -2 0 -1 1
1532257650789438 -1 -1 -2 -2 -1 0 -2 0
1532257650819357 -2 1 0 -1 -1 -1 0 0
1532257650842296 0 -2 0 -1 0 1 -1 0
1532257650857255 -1 -1 -2 -1 -1 -1 -1 -1
1532257650887175 -2 -3 -1 1 -1 -2 0 -2
1532257650909117 0 -2 -2 -2 -3 -3 -1 -2
1532257650932055 -1 -2 -2 -1 -1 -1 -1 -1
1532257650947015 -1 -1 -1 0 1 0 -2 0
1532257650969958 -1 -2 0 0 0 -3 -1 -1
1532257650999874 -1 0 0 -1 -1 1 0 -1
1532257651014834 1 -1 -2 -2 -1 0 0 0
1532257651036776 -2 -2 -1 -1 0 -1 -1 1
1532257651089633 0 0 -1 -1 0 -1 -1 -2
1532257651111575 -3 -2 -2 0 1 0 -1 -2
1532257651134514 -1 1 -2 -1 -2 -1 -2 -1
1532257651156455 -3 -1 0 1 0 -1 -1 0
1532257651209314 11 1 -2 -3 -1 -2 -2 4
1532257651239233 -18 -1 -1 -2 -1 -1 0 -3
1532257651284114 -8 -4 -1 -1 0 1 0 -2
1532257651336973 -3 -2 -2 -2 0 0 -2 -5
1532257651359911 6 -1 -1 -2 -1 -1 -2 -2
1532257651381853 -6 -1 1 0 0 -1 -2 0
1532257651435709 0 -1 0 -2 -1 0 -2 2
1532257651464631 4 0 -1 -3 0 0 2 -2
1532257651501532 5 -2 0 -3 -2 -2 0 4
1532257651547410 -1 0 -1 1 1 -2 -2 -3
1532257651600269 3 0 1 -1 -1 -4 -2 -4
1532257651629192 -7 1 0 -3 -2 -1 -1 -3
1532257651667089 -2 0 -1 0 -1 0 -2 1
1532257651689031 2 -2 0 -1 0 -1 -1 -2
1532257651711970 8 0 0 -1 0 -2 0 -3
1532257651749868 22 -2 -1 -2 -3 -1 1 -1
1532257651794748 -7 -1 -1 0 0 0 1 1
1532257651809708 -1 -1 -1 -1 1 0 0 -1
1532257651839629 -12 0 -2 0 0 1 1 1
1532257651869556 9 -2 0 1 -1 -1 -2 -2
1532257651929388 4 -1 -1 0 -3 -2 -2 0
1532257651968285 2 -1 0 -1 2 5 2 0
1532257651989228 0 -4 0 -1 -3 -3 0 -2
1532257652057047 -1 1 -1 8 5 -3 -2 0
1532257652116887 -3 -1 -6 -15 -12 -16 7 -1
1532257652139825 1 2 1 10 2 -35 -1 0
1532257652176727 -1 -1 4 19 8 -6 -3 0
1532257652199666 -1 -1 -6 -18 1 17 0 0
1532257652244546 0 -1 0 3 11 -7 -1 4
1532257652304386 -1 -2 -5 -3 40 12 0 -3
1532257652319346 -3 -2 -5 -11 1 -1 -3 -4
1532257652409115 0 -1 2 11 0 5 -6 -2
1532257652484902 -1 -1 -6 -3 1 10 2 -2
1532257652596616 -2 -4 -2 1 0 -5 1 -8
1532257652672401 5 -5 -9 -10 -5 -4 -4 2
1532257652747201 8 -15 -18 -2 -1 12 2 -1
1532257652777122 -2 0 -2 1 4 6 2 1
1532257652926721 0 0 1 -1 0 -2 -1 0
1532257652949660 0 -3 -2 -1 2 -3 1 5
1532257652986562 5 -4 -2 0 -1 7 -7 -2
1532257653129180 0 -2 -1 -1 6 33 -2 -4
1532257653189020 -1 -4 -9 -4 -12 6 0 1
1532257653301718 0 0 -1 -4 -7 -17 -2 -1
1532257653467276 4 -3 -3 0 -3 0 -2 -5
1532257653512156 6 -1 -1 -3 1 0 0 1
1532257653542076 -2 -1 0 -1 -3 0 0 -2
1532257653578982 -7 -1 1 2 2 5 0 0
1532257653594935 -5 -8 -6 -2 -3 -4 0 0
1532257653669735 2 0 -3 -1 1 30 14 3
1532257653691676 1 2 0 -1 13 -5 14 3
1532257653706636 0 -2 1 -4 -5 -42 -22 2
1532257653744535 -2 0 -3 -6 1 -31 -6 -3
1532257653774466 1 1 2 -1 -2 -15 7 1
1532257653797393 -16 0 -1 -4 6 102 15 -7
1532257653819335 0 4 3 2 5 44 -22 -1
1532257653842273 13 -6 -10 -6 -15 -88 -33 -2
1532257653872193 3 -2 -4 -1 8 -23 7 -1
1532257653896129 1 -2 0 2 10 33 -8 8
1532257653924055 0 -1 -2 -1 -26 -25 1 1
1532257653939014 9 -5 0 -3 15 7 8 11
1532257653962951 14 -4 -2 1 9 -6 -1 5
1532257653999852 5 -3 0 1 0 -3 1 -7
1532257654021792 9 0 -1 -1 1 -2 4 5
1532257654059692 -4 1 1 1 9 -2 1 4
1532257654089612 -5 -6 -2 0 -8 12 0 -2
1532257654111553 -43 0 0 1 -2 -20 -13 -26
1532257654179388 8 0 1 0 2 0 16 7
1532257654202311 15 1 -2 -2 14 11 -2 7
1532257654254172 -6 -1 0 0 -4 -7 0 7
1532257654269131 3 -1 -2 -2 -8 -36 -66 0
1532257654284092 17 0 -3 -4 1 21 11 10
1532257654323985 -7 -5 -4 -4 -11 -33 -23 -15
1532257654336950 -3 -1 0 -1 -1 8 4 -4
1532257654366870 17 1 -2 -4 -8 -8 -7 3
1532257654389809 2 4 -3 0 1 17 20 -1
1532257654449649 13 0 -1 0 -14 -60 3 -6
1532257654503505 -1 -1 -1 -2 -2 -4 -5 3
1532257654517468 -2 -1 -2 -1 -1 38 28 1
1532257654562348 10 2 -1 -3 -34 -13 0 1
1532257654584290 -9 0 1 -1 -3 3 6 0
1532257654607228 2 0 -1 1 0 4 1 -2
1532257654622211 -18 2 0 1 -2 -5 -15 -1
1532257654644129 -5 0 -1 -2 5 4 4 -9
1532257654667067 13 0 0 -1 2 9 13 3
1532257654689009 3 -1 -1 -1 0 2 4 2
1532257654704980 3 -2 -2 -2 -1 -2 -5 -1
1532257654719940 4 0 -1 -1 0 0 -24 -1
1532257654749846 8 2 -2 0 -3 -3 -7 3
1532257654764822 -2 -2 -1 -2 -2 -1 6 1
1532257654794727 -2 1 -1 0 0 3 -5 -3
1532257654809686 11 -2 -2 -4 -2 -9 0 5
1532257654824646 -17 -1 0 -1 -1 3 3 -2
1532257654861548 1 0 -3 -2 -1 -2 4 4
1532257654876508 0 -2 -1 0 1 16 17 4
1532257654891468 3 2 -1 0 -1 2 15 0
1532257654929366 -1 0 0 1 1 -2 5 0
1532257654944326 12 0 0 -1 1 7 12 6
1532257654967265 -5 -1 -1 -1 0 12 -1 -1
1532257654989206 5 -2 -1 -1 -2 2 -8 -5
1532257655004166 -1 -2 -1 -2 -3 -3 -2 -2
1532257655019127 -3 -1 -1 0 0 -4 0 -1
1532257655042065 0 0 1 -2 2 12 5 0
1532257655057025 1 0 -2 -1 -5 -2 28 2
1532257655093926 1 -2 -2 -1 -2 -8 -10 -2
1532257655116865 1 -1 -7 -18 -2 -39 -4 -6
1532257655154764 -1 -7 -17 -59 -14 -17 -11 -2
1532257655184683 1 3 17 34 27 25 3 1
1532257655206625 0 -4 -10 -7 14 -8 -6 -4
1532257655229563 -2 -2 -3 -24 48 12 -6 -4
1532257655274444 -2 -3 4 -7 -44 32 -9 -5
1532257655304363 -1 -1 -7 -11 21 33 0 -1
1532257655432021 1 0 -2 11 7 3 -3 0
1532257655484881 0 2 1 2 18 13 -8 -2
1532257655529761 -1 2 -2 -7 -8 -9 -11 -4
1532257655551712 -7 -7 -14 -9 7 41 3 -2
1532257655611542 1 11 18 1 2 3 -1 -2
1532257655649441 -5 -8 18 3 1 14 1 -2
1532257655702308 4 1 9 10 6 6 1 4
1532257655717259 -3 -1 -17 0 4 -4 -2 -1
1532257655762139 0 5 7 4 14 30 2 0
1532257655814000 -5 6 -4 -1 -5 -11 -5 -1
1532257655837937 0 -3 3 -2 3 -8 1 1
1532257655866859 -3 6 -7 -2 3 13 -1 -2
1532257655896779 -13 -6 -1 -5 -3 16 -3 -2
1532257655941659 -1 -6 -1 -2 0 18 -3 0
1532257655979557 0 1 -8 -3 -4 -30 0 0
1532257656017456 1 -2 -2 1 1 -5 -2 -3
1532257656039398 -3 -4 -1 5 3 -5 2 0
1532257656077297 -3 4 -3 -3 4 17 2 3
1532257656107216 -1 -3 -2 -1 -2 3 -3 0
1532257656188998 -2 -4 0 -12 -9 -10 -2 0
1532257656264795 12 -1 1 3 5 -8 2 4
1532257656309675 -3 -13 -17 -10 -7 11 -3 -3
1532257656339596 3 1 -3 -2 -1 10 3 0
1532257656371510 0 -1 -6 0 3 6 -5 -3
1532257656429355 -7 -4 -4 -1 1 -7 1 0
1532257656467254 -14 -1 -1 1 -2 -9 0 0
1532257656497174 -9 -5 -2 -3 -2 5 -3 -9
1532257656527093 12 8 2 0 -1 -3 -6 -6
1532257656542054 1 0 1 0 -1 0 5 6
1532257656557014 -3 -1 -2 -3 -3 6 -4 0
1532257656578955 -21 4 1 0 2 9 1 -19
1532257656609873 34 -3 -4 -1 -1 -8 3 16
1532257656624832 1 8 7 0 3 -3 -3 -4
1532257656646774 8 3 2 2 4 2 3 12
1532257656684672 21 -1 4 0 -3 -1 1 10
1532257656699632 -4 -5 -6 1 5 4 1 -2
1532257656759472 3 10 7 8 8 9 19 -1
1532257656774432 -3 2 12 1 3 0 -9 -2
1532257656827291 -1 0 5 -5 -10 -18 -5 -2
1532257656842251 -7 -6 -4 -18 -14 -49 -3 -4
1532257656864192 -1 -4 -8 -15 7 69 1 -3
1532257656887131 -10 -2 -2 11 13 -42 -3 -1
1532257656909072 5 10 9 6 6 52 7 3
1532257656932011 19 -4 -15 -1 4 -27 -13 -1
1532257656953952 -3 -2 -5 2 7 19 -3 -2
1532257656976891 5 2 2 -2 18 41 3 0
1532257656999829 -12 1 -1 -1 -3 20 11 1
1532257657014790 -14 -4 -2 -4 1 17 -1 -2
1532257657044710 0 2 0 -1 -4 -39 -4 -2
1532257657074630 2 -2 1 0 4 5 -2 1
1532257657096571 -7 -2 -1 -2 -3 8 4 -2
1532257657111531 -1 0 0 0 -1 -14 -1 0
1532257657149429 4 0 -1 -1 -1 2 -5 1
1532257657164389 -2 -2 1 0 -1 -7 4 -1
1532257657187328 -4 0 -3 -1 0 -7 -5 0
1532257657209270 1 0 1 0 -2 0 -7 -2

1532257657224230 -2 -2 -2 -1 -1 -7 0 0
1532257657247168 -3 -2 0 -2 2 26 1 0
1532257657269110 -1 1 0 1 -1 -5 -2 -1
1532257657284069 0 -1 -1 0 -2 9 -2 0
1532257657307008 0 0 -2 -1 -1 -10 -2 -3
1532257657329952 0 -3 -2 -1 -2 3 -1 -2
1532257657351889 -2 -1 -3 -1 -3 -2 -2 -1
1532257657374827 6 -4 0 1 -1 -1 -2 -1
1532257657404747 -4 -1 -1 -2 0 0 -2 -1
1532257657419712 -1 -1 1 1 2 22 -2 0
1532257657434688 2 -1 0 -1 1 -1 2 1
1532257657479546 -2 -1 0 -2 -2 -4 -2 -1
1532257657509467 -3 0 -4 -2 -1 3 -1 -1
1532257657532406 0 -1 0 -1 -2 -3 -3 -2
1532257657577285 -1 -2 -1 -1 -1 -4 0 -1
1532257657592245 0 -2 -2 -2 -2 -2 0 0
1532257657622166 -3 -1 -2 -2 4 20 -1 -1
1532257657637125 -2 -2 -3 -3 2 5 -1 0
1532257657652085 2 -3 1 0 -5 -17 -2 0
1532257657674027 0 -1 -1 1 -6 -7 -2 1
1532257657704944 1 0 -2 -1 -6 -32 -2 0
1532257657726886 1 -2 -2 -2 0 0 1 -1
1532257657756805 -3 -1 -1 -1 -2 3 -3 -3
1532257657771765 -1 -2 -1 0 -1 -11 -2 -1
1532257657801685 -1 -1 -3 -1 5 11 -1 -1
1532257657833600 -1 -1 0 0 -6 0 -2 -2
1532257657861525 -1 -1 -1 -1 0 -4 1 1
1532257657876485 -1 -3 -3 -3 1 14 -1 -3
1532257657891445 -2 -2 0 0 1 3 0 0
1532257657914384 -1 -2 -1 2 2 -5 1 -2
1532257657944304 -3 0 -1 0 -2 -3 -2 -1
1532257657967243 -2 -2 -1 -2 -2 9 -1 -2
1532257657989184 0 -2 -2 -3 -4 -10 -2 -2
1532257658004143 -1 -2 -1 0 -1 -10 -2 -1
1532257658027083 1 -1 -1 -1 -1 -4 0 0
1532257658049024 -2 -3 -1 -3 -2 2 -1 0
1532257658071963 -2 0 -3 -1 -6 -26 -3 0
1532257658094901 -1 -2 -1 0 1 3 0 0
1532257658139781 1 6 1 -2 -4 3 -1 -1
1532257658161723 -1 -4 -2 0 -5 -2 0 -4
1532257658184661 -2 -3 -1 -1 -1 4 1 -1
1532257658206603 -1 -2 -1 -2 4 17 1 -1
1532257658229541 -4 -2 -2 0 0 -1 0 -1
1532257658252497 -1 -1 -2 -1 -1 15 0 0
1532257658267440 -1 -3 -1 0 -4 -3 -1 0
1532257658289381 0 0 -1 0 -10 -16 -4 -2
1532257658312320 -2 -3 -1 0 -3 -2 -3 -1
1532257658334261 1 -1 0 -2 -2 4 0 0
1532257658357200 -1 -1 -2 -2 -4 2 0 -1
1532257658387120 -1 1 -1 0 -1 0 0 0
1532257658417040 -2 -3 0 -2 1 11 0 -2
1532257658446960 -2 -1 -2 -1 2 -6 -1 -2
1532257658461920 -1 0 0 0 -1 -4 -1 -1
1532257658529738 -2 -1 1 -2 -2 -4 -2 -1
1532257658559659 -1 -2 0 -1 -2 3 -1 0
1532257658589579 0 0 1 0 -5 -7 -1 -2
1532257658619499 1 0 -1 -3 0 -4 -1 -1
1532257658649419 0 0 1 -1 3 14 2 1
1532257658709258 -1 -2 -1 0 -3 -6 -2 0
1532257658724218 -2 0 -1 0 -2 -9 0 -2
1532257658762117 -1 -1 -1 1 -1 -1 -1 0
1532257658806997 -1 -2 -2 -2 0 1 -1 -1
1532257658829936 -2 0 -1 0 1 -1 -1 -1
1532257658866837 -2 0 -2 -1 -3 -4 -2 -1
1532257658919696 0 0 0 -1 0 -1 -1 0
1532257658971557 -4 0 -1 -1 -6 -9 -2 -1
1532257659002484 0 -2 -2 -3 -5 -4 -2 -1
1532257659032394 -1 -2 -1 1 -3 -3 -3 -2
1532257659047355 -1 -2 -1 -3 -5 3 0 0
1532257659084256 -1 0 0 -1 3 2 -1 -2
1532257659122154 0 0 -2 -1 -1 1 1 0
1532257659197952 -1 -2 -1 0 4 -2 -2 -2
1532257659234853 -5 -13 -6 -24 -1 21 2 -3
1532257659286715 -2 2 1 6 -2 28 9 0
1532257659301674 -3 -1 -1 -5 9 -50 -8 -2
1532257659361514 -2 -1 -8 -4 37 -30 -3 0
1532257659414373 5 4 4 3 8 6 4 2
1532257659437311 -2 -5 -3 -6 13 14 -3 -5
1532257659542032 3 4 -9 -17 -8 -17 16 3
1532257659706592 -6 -3 -9 -24 25 5 -8 -5
1532257659812309 1 -3 8 15 7 1 -4 -2
1532257659924010 -2 -13 -10 0 -4 7 0 -6
1532257659969887 -11 5 10 -1 -4 -2 -2 -6
1532257660081589 2 0 2 4 7 3 1 2
1532257660202283 0 2 0 1 -7 -7 -11 0
1532257660292026 2 1 1 -6 -3 -7 -8 1
1532257660419684 -1 1 7 -7 -12 -25 -4 -1
1532257660539364 1 2 -1 -1 0 -2 0 0
1532257660607183 -1 -1 -1 -1 0 -3 1 -2
1532257660659044 -3 -4 -1 -2 -1 -11 -1 -1
1532257660689962 -4 1 -2 -1 -4 -3 -1 0
1532257660734856 -2 -1 0 6 2 8 1 0
1532257660756783 -2 4 2 -5 -9 -8 0 -1
1532257660794682 -2 -1 -1 -3 4 -55 -7 -3
1532257660816623 -1 1 1 1 4 -1 0 0
1532257660831583 2 -1 0 0 -8 7 -2 0
1532257660854522 -1 -1 -1 -1 -12 50 -1 -3
1532257660907380 2 2 6 7 9 -11 -13 2
1532257660922341 -5 -5 -2 -4 -3 -5 -2 -4
1532257660952265 -1 -2 -5 -6 -11 52 -3 -1
1532257660982180 0 -1 -3 -2 17 35 2 -1
1532257661027060 0 -1 -2 -1 -24 -8 7 -2
1532257661049002 -3 -2 -2 -2 0 2 -1 -3
1532257661079919 -5 0 -1 1 7 49 5 -1
1532257661094879 -3 -4 -3 -3 -4 -30 -12 -3
1532257661110836 1 -2 0 -1 0 11 17 4
1532257661139759 10 -1 0 1 6 15 3 0
1532257661154719 2 -1 1 4 11 7 8 2
1532257661176660 -3 -3 -1 0 4 9 4 2
1532257661199599 -1 -1 0 1 -4 11 0 -3
1532257661214558 -3 0 0 -1 11 56 -2 0
1532257661244479 -10 1 0 0 3 35 -2 2
1532257661267418 7 2 -2 0 2 3 -2 6
1532257661289359 -2 -1 -4 -2 -5 -31 -16 -3
1532257661312298 6 2 2 2 6 15 12 7
1532257661327257 -11 1 0 -1 1 -6 -6 -4
1532257661342218 -7 1 0 3 1 -47 4 -2
1532257661357178 -7 -2 -3 -2 -11 -55 -21 -8
1532257661403059 3 0 -1 -1 0 25 -1 10
1532257661417017 0 -2 2 -2 -1 17 3 -4
1532257661439956 -16 -1 1 -1 0 11 9 -2
1532257661461897 12 -3 -2 -3 9 32 7 -2
1532257661484836 2 0 -2 0 5 21 -2 2
1532257661514756 13 1 -1 0 -1 -6 0 4
1532257661536698 -13 1 0 1 0 1 -1 -2
1532257661566618 -2 -10 -2 -3 -8 -36 -5 1
1532257661581578 0 0 0 -2 -3 -9 11 0
1532257661604516 -6 -3 -2 -4 -12 -13 3 -3
1532257661649396 0 -1 -1 1 -6 -21 -6 2
1532257661679316 -23 3 0 0 -1 26 2 -3
1532257661694276 0 -1 0 1 -4 -22 0 -2
1532257661732175 -3 -1 -1 -2 0 2 2 -6
1532257661754116 15 -2 -2 -4 -11 33 2 1
1532257661798996 -5 1 -2 0 -3 2 -9 -3
1532257661821935 -2 -1 -1 -2 -3 -5 4 1
1532257661836895 7 -1 -1 0 0 0 13 2
1532257661851871 -10 -2 -2 -2 0 16 19 -2
1532257661866815 -8 -1 -1 -3 -4 25 -8 -6
1532257661904713 -7 1 -2 -2 2 12 2 -1
1532257661934633 -4 1 -2 0 0 -11 1 0
1532257661964554 -7 0 -2 -2 0 -19 2 1
1532257661994473 11 -2 -1 -1 -6 -3 -3 1
1532257662032372 8 1 0 0 -5 -9 5 1
1532257662107172 20 1 -1 -10 -18 16 -2 1
1532257662130125 2 -1 0 -1 28 44 -7 -1
1532257662144073 -2 -2 2 7 19 -25 1 1
1532257662173993 1 -3 2 -5 22 33 -4 -3
1532257662205908 1 0 -3 -19 -47 -1 9 1
1532257662234830 -5 -4 -4 -7 3 6 3 -3
1532257662264751 1 0 0 -11 0 -1 3 2
1532257662286692 -3 -1 -5 -19 -45 51 6 0
1532257662422329 -4 -2 -4 8 -43 -13 -22 -9
1532257662527049 -3 0 -6 2 3 0 -6 -1
1532257662571928 -5 -3 9 -9 -7 -39 -3 0
1532257662631769 -3 -18 -2 -4 -2 2 -4 0
1532257662714548 0 -12 2 -1 9 -15 0 -2
1532257662759428 2 6 -9 3 12 15 3 2
1532257662827247 5 4 6 7 -8 -9 5 4
1532257662931966 3 -12 -16 0 3 -19 -9 -3
1532257662976846 -6 0 1 -6 -2 4 0 -3
1532257662991806 1 -1 -4 -4 0 -11 -6 0
1532257663021727 -7 -6 0 0 7 12 -16 -8
1532257663081580 2 1 -6 -2 -8 -39 -1 -2
1532257663134425 -13 5 -7 0 0 -10 2 -2
1532257663157364 -5 2 0 -4 1 7 -2 -2
1532257663247124 2 3 1 0 8 -40 4 -2
1532257663298985 -4 -3 -7 1 0 -4 0 -2
1532257663344862 6 0 -2 -1 -4 10 2 0
1532257663359822 -1 -1 -9 0 -5 -3 -4 -2
1532257663381763 -5 -2 0 -2 7 10 -6 -3
1532257663411684 11 -1 2 1 5 14 -3 3
1532257663426644 1 -2 -1 1 -4 1 -1 1
1532257663471524 0 -1 -3 -4 -2 -3 10 2
1532257663494462 -5 -2 -2 -2 2 2 -5 -4
1532257663524382 0 0 -2 3 0 7 -3 0
1532257663584222 -5 1 0 0 1 -7 -23 -5
1532257663622121 -27 -3 -4 -2 -4 -5 -28 -35
1532257663673982 26 3 -1 1 2 -1 9 19
1532257663719860 0 1 -5 -1 -1 -2 21 1
1532257663794659 -1 -6 0 -3 -2 -1 2 -3
1532257663869460 -2 -1 0 4 -4 25 0 -3
1532257663892398 0 -2 2 -3 2 25 0 -1
1532257663922318 -1 0 3 0 -1 18 10 1
1532257663952238 -1 -4 -3 0 3 -28 -18 -3
1532257663974179 -2 2 -2 -2 4 21 -1 -2
1532257663989139 1 2 2 2 5 -40 -3 -1
1532257664012078 2 6 -2 -1 -17 -38 0 3
1532257664049977 -1 -3 -6 -1 -26 1 -14 -1
1532257664079897 -2 1 -1 -4 -1 -27 -9 -3
1532257664109817 -3 -3 5 -3 -7 -8 -5 -4
1532257664146718 -8 -1 -3 -1 5 9 10 -4
1532257664176638 4 1 -2 0 -1 -2 -18 -3

1532257664191598 -5 0 0 2 -2 3 -14 -6
1532257664229497 -4 -3 0 -3 -2 2 1 -4
1532257664252436 0 2 0 0 -1 -8 1 1
1532257664282355 -5 1 -4 -1 1 14 1 -2
1532257664304297 -7 -1 -1 1 -2 -2 0 -3
1532257664327235 -5 -2 -2 0 4 2 8 -6
1532257664342195 -8 1 -1 0 2 5 1 -1
1532257664364137 -2 0 0 -2 0 -9 -2 -2
1532257664402035 -3 1 -2 -1 1 1 -8 1
1532257664416995 1 -3 -2 -2 -1 1 -17 -4
1532257664439951 -2 -1 1 0 2 1 6 1
1532257664469854 2 1 -1 0 -1 0 2 -1
1532257664491796 3 -1 -1 0 2 8 -5 -2
1532257664536675 -3 0 -3 0 -1 4 3 0
1532257664559614 -2 1 0 0 -1 -2 -1 -1
1532257664574582 -3 -2 -2 0 -1 -3 1 -1
1532257664611483 -1 -1 0 -3 0 1 -1 -1
1532257664634422 -1 -2 0 1 0 1 1 -1
1532257664649382 1 -1 0 -1 -3 1 0 -1
1532257664672326 0 0 -2 -3 -1 0 0 1
1532257664709227 -1 -2 -3 0 0 -1 1 -2
1532257664732166 -2 -2 -2 -1 0 0 -1 -1
1532257664754107 0 0 0 0 -1 -1 -2 -2
1532257664769068 -3 0 -1 -2 0 0 0 -3
1532257664792006 0 -2 1 -1 -4 0 0 -1
1532257664813947 -1 -2 0 0 0 0 -3 -2
1532257664836886 -2 1 -1 -1 -3 3 6 1
1532257664851845 2 -3 0 -2 0 -2 -3 0
1532257664881765 -1 -1 -1 -2 0 -2 -3 -2
1532257664896726 -2 -2 -3 0 -1 -1 -5 -3
1532257664911686 0 1 -1 -1 -1 0 6 -2
1532257664949584 -1 -1 0 -1 0 -2 -2 1
1532257664964544 -2 0 -1 -3 0 -2 -4 0
1532257664987489 -2 -1 1 -1 1 -3 -2 -2
1532257665010422 -1 -2 -1 -1 -2 -1 -5 -1
1532257665032362 -1 -2 -2 -2 -1 -4 -3 -1
1532257665054304 -3 -1 -2 -3 0 -1 1 0
1532257665084224 -2 -1 -2 0 -2 0 -2 -2
1532257665122123 0 -2 0 0 -1 0 0 -1
1532257665152058 0 -3 -2 -2 0 -2 0 1
1532257665181963 -2 -1 1 -2 -2 1 0 0
1532257665196941 -1 -1 0 0 -2 -2 -8 -1
1532257665211902 -2 -2 -2 -2 1 0 -2 -1
1532257665302965 0 -2 -1 -1 -2 -1 4 0
1532257665339854 0 -1 -1 -2 -2 0 1 0
1532257665369774 0 0 -1 0 -1 -1 1 -2
1532257665391714 0 -3 -1 -1 0 1 -1 0
1532257665414661 -1 -1 0 -1 0 -1 -1 -1
1532257665451555 -1 -2 -1 0 0 -2 -5 -2
1532257665474494 -1 -2 0 0 1 0 -1 -1
1532257665497432 -1 -3 -1 1 -1 -2 -6 -2
1532257665512392 -1 -1 -2 -3 -2 -1 -2 -1
1532257665534334 0 -1 -2 0 1 -2 2 1
1532257665564254 0 -2 -1 -3 -1 0 -4 -1
1532257665594174 -2 -2 -2 0 -1 -1 -4 -2
1532257665617112 0 -2 0 1 -3 -1 0 0
1532257665632072 -1 1 1 -2 -1 0 -3 -1
1532257665662002 -1 0 -1 1 -1 0 6 -1
1532257665676952 0 -4 -1 1 0 -1 -2 -1
1532257665699891 -1 0 -2 -2 -1 -3 -1 -1
1532257665736793 -1 -1 -1 -2 1 -1 -4 0
1532257665751776 -1 -1 0 0 -1 -2 -1 -4
1532257665789651 -1 0 -1 -3 -1 -1 -3 0
1532257665811592 -3 -2 0 -2 -1 -1 -2 0
1532257665826552 -2 -2 -2 -1 -1 0 -1 -2
1532257665841512 1 1 -1 -2 1 0 -1 1
1532257665879411 -1 -1 0 -1 -2 -2 -6 -1
1532257665902355 -1 0 -1 -2 -1 -1 1 -2
1532257665954211 0 -2 0 -1 -3 0 1 -3
1532257665984131 -1 -2 -2 -1 -2 -2 0 0
1532257666014051 -1 0 -2 0 0 -1 -3 0
1532257666029011 0 0 2 -2 -2 0 7 0
1532257666051950 1 0 -2 -1 0 0 -4 0
1532257666081869 -1 -1 -1 0 0 -1 -1 -3
1532257666096829 -1 0 -2 0 -1 -2 -2 1
1532257666126750 -1 -1 -1 -1 0 0 -1 0
1532257666149688 -2 -1 0 0 -2 -1 -2 0
1532257666164648 -1 1 0 -1 -1 -1 2 0
1532257666179608 -2 -1 -1 -1 -1 -1 -1 0
1532257666201549 2 0 -1 0 -3 -2 -3 -3
1532257666269368 -1 0 -1 -1 0 -2 0 -1
1532257666292309 -1 -2 -1 -2 0 0 -1 1
1532257666322227 -1 -2 -1 -2 -2 -2 -1 0
1532257666359128 0 -1 -1 1 -1 0 -2 -1
1532257666397026 -1 -1 -2 -2 0 1 1 0
1532257666494765 0 -2 -1 -1 0 0 -2 -1
1532257666554606 -1 0 -1 -1 -1 -1 0 0
1532257666576546 -1 -1 0 -1 -1 0 -2 -1
1532257666606476 -1 1 -3 -1 -3 -1 0 1
1532257666629405 -1 -2 -1 -2 0 -2 -7 -1
1532257666659326 -1 -2 1 -1 -2 0 -3 -2
1532257666689245 1 -1 1 -1 0 0 7 -1
1532257666742104 0 0 -1 -2 -2 -1 -1 -1
1532257666764045 -2 0 1 -1 0 0 -1 0
1532257666801951 -2 -2 0 -2 -1 -1 0 0
1532257666846824 -3 -1 -2 -2 -3 -1 -1 -2
1532257666869763 -1 -2 -3 -1 0 0 3 0
1532257666899683 -2 -3 0 1 1 0 -1 -1
1532257666921624 -1 0 -2 -1 0 -1 -2 -1
1532257666989443 -2 1 0 -1 0 -1 -1 -1
1532257667027341 -2 -1 -3 -3 -3 -2 -2 0
1532257667042301 0 1 0 -1 -1 0 -1 -3
1532257667079202 -1 -1 0 -3 -1 -3 1 -2
1532257667102141 -1 -2 -1 -2 0 -2 -3 -1
1532257667147021 -2 -3 -2 -5 -3 0 -2 0
1532257667169962 -1 0 -1 -1 -2 -1 0 0
1532257667229800 -1 -2 2 8 -7 -5 4 -2
1532257667281661 -1 -1 -2 2 34 1 -4 -1
1532257667296621 -2 -1 1 3 35 -7 -14 -4
1532257667341504 1 -2 -3 -16 -23 5 9 0
1532257667356461 1 0 -3 -11 -21 -1 8 3
1532257667417298 -2 -2 -7 -24 -71 7 10 -1
1532257667543960 3 2 14 21 14 4 -8 1
1532257667649676 -2 7 -8 4 -36 4 -5 -2
1532257667694558 -3 4 -4 -9 -8 6 6 -2
1532257667792295 12 -1 3 9 12 9 3 1
1532257667874077 1 -3 -5 0 1 5 -3 -2
1532257667934914 19 -1 -8 -5 -9 -38 0 5
1532257667986776 3 -1 4 -2 -4 -2 -2 -8
1532257668174274 5 -1 -2 -1 -9 -19 -1 3
1532257668227133 0 -1 -1 2 14 3 6 1
1532257668264034 13 -1 -5 -8 8 10 -5 -6
1532257668301936 1 4 0 2 0 -40 -3 0
1532257668339831 -5 -6 -4 -3 -16 21 3 -1
1532257668376733 -6 0 1 -3 27 16 2 2
1532257668451532 -2 -4 -6 -1 0 0 -1 -1
1532257668512370 -1 3 4 1 1 0 4 1
1532257668534311 -1 2 9 -2 -5 1 4 1
1532257668557250 -3 -2 1 0 -2 -7 -4 -3
1532257668617090 -3 0 -1 -1 -3 -27 -44 -7
1532257668669957 2 1 0 -1 1 -13 -10 -1
1532257668691890 -1 -1 1 -1 -2 -2 -2 -2
1532257668729790 6 2 -1 0 -1 -16 -32 -2
1532257668796610 4 6 8 16 -2 -31 -2 0
1532257668842488 -5 -7 -2 0 -16 5 3 0
1532257668894349 0 2 -2 2 7 -9 0 0
1532257668917287 -2 -1 0 -6 -19 -5 37 -1
1532257668932247 0 -4 -2 -5 -14 -7 -14 2
1532257668954189 -5 -2 -1 -4 -2 5 -3 -1
1532257668984109 -2 -2 1 0 10 48 2 0
1532257669008045 -4 -6 1 -7 -15 -25 -9 -4
1532257669022008 -21 -1 0 2 8 -8 12 2
1532257669044945 0 0 -2 0 0 43 3 0
1532257669074866 -1 -7 -4 -5 5 -13 -32 -7
1532257669096807 0 -1 1 -1 1 3 4 -3
1532257669126727 -3 -4 -4 2 12 27 -7 -5
1532257669149665 3 3 0 1 3 1 -4 -4
1532257669179586 -4 -4 -3 -1 1 -16 -8 2
1532257669194546 2 1 1 -1 -9 7 3 -1
1532257669224466 -2 -2 -5 1 5 14 -6 -1
1532257669247405 1 -1 -2 -3 -29 -13 -2 0
1532257669269346 -2 -1 -2 -1 -9 -7 -16 -2
1532257669292284 2 1 -1 -1 -3 -31 -11 -2
1532257669307245 0 -1 -2 -4 0 1 5 -5
1532257669322205 -2 0 0 -1 3 8 4 1
1532257669344146 -3 -1 -2 1 6 24 3 -1
1532257669367085 3 -1 0 1 1 6 -3 1
1532257669403986 1 3 0 1 9 9 -13 0
1532257669426925 -2 1 -2 -1 3 9 -2 -2
1532257669456844 -2 2 0 -1 -5 -11 11 -1
1532257669479783 -4 -2 1 1 10 15 -1 0
1532257669494743 0 1 -2 0 -2 -36 -10 1
1532257669516685 0 -3 -1 -2 7 -2 -7 -2
1532257669554583 -4 0 -1 -2 -12 -14 -4 0
1532257669569543 -3 -1 0 -1 -1 20 7 -2
1532257669599463 -3 -1 0 -4 -12 -2 27 0
1532257669629387 1 -3 -3 -5 -6 -3 0 -3
1532257669652322 -7 1 0 2 3 -2 -13 -2
1532257669667281 -2 -6 -2 0 -9 -22 1 2
1532257669689223 0 -2 -4 -1 10 29 -3 -3
1532257669704183 1 0 1 0 9 10 -4 2
1532257669727122 -4 1 -2 -1 -8 -10 -18 -4
1532257669749063 1 1 1 0 -6 -8 -2 -2
1532257669786962 0 0 -1 1 -1 10 5 -3
1532257669816882 -2 -2 -1 -2 5 0 -9 -1
1532257669831841 -1 -1 -1 0 -2 -17 -5 -2
1532257669869741 2 -3 0 -2 2 -2 -8 -1
1532257669891682 -1 -1 -1 -1 1 29 -1 -1
1532257669914620 -4 -3 -2 -1 3 4 2 -2
1532257669929580 0 -2 -1 -1 -1 9 2 -2
1532257669944540 0 0 -2 1 -2 -3 13 0
1532257669974460 -6 0 -1 0 0 3 7 0
1532257669997400 -2 -1 -1 0 2 -3 2 0
1532257670012359 -1 -1 -1 -1 -2 -2 -4 -1
1532257670042279 -2 -2 -1 -3 0 3 7 -1
1532257670057239 -4 1 0 -2 0 3 6 0
1532257670079180 -1 -1 -1 -1 -3 -30 -4 -1
1532257670102119 -5 0 -2 1 -2 9 -8 -2
1532257670117079 2 -2 -1 -1 -1 3 -1 -2
1532257670146999 0 0 0 -2 0 4 -14 -3
1532257670168941 2 -3 -1 -3 -2 -3 -3 -1
1532257670191879 -5 2 -1 -1 -2 -4 -5 -2
1532257670214817 -1 0 -1 -1 1 7 -1 0
1532257670229778 0 -1 1 1 1 30 5 0
1532257670244738 3 -3 -2 -1 1 12 -16 -3
1532257670259698 -1 -3 -1 -1 -3 -17 1 -2
1532257670296598 -3 -4 -2 -4 -8 -14 10 0
1532257670319537 0 1 -2 0 -1 3 -2 -1
1532257670334498 -1 0 -1 -1 -3 4 -2 -3
1532257670379378 2 3 14 8 -2 10 -12 1
1532257670402316 -3 -2 -10 -4 -8 6 4 -1
1532257670432236 -4 0 4 12 -28 -11 -1 -1
1532257670469138 1 -2 -7 -12 -1 -2 0 0
1532257670499058 -1 -3 -2 14 38 9 1 0
1532257670515019 -7 -3 -2 -19 53 -7 -10 -7
1532257670574854 1 4 14 22 35 46 6 3
1532257670634695 1 1 3 -6 -18 11 -1 0
1532257670664615 1 1 8 13 16 18 11 5
1532257670724454 -3 -3 -6 3 0 1 -12 -4
1532257670754374 -1 2 1 -1 -7 -12 -4 -1
1532257670816210 0 1 1 1 -20 -61 -11 -5
1532257670964812 -2 -6 -10 4 2 -16 7 2
1532257671024653 -3 -1 -2 -11 3 -25 -4 -2
1532257671152311 -9 -3 0 0 10 42 -4 -1
1532257671197191 3 -1 -12 -6 -8 -2 -1 -11
1532257671227110 7 3 -15 3 4 4 1 8
1532257671257031 -5 4 10 -4 -6 1 -1 -11
1532257671286950 -24 2 7 2 2 21 1 -7
1532257671309889 20 -1 -6 -4 -11 -29 -2 4
1532257671355767 -27 1 3 0 0 18 -2 -13
1532257671466471 -38 -8 -4 -3 -17 6 2 -17
1532257671534289 2 0 4 5 15 -4 -5 0
1532257671557228 -3 -3 1 2 9 32 -2 0
1532257671587147 14 2 5 3 0 -12 -4 5
1532257671632027 8 -3 -3 0 -8 -9 4 -1
1532257671661948 -2 2 -1 5 -2 17 -1 -2
1532257671676908 1 1 -2 -1 1 3 -1 -2
1532257671699846 2 -2 -1 -2 -3 -6 -1 0
1532257671736748 2 -1 0 -2 -2 -8 -2 -3
1532257671751714 -4 -1 -2 -2 -2 7 2 -2
1532257671781628 -13 -2 1 0 3 -3 1 -2
1532257671796606 -4 4 3 0 -3 -3 -2 -2
1532257671811548 -9 -4 -5 -2 -1 0 -1 -3
1532257671857425 -5 -4 -3 0 -1 -6 -2 0
1532257671894327 -7 0 2 0 -1 -4 -4 -5
1532257671924246 9 1 4 -3 -5 -4 -2 3
1532257671947185 -20 0 0 -2 -6 -2 -2 -3
1532257671969127 3 0 -6 -3 0 3 -2 3
1532257671992065 2 -2 -1 5 7 0 6 1
1532257672014007 0 -2 0 5 4 21 -1 1
1532257672029964 1 0 -1 -2 2 6 3 -1
1532257672066865 0 2 -6 -1 14 49 0 -1
1532257672081826 0 1 2 2 8 -60 -2 -1
1532257672096784 2 -3 -9 0 1 12 3 0
1532257672126705 4 -1 -6 -3 -13 -34 1 2
1532257672141665 -1 2 1 -1 5 12 2 -1
1532257672164603 -2 -3 -1 -4 14 52 6 1
1532257672186551 1 1 -5 -4 13 -16 -4 0
1532257672209490 -3 0 -1 -5 -4 32 0 -4
1532257672232429 -5 -3 2 -2 -9 -4 6 -2
1532257672262349 1 -1 1 0 -10 -24 1 0
1532257672292269 -1 -4 -1 -3 -7 -5 2 -2
1532257672329170 1 -1 -3 -3 1 8 1 -3
1532257672352109 1 -3 -1 -1 -1 7 -1 -2
1532257672374050 0 -1 -1 -1 1 32 2 -1
1532257672389010 -2 -1 0 1 -3 -12 -3 -1

1532257672411980 -1 1 -1 3 3 -4 -10 -3
1532257672434919 -2 -3 2 -2 -4 -34 -14 -1
1532257672449879 0 -1 -1 -2 1 0 3 1
1532257672471820 1 -1 -3 -4 2 -6 3 0
1532257672501741 3 -2 -1 -2 -4 0 -13 0
1532257672531659 -2 -1 -1 -1 2 5 -1 0
1532257672554598 -2 0 -2 -2 -1 5 6 -1
1532257672569559 -3 -1 -2 -1 -5 -7 0 -3
1532257672584518 -1 -2 -1 1 2 -7 -1 -2
1532257672614438 1 -1 -2 0 1 2 1 0
1532257672637377 0 -1 -3 -1 -1 0 -1 0
1532257672652338 0 0 0 -1 -2 -5 -19 -2
1532257672696482 0 -2 -1 -1 -2 -3 -1 -1
1532257672712438 -1 -1 -1 -1 0 -2 -1 -2
1532257672749340 0 -1 -2 -2 -1 3 0 1
1532257672764299 0 -2 -1 -2 -5 -20 0 -1
1532257672787239 -2 -2 1 0 2 5 -6 -2
1532257672809180 -2 -1 -2 1 0 2 -1 -1
1532257672824140 -1 -2 -3 0 -1 1 1 0
1532257672847078 -1 -3 0 -1 -1 1 0 0
1532257672869027 -2 -1 -3 -1 -2 0 -1 -3
1532257672884978 0 -1 -1 -1 -1 0 0 -1
1532257672906919 -3 -2 -2 -1 1 -2 -1 -1
1532257672929857 0 -1 -1 -1 1 0 -2 -4
1532257672951824 -2 -1 -1 -2 -2 1 1 0
1532257672966817 1 -3 -2 -3 -2 0 -2 1
1532257672996737 -1 -2 -1 0 -1 -2 -6 1
1532257673019675 -1 -2 -2 -2 -2 -1 -2 0
1532257673041618 -1 -2 -1 -2 -2 -1 0 -2
1532257673056577 -2 0 1 -1 0 -1 0 0
1532257673086497 0 -1 -2 0 -1 -1 1 -1
1532257673109436 -1 0 -1 0 -1 -2 -1 -2
1532257673124396 -1 0 1 -1 -1 -1 -1 -3
1532257673147343 1 0 -1 -2 -2 -1 0 -1
1532257673169284 -1 -3 -3 -1 1 -1 -1 0
1532257673184244 -2 -2 -2 0 -2 -1 1 -2
1532257673199211 -3 0 0 1 -1 0 0 -1
1532257673222150 -1 -1 -1 -1 -1 0 -2 0
1532257673237110 -1 -2 -1 0 -1 0 -1 -3
1532257673259051 -1 -2 -2 -1 0 -2 -1 -1
1532257673281990 -1 -1 -2 0 0 -1 0 1
1532257673296949 0 -2 0 -2 0 -1 -2 -1
1532257673319889 1 0 -2 -1 -1 0 1 0
1532257673341830 0 1 0 0 -2 -1 -2 0
1532257673356789 0 -1 0 -1 -2 0 -2 0
1532257673386710 0 -1 -3 0 0 -1 -2 0
1532257673409648 0 0 -1 -1 -1 0 -1 -1
1532257673424609 -3 0 -1 0 -1 -1 -1 -2
1532257673477467 -2 -1 1 -3 -1 -2 1 0
1532257673492427 -2 0 0 -1 -3 -1 -2 -2
1532257673514368 0 -1 0 -1 -1 -2 0 1
1532257673537306 -1 -1 -1 0 -1 -1 -1 -2
1532257673575207 -2 0 -1 -1 -1 -1 -1 1
1532257673612107 0 0 0 -3 -1 0 -1 -1
1532257673656987 -2 -1 -2 -2 -1 1 -1 -2
1532257673686907 -1 -2 -1 0 -2 1 -1 -1
1532257673709846 0 -1 0 0 0 -1 0 -1
1532257673746747 0 0 -1 -1 -3 -1 -2 0
1532257673761706 -1 -1 1 1 -1 -1 0 -1
1532257673776667 -1 0 -2 -3 0 -1 -1 -2
1532257673806587 2 0 0 -1 -1 -2 1 0
1532257673836524 -2 -3 -1 -1 -1 0 -1 0
1532257673867424 -2 0 -1 -2 -1 -1 0 -2
1532257673927264 -2 0 0 -1 -1 -1 -2 1
1532257673957184 -1 -2 0 2 -1 -1 -2 -1
1532257673994085 -2 -2 -2 -2 0 -2 0 -2
1532257674038966 -1 -1 -1 -1 -2 -3 -1 0
1532257674069883 -2 -1 0 -3 -1 0 -1 -2
1532257674121743 0 0 -2 -1 0 0 -1 -2
1532257674166624 0 -2 -1 -1 0 -2 -1 0
1532257674204523 1 0 -2 0 -1 -2 -2 -2
1532257674242422 -1 -1 -1 -2 -1 -2 -1 0
1532257674287302 -4 0 -2 0 -1 -1 -1 -2
1532257674309243 -1 1 -1 -1 -1 0 0 -1
1532257674339163 -1 -1 -1 -1 -1 0 -2 -4
1532257674362102 0 -1 -3 0 -1 0 -2 0
1532257674399002 0 -1 -1 0 -2 -3 1 -3
1532257674429920 -2 -2 0 -1 -4 -1 0 -1
1532257674496742 -1 1 -1 -1 -3 0 -1 0
1532257674511702 -2 0 -1 -3 1 -1 0 -1
1532257674556582 -1 0 0 -1 0 -1 -2 -2
1532257674602459 -1 -1 0 1 -2 0 -1 0
1532257674639360 -3 -2 -3 -2 0 -1 0 0
1532257674662298 -2 0 -1 -1 1 1 0 -3
1532257674699200 -1 -3 -1 2 -2 0 0 -2
1532257674737098 -1 0 0 -1 -1 -1 -1 0
1532257674781979 -1 -2 -1 -1 -1 -2 -2 -1
1532257674834837 -1 -1 -2 -1 -1 -1 -1 0
1532257674849797 0 -2 -1 -2 1 -2 -1 1
1532257674886702 0 -1 1 0 -4 -1 -2 0
1532257674909637 -2 -1 -1 -1 -1 -1 -2 0
1532257674984437 -2 -1 -2 0 1 -2 -1 -2
1532257675022336 -2 0 -2 -2 1 0 -2 -1
1532257675164960 -1 0 0 0 -1 -1 0 0
1532257675216815 0 0 0 0 -2 -2 -2 -2
1532257675246735 0 -2 -1 0 -4 -3 0 1
1532257675276656 -1 0 -1 0 1 -2 -3 -2
1532257675314555 -2 -1 -1 -1 -1 0 0 -1
1532257675352471 -2 -1 -2 -1 -2 1 -2 -2
1532257675367414 -2 -1 -1 -1 0 -2 -2 0
1532257675389354 0 -1 0 -2 0 -3 0 -1
1532257675419275 -1 0 -1 -1 0 -2 1 0
1532257675449194 -1 -1 -2 1 -2 -2 -1 -1
1532257675472133 -2 -3 -1 -1 -2 -1 0 0
1532257675487094 -1 -1 -1 -1 -2 -1 -1 -1
1532257675517013 -3 -2 -4 -5 -7 0 -7 -5
1532257675539960 0 -1 0 10 6 57 7 1
1532257675554912 2 1 7 26 24 22 -9 -1
1532257675599792 -5 -1 -1 7 -19 -1 -1 -3
1532257675659631 1 -2 -4 -4 25 9 7 0
1532257675696533 0 -1 3 0 7 18 1 -1
1532257675734431 -3 -3 -1 -11 -32 10 -3 -1
1532257675779312 0 -2 -1 1 15 3 7 0
1532257675802250 -1 0 -1 -9 6 -2 -4 -2
1532257675847130 -1 0 8 0 56 25 -5 -4
1532257675981770 1 2 4 -4 -5 -3 -1 0
1532257676034629 10 0 1 0 -6 -1 9 5
1532257676064549 -3 -5 -2 -7 -8 2 -1 -1
1532257676124388 -6 -4 -3 7 -25 -21 0 -3
1532257676184229 -1 0 3 3 4 3 0 -1
1532257676364747 6 -6 2 -1 -1 2 -2 4
1532257676424586 -1 4 2 0 0 0 -1 -3
1532257676477444 5 12 -7 -1 -2 -6 -1 -1
1532257676642006 -3 -7 -2 -2 -9 -2 -1 0
1532257676739744 -3 -6 11 -2 0 -1 3 -2
1532257676791605 -2 0 -5 -5 3 -13 -13 -1
1532257676814551 0 3 1 -5 -13 7 -1 -1
1532257676867402 1 1 3 5 2 -1 -4 0
1532257676904303 0 -1 5 -3 -4 2 -4 -1
1532257677017001 -1 3 9 -1 -5 -2 0 -2
1532257677069861 0 -2 -6 1 -2 11 3 -1
1532257677144661 2 1 -5 -2 -1 -1 -1 2
1532257677166609 1 0 -4 -2 -4 -1 -1 -3
1532257677196522 0 -1 0 -1 2 3 0 -1
1532257677257367 -1 1 0 -6 2 13 0 -1
1532257677294261 1 -2 4 17 -24 -4 -6 -2
1532257677309221 -1 -1 -2 -9 7 -8 -6 -1
1532257677362079 -3 -1 -3 -9 -14 -13 -7 -4
1532257677385018 -3 -3 -3 -3 5 19 11 -1
1532257677421919 -1 0 -3 -2 10 15 -3 -3
1532257677444858 -1 -4 -2 -15 -30 -39 -4 -2
1532257677489737 0 1 -1 2 17 11 1 1
1532257677511679 -3 -2 -1 -2 -6 -15 -4 -2
1532257677534618 1 1 0 1 -11 -64 -7 -2
1532257677556559 -4 -1 -1 0 -3 -13 -3 -2
1532257677579498 0 -2 0 0 0 3 -4 -2
1532257677602437 -10 0 0 2 -7 11 -2 -2
1532257677617396 -1 -1 1 0 -7 -13 0 1
1532257677647316 -1 -1 1 -1 0 5 -3 -4
1532257677669258 -22 -1 0 -1 -4 8 -2 1
1532257677699178 -8 0 2 -2 -6 -10 -2 0
1532257677714138 -4 0 -2 -2 7 11 6 -3
1532257677737077 -2 -3 -2 -2 4 28 8 -3
1532257677759018 4 0 0 -1 5 8 4 3
1532257677781956 -5 -1 -1 0 1 11 -5 -5
1532257677796917 10 -1 -2 -1 0 -11 -9 4
1532257677834815 -14 1 -2 0 1 1 -7 -1
1532257677864735 -3 -1 0 0 3 11 12 -3
1532257677916596 3 2 0 -1 -4 -20 -3 2
1532257677931556 -2 -2 -1 -2 -5 -25 -7 -1
1532257677946516 7 -1 0 -1 0 -3 -2 1
1532257677969455 0 -1 0 -1 -5 -20 -2 2
1532257677984415 33 -2 -1 -2 -3 -16 -1 -2
1532257678007354 -13 -2 -3 -2 -4 -17 -3 -2
1532257678052234 -13 -1 0 -3 -12 -35 -4 -5
1532257678067194 -3 0 -1 2 -2 -9 -3 0
1532257678097113 26 -1 -1 -2 3 7 -4 -2
1532257678141994 -7 -1 -1 -2 0 5 2 -2
1532257678194852 -1 0 -2 0 -2 -7 -8 0
1532257678224772 10 -4 -1 -3 -1 13 0 0
1532257678261674 -9 -1 -2 -3 -1 -25 4 -2
1532257678306553 -2 -2 -3 -2 0 16 -5 -2
1532257678336473 -11 0 -2 -3 -4 -2 -4 -1
1532257678359412 -1 1 1 -1 0 -7 6 1
1532257678389332 23 0 -1 0 1 -6 -2 -2
1532257678412271 0 -2 -3 -2 -1 -5 -5 -2
1532257678427230 -11 -2 0 0 4 5 4 3
1532257678472111 -1 -1 1 0 -4 -6 -5 2
1532257678487070 -2 -1 -4 0 -1 3 -3 -1
1532257678509012 -2 -2 -2 -2 -1 1 3 6
1532257678546911 1 0 -1 0 -2 3 0 0
1532257678569850 -9 1 -2 -2 6 18 -4 -5
1532257678599770 -15 -2 0 -1 0 11 -1 3
1532257678614729 -1 0 -1 0 -4 -5 1 -2
1532257678629689 1 -1 -1 0 -1 3 -1 -2
1532257678666590 -4 -3 -3 -2 4 9 0 -1
1532257678689530 8 -2 -1 -3 -6 -8 1 3
1532257678727428 6 7 10 26 45 3 -5 5
1532257678749369 -7 -4 -6 -13 -66 -5 -17 -7
1532257678787268 -1 -1 4 -8 -12 -12 12 -2
1532257678809210 -4 -1 -2 4 -82 13 -9 -2
1532257678854090 -2 2 3 -3 0 -4 -7 -3
1532257678869049 -2 -4 -5 0 17 -5 -7 -4
1532257678906948 0 -1 3 4 -24 -23 -3 0
1532257678951827 1 1 1 -9 7 4 6 2
1532257679004687 -1 2 4 3 -34 36 2 0
1532257679056548 -3 -1 -2 -8 12 31 -4 -1
1532257679177225 3 5 0 12 28 28 10 4
1532257679222105 -1 -1 4 12 19 19 -1 1
1532257679252031 -1 -5 -1 2 0 6 -7 -4
1532257679326825 -1 -3 -4 5 -2 -38 -2 0
1532257679401627 -5 0 -3 -8 4 27 3 -2
1532257679469444 -2 -3 -1 0 12 35 0 0
1532257679589124 -7 -4 0 0 3 -4 2 -5
1532257679641983 -7 -6 -3 -3 -16 -27 -2 -2
1532257679686863 2 1 4 -1 -3 3 -3 -1
1532257679709801 -9 -6 -5 -3 -7 -1 -3 0
1532257679739722 -8 -1 -11 -6 -8 -12 4 -8
1532257679754682 4 2 3 -1 -9 -16 9 5
1532257679791583 -16 -1 2 -4 -8 -26 -24 -6
1532257679844441 8 1 -2 3 5 5 4 6
1532257679867380 -22 -3 -1 -2 3 24 12 -9
1532257679897300 3 -1 0 -2 5 -25 1 -1
1532257679919241 -3 3 8 -3 -11 -25 2 0
1532257679972099 4 -3 -6 0 5 5 0 -1
1532257680025956 13 -1 -3 -1 2 -13 2 0
1532257680061860 1 4 -2 0 2 10 0 3
1532257680084799 -11 -1 -2 0 -1 -1 -2 -4
1532257680121700 -4 -1 -1 -2 -1 -9 -2 -1
1532257680144638 -1 -2 -4 -1 -5 20 -2 1
1532257680166579 -6 -3 -2 -3 -7 -4 -9 -6
1532257680197497 -1 -1 0 -1 -1 -11 2 2
1532257680227417 -6 -3 -1 1 2 0 6 -1
1532257680264318 -2 -1 0 2 -1 1 -3 -2
1532257680310195 7 0 -1 0 -2 -7 -7 1
1532257680347097 6 0 -1 1 -1 0 4 4
1532257680377017 -4 5 3 1 1 -2 0 -3
1532257680406937 -23 -1 1 0 -3 0 -1 -5
1532257680444835 -6 -4 -2 -1 -2 -6 -9 -4
1532257680466777 -4 -8 -1 -4 -6 22 -2 -1
1532257680481737 4 -5 -7 -3 1 -42 -1 2
1532257680512654 -1 -2 -3 0 -2 -14 -18 -3
1532257680535594 1 -1 0 -4 -6 -10 -4 -2
1532257680556538 0 1 0 2 -4 65 -7 -3
1532257680579476 -2 0 3 0 8 -10 12 -2
1532257680602415 1 3 3 -1 -8 -55 -14 -1
1532257680617374 -8 -1 -6 0 6 -15 3 0
1532257680647294 -2 -3 1 -2 -8 -82 -9 -2
1532257680677214 -48 4 7 -1 5 5 3 -7
1532257680699156 -39 -6 -7 2 -5 12 -4 -22
1532257680714115 25 2 -3 -1 1 27 -1 10
1532257680737055 15 -2 -2 -5 6 39 -1 3
1532257680752015 11 -1 -2 -2 -5 9 13 4
1532257680766974 36 2 1 1 0 8 -3 17
1532257680781934 5 0 3 2 0 -4 -2 -1
1532257680820830 6 24 32 5 0 4 -5 -1
1532257680841774 -22 2 -5 -2 1 7 -9 -4

1532257680856734 17 -7 -1 -1 -2 0 17 -1
1532257680880671 -3 -5 -9 -2 -2 -1 -5 -19
1532257680901614 12 9 0 -1 1 -4 1 7
1532257680916590 9 -3 -8 -3 -2 -1 -4 -8
1532257680939513 -29 -10 6 -3 -6 -6 2 2
1532257680969436 -40 -5 -5 -3 -1 0 3 4
1532257680984392 24 -1 -6 -1 -1 -7 -12 -1
1532257681014313 3 -6 -5 0 0 -1 7 -8
1532257681044266 17 -5 -8 -2 0 -3 7 5
1532257681059226 -39 -5 8 2 2 3 -5 -12
1532257681082173 9 -21 10 1 1 -2 -5 16
1532257681097124 8 26 -2 -2 2 1 -5 3
1532257681121060 6 0 -3 1 0 4 3 8
1532257681142004 19 -5 -21 -3 -6 -11 -27 -16
1532257681163946 -4 42 -5 -3 0 2 0 10
1532257681179903 15 2 0 -4 -4 -8 -2 -4
1532257681201845 4 3 -6 0 0 -1 -2 -4
1532257681224783 4 8 0 -3 -3 0 6 1
1532257681246724 38 -19 -14 -1 -1 -2 8 17
1532257681276644 -20 13 1 -3 -5 -15 -28 -10
1532257681299582 36 5 -4 -1 -1 -8 -26 17
1532257681344463 67 28 8 -1 1 4 16 6
1532257681367448 -24 -8 1 -1 1 0 1 -15
1532257681404348 -21 -14 0 -2 -3 2 12 -13
1532257681427287 7 -5 -2 1 2 -3 -15 1
1532257681487127 -40 -21 -5 -2 -3 -1 -6 3
1532257681517047 43 9 8 -2 -4 -6 -10 7
1532257681546967 -20 -8 -3 -1 -2 -1 1 -13
1532257681591855 3 -1 -6 0 0 2 1 12
1532257681614786 -10 -6 -5 -1 -2 -6 -2 -4
1532257681666683 2 -3 -1 4 4 3 6 4
1532257681734502 9 -12 -1 -1 -2 2 4 24
1532257681772441 26 1 6 -4 -6 -10 -4 6
1532257681817320 -17 -45 -5 -4 -3 -1 6 -3
1532257681847239 -15 11 -4 1 1 3 9 -34
1532257681862200 4 -20 -2 -1 -1 3 12 -15
1532257681907079 -70 -11 -2 -3 -4 9 -8 -28
1532257681929020 22 107 4 1 -1 0 -5 10
1532257681959940 -6 -22 -1 -1 -1 6 6 -1
1532257681989858 26 4 2 2 2 -5 17 16
1532257682026760 62 49 2 1 -2 -19 1 18
1532257682086600 0 49 2 -2 -2 -4 -14 3
1532257682131480 -12 38 -2 -3 -2 -4 -9 -24
1532257682177357 8 35 -3 -3 -2 7 24 4
1532257682229218 26 -57 -2 2 0 4 4 29
1532257682267135 18 59 5 2 0 2 -6 -4
1532257682319028 4 -24 0 2 0 -7 -3 -1
1532257682341966 1 9 11 28 -17 -16 -9 0
1532257682416766 -3 -9 -3 0 4 -1 3 -1
1532257682461646 -10 -46 -7 -2 -3 -1 3 2
1532257682499544 -4 1 -3 -1 -3 -2 5 -1
1532257682544425 1 -5 -1 -2 1 -1 -4 -3
1532257682567363 -1 4 0 2 0 -1 -2 2
1532257682612275 -3 -7 3 0 -3 -2 -2 -2
1532257682634216 -1 -25 -8 -1 -2 0 -2 -1
1532257682664136 -16 -13 2 0 -2 0 0 -3
1532257682694056 0 -1 -2 -1 9 1 3 -1
1532257682710018 -7 -7 -5 -1 -2 0 -2 -1
1532257682723977 -7 -28 1 -1 -4 -1 -1 -1
1532257682754893 -18 -21 -6 -1 -1 -2 -3 5
1532257682776835 14 14 -5 0 -3 -1 0 4
1532257682799774 -4 -7 -2 0 1 -4 0 -2
1532257682829694 -7 -11 -9 -1 0 0 3 -3
1532257682851648 -20 -11 -6 -1 -2 -1 -1 0
1532257682866595 0 12 8 1 1 1 -1 4
1532257682896515 1 -2 -3 -1 -2 -1 -3 -2
1532257682911475 1 11 0 -1 -3 -4 0 -1
1532257682942392 1 10 1 0 0 -1 -1 -2
1532257682964333 0 2 0 0 -2 1 -2 -2
1532257682979293 -1 2 -1 1 -1 0 -2 -1
1532257683004228 2 -2 -3 0 0 0 0 0
1532257683024173 2 -2 -2 -1 -1 0 -1 1
1532257683047112 1 -2 0 1 -1 -2 0 0
1532257683069054 -1 -4 -1 -1 -1 0 -2 1
1532257683106952 -1 0 1 -1 -1 0 1 -2
1532257683121912 -2 -1 -1 0 0 1 -9 -3
1532257683159811 0 -1 -2 -1 0 -1 2 -1
1532257683196712 0 -2 0 -1 0 -2 0 -2
1532257683219651 -2 -1 -1 -2 -2 1 0 1
1532257683241594 0 -1 -1 0 -1 0 2 -1
1532257683271524 -3 -2 -1 -1 -2 -3 -5 -3
1532257683294451 0 0 -1 1 1 0 1 0
1532257683324371 0 -1 -2 -1 0 0 2 -3
1532257683347309 -2 -3 -2 -1 -1 0 5 -2
1532257683362270 1 -1 -2 1 -2 -2 1 -1
1532257683399170 -1 0 -1 0 0 -2 -5 -1
1532257683422110 1 0 -1 -4 -3 -15 -14 -4
1532257683452030 0 -2 1 2 2 -1 -4 0
1532257683474968 -2 -3 -2 4 -7 16 5 -1
1532257683504888 -3 -2 -1 -2 2 -13 -14 -7
1532257683519848 -3 -3 -2 -7 0 -25 -16 -5
1532257683541789 1 1 0 2 12 34 4 -1
1532257683571709 -2 -2 -3 -9 -15 -5 -3 -1
1532257683594647 0 -3 0 -1 7 2 -1 0
1532257683616590 0 3 -2 -2 5 5 0 0
1532257683646523 -1 2 -1 0 -12 -6 -2 1
1532257683669448 -1 -2 -3 -4 1 2 0 0
1532257683692387 -2 -1 -5 -6 -25 -5 0 -1
1532257683707347 -1 3 0 0 8 -14 2 -1
1532257683722307 -1 -3 0 1 -15 -5 -2 -1
1532257683744248 0 -2 -1 -4 15 1 0 0
1532257683767187 0 -3 -5 -6 -5 -2 0 -2
1532257683789128 -2 1 -1 -4 -7 -4 1 0
1532257683804088 -3 4 0 -1 -2 -4 -2 -2
1532257683834008 0 1 -3 -5 -7 -4 0 -1
1532257683856947 -1 0 -1 -3 0 1 -1 -1
1532257683886867 3 5 2 -2 -1 3 0 2
1532257683916786 -1 -2 -2 -1 1 3 1 0
1532257683946707 1 -1 -2 0 1 -2 -1 -1
1532257683969645 2 2 0 0 -3 -19 -2 1
1532257684021506 -2 1 -3 -4 -16 31 -13 -4
1532257684074365 -2 2 1 4 10 33 -13 -4
1532257684157145 2 7 5 13 50 26 15 2
1532257684216984 -1 0 0 -1 -1 -6 -5 -2
1532257684231944 -4 -3 -1 0 9 -10 -8 -3
1532257684269856 0 0 -1 -2 10 -17 -1 -1
1532257684299762 0 1 3 5 4 -6 1 0
1532257684336664 -1 -3 -2 -2 1 -1 5 2
1532257684351624 -1 -2 -4 -3 -3 -13 1 0
1532257684374563 -1 -1 -1 -1 -2 0 1 -1
1532257684389522 1 0 0 -1 -1 6 3 0
1532257684404482 -2 -2 -3 -3 -1 4 3 -1
1532257684427421 1 0 0 0 0 -3 -10 -2
1532257684449362 -1 0 -1 -3 -1 0 6 1
1532257684464322 -1 -3 0 -2 1 16 2 0
1532257684509203 -3 -1 -2 0 -1 -1 0 -1
1532257684532141 -2 0 -3 0 -3 -4 9 0
1532257684562061 0 -2 -1 -4 -1 -4 -5 -3
1532257684584002 2 0 -1 -3 0 0 18 2
1532257684614932 -1 -2 0 -1 -2 -2 -1 -2
1532257684636861 -2 -2 -2 -1 0 -1 -5 -2
1532257684666781 -4 -1 -1 -2 -2 -2 -3 -1
1532257684681741 0 0 -1 0 1 -1 3 -1
1532257684726621 -1 1 0 -2 -1 -1 -7 -1
1532257684749560 -1 -2 -2 -1 -1 1 -2 0
1532257684764520 0 0 -2 -1 0 1 5 0
1532257684787459 -5 -4 -1 -2 -2 0 -1 -1
1532257684802419 0 0 -1 -1 3 0 -5 -2
1532257684824360 -1 -1 0 0 1 -2 -5 0
1532257684884200 -3 -1 -2 -5 -9 3 9 -2
1532257684914119 2 2 4 11 15 -14 4 2
1532257684959000 -2 -2 -5 -2 24 2 -2 0
1532257684990914 1 1 5 7 3 -10 -5 0
1532257685229277 -1 1 -4 3 39 3 -1 -1
1532257685282136 -1 1 4 1 0 -6 2 1
1532257685461656 -2 -2 -6 -4 -5 3 -2 -1
1532257685559395 -8 -3 0 1 -4 -5 0 -12
1532257685612259 3 5 7 -3 -4 5 3 5
1532257685731933 13 -4 -1 1 3 0 1 1
1532257685784791 3 -3 -4 -3 -3 6 1 2
1532257685987250 6 -3 0 1 8 -6 -3 0
1532257686017170 -3 12 14 -3 -7 -1 5 0
1532257686100946 -6 -1 0 -1 -12 -7 -1 -1
1532257686144829 -2 4 7 -1 -7 2 -5 -3
1532257686168765 0 -3 -3 -1 -7 -8 0 -2
1532257686189709 0 -2 -1 -2 -1 1 1 0
1532257686271490 -1 -2 -1 0 0 -1 -3 -2
1532257686287447 -3 1 1 0 -1 -7 -2 -3
1532257686407127 -2 -2 -2 -5 -6 -4 -3 1
1532257686452010 0 -1 -2 -2 -6 -33 -4 -1
1532257686466967 -2 -2 2 4 -2 23 0 0
1532257686519826 -1 -1 -7 -9 -13 -4 11 -2
1532257686549746 0 1 -3 -6 1 -9 2 -2
1532257686579666 -1 0 -2 -5 -7 -3 7 2
1532257686609586 0 -1 -9 1 9 -34 8 3
1532257686631527 -5 -3 0 4 2 28 9 0
1532257686684386 -14 -2 0 -2 -1 11 -8 -7
1532257686707324 2 -2 1 1 0 15 11 7
1532257686729266 11 -3 -4 -3 -7 -14 13 3
1532257686744225 -3 2 2 0 2 2 9 3
1532257686767164 -1 0 0 -1 2 -1 11 -2
1532257686782124 -9 1 0 0 -6 1 5 -6
1532257686804066 4 -2 0 -1 -1 -5 13 1
1532257686841973 -13 0 -1 -5 -10 -14 -4 1
1532257686864903 1 0 -2 -2 -2 -5 -10 2
1532257686886845 0 -1 -2 3 1 0 1 -1
1532257686916764 -20 0 0 3 2 3 6 2
1532257686946684 -8 -3 -4 -3 -4 -1 -1 -1
1532257686969631 8 0 0 -2 -2 -9 11 5
1532257686984582 1 0 0 -2 -2 -7 -8 0
1532257687006525 8 -3 -2 -2 -2 -5 0 2
1532257687029463 5 -1 -3 0 -1 6 -17 1
1532257687052405 10 -1 -2 -2 -1 -2 17 6
1532257687082322 -2 -1 -1 0 -2 -1 1 -3
1532257687097288 -2 -3 -1 0 -1 3 5 -2
1532257687127208 8 -3 0 0 -1 -2 -17 1
1532257687149149 3 -1 -2 -3 -1 7 -1 -1
1532257687172088 5 -1 0 0 -1 -1 7 -3
1532257687202008 -4 -6 -1 -1 -2 0 -2 1
1532257687231928 -9 -1 0 0 0 -4 -7 -2
1532257687254867 -12 0 0 0 0 -2 0 -3
1532257687269827 -6 0 -1 -3 0 0 1 -1
1532257687291768 -13 -1 -1 0 -1 -3 -1 -2
1532257687314706 -1 0 -1 -1 0 1 2 0
1532257687344627 2 -1 -1 -4 -1 1 1 -2
1532257687366567 -6 -2 -1 -1 -2 -5 -6 -1
1532257687381528 -8 -1 0 -1 -1 -5 -16 -6
1532257687419446 -3 -1 0 -1 1 1 8 -1
1532257687442365 -1 -2 -1 -1 1 1 6 0
1532257687457325 1 0 -1 0 0 -2 -20 -2
1532257687472286 -5 -2 -2 2 -1 -4 -3 -5
1532257687487245 1 -1 0 -1 -1 -2 -6 -1
1532257687502206 19 -1 -1 -1 -1 -7 2 -3
1532257687532125 -11 -2 -1 -1 -1 4 0 0
1532257687554067 -4 -2 0 0 1 1 3 -6
1532257687569026 0 0 -1 -1 -1 -1 2 -1
1532257687583987 -2 -2 0 1 2 9 9 1
1532257687599944 2 0 0 -1 2 11 12 1
1532257687636846 4 6 7 27 -5 -49 9 5
1532257687659784 -3 -2 -2 4 -26 5 14 -2
1532257687704664 1 -3 2 -1 1 -2 -1 2
1532257687726605 -1 -1 -3 -8 -24 -8 -10 -2
1532257687772482 2 -1 -9 -15 14 11 19 8
1532257687794423 5 0 2 12 21 -4 17 5
1532257687824344 -4 -4 -4 -3 17 22 -6 -1
1532257687847283 0 0 4 9 18 13 -2 0
1532257687952002 1 0 -6 -2 -7 -11 5 1
1532257688004861 0 2 8 11 -2 -10 -17 -6
1532257688184381 0 -10 -19 1 -9 -16 -2 0
1532257688214301 -2 0 4 1 -3 -28 -1 -4
1532257688297080 0 -2 1 5 17 10 -3 -1
1532257688341960 0 12 1 -1 -6 5 0 -1
1532257688454658 -3 0 4 1 -8 -35 -3 -2
1532257688598274 -1 -9 -4 -1 -2 -9 -2 -1
1532257688619219 4 -2 -15 0 -5 -19 -4 1
1532257688664097 19 0 -6 0 4 19 6 10
1532257688687037 -5 1 -2 -1 -4 -29 -3 -1
1532257688776797 -1 1 -2 -3 -1 40 1 0
1532257688821677 -4 -1 -3 4 9 -5 4 -2
1532257688836637 -3 -2 -3 -8 -10 7 -4 -1
1532257688889496 0 -1 4 0 -5 -9 2 1
1532257688942354 -4 0 1 3 1 -10 1 -1
1532257688987234 -2 -2 -3 -3 -6 -3 -1 1
1532257689047074 4 0 1 1 -2 2 1 0
1532257689062034 -2 0 1 -2 -2 3 6 -2
1532257689121874 -6 -1 3 1 0 4 20 -1
1532257689159774 -5 -6 4 1 0 -6 15 -2
1532257689211634 -25 3 0 -6 -6 29 -2 -24
1532257689234573 42 -4 -6 -6 -6 -3 -2 -1
1532257689317351 -10 1 -4 -2 2 12 -19 0
1532257689407111 8 4 0 5 0 -1 15 -8
1532257689481911 -7 -5 -9 -2 -2 3 -3 -4
1532257689526791 -22 -12 -5 0 -2 -4 -8 6
1532257689579650 -24 1 -1 -3 -3 -8 -2 2
1532257689601591 34 3 0 -2 0 0 11 27
1532257689654450 26 0 -1 -3 -3 1 -7 -2

1532257689701325 14 0 -6 0 1 -1 3 6
1532257689744210 -27 -2 -1 -1 -3 -2 -1 5
1532257689767185 23 1 -2 -1 -1 0 2 -8
1532257689812065 -9 -10 -2 0 1 1 4 4
1532257689834006 -12 -4 -2 -1 -2 4 11 -5
1532257689901835 -3 0 3 -3 -4 1 7 -6
1532257689946749 -7 0 0 0 2 -2 -3 -7
1532257689969687 -14 0 1 0 -2 0 -1 -4
1532257689984648 0 2 -1 0 0 0 3 10
1532257690006589 12 -4 -1 -2 -2 -5 -10 -6
1532257690036509 27 0 -1 -3 -1 -2 0 0
1532257690067426 -12 -2 -3 1 -3 1 0 -1
1532257690097346 -3 -1 0 -1 -2 1 1 -2
1532257690119288 -1 -2 -2 -2 -3 0 -1 0
1532257690157186 -34 38 4 0 0 -2 -2 -4
1532257690187105 -1 12 1 -1 0 1 2 0
1532257690246946 -8 -33 -5 -4 -2 0 -1 -3
1532257690261906 1 -25 -4 -2 -2 11 3 -3
1532257690291826 -1 0 2 -1 -5 10 1 -1
1532257690329725 1 -2 -11 -15 -8 2 3 -2
1532257690344685 -2 0 -1 -5 3 -4 3 0
1532257690359645 0 0 -2 -4 7 -24 -1 -1
1532257690396546 0 4 5 5 8 -5 -3 -3
1532257690411506 -2 0 -5 -2 -6 -44 -5 -4
1532257690434445 0 3 1 1 0 17 7 -1
1532257690457383 -1 0 -2 -3 3 -4 -1 -1
1532257690472343 -1 -3 5 3 -7 -27 6 1
1532257690494285 -2 -3 -1 1 5 10 1 -3
1532257690517224 -1 0 -5 -7 -7 25 0 -1
1532257690532183 2 -2 -2 4 -5 39 -7 0
1532257690554125 -2 -2 -3 -9 -16 6 8 0
1532257690577064 -1 -1 -1 -1 16 21 4 2
1532257690599005 -2 -1 -4 -2 -8 -16 -4 -1
1532257690621943 0 1 -1 3 15 57 11 0
1532257690644882 -1 -1 -2 -2 -7 -8 -4 -1
1532257690666824 -28 1 1 -2 0 0 0 -6
1532257690681784 4 1 1 1 7 3 -1 3
1532257690711716 -28 -9 -28 -6 -2 4 -18 0
1532257690726676 7 6 11 1 0 0 4 -5
1532257690749614 12 -1 2 0 2 0 -5 -11
1532257690788510 -6 -4 3 -1 -1 2 0 1
1532257690825412 -30 -4 2 -1 0 -4 9 -16
1532257690847353 22 0 2 0 0 9 -6 5
1532257690877273 9 0 0 -1 0 -5 5 6
1532257690914174 9 -1 -1 1 0 -3 5 9
1532257690929134 26 -1 0 -1 -4 -1 3 -1
1532257690944094 -8 0 -3 -3 -2 -4 -2 -2
1532257690974014 1 -2 -2 -2 0 -5 -4 -1
1532257690996953 -4 0 0 1 -2 -2 4 1
1532257691011913 -6 0 -2 -1 -1 -2 -1 -1
1532257691034851 -4 -1 -1 -1 -3 -2 0 4
1532257691056793 -4 0 1 -1 -1 -1 0 0
1532257691079732 -5 -1 -1 0 -1 -1 -3 -4
1532257691101673 0 -1 -2 -2 -1 0 -5 -2
1532257691131593 -4 -2 -1 -2 0 2 -3 -4
1532257691154531 -9 -1 -1 -1 0 -2 2 3
1532257691169491 -2 0 -1 -1 0 0 2 -2
1532257691199412 -8 -1 0 -3 1 -3 1 2
1532257691222350 -3 -2 -3 -1 0 -1 -4 2
1532257691259251 -1 1 -1 0 0 1 1 -3
1532257691297150 9 -2 -1 -3 -1 -1 -5 -3
1532257691319097 -4 1 0 -1 1 -2 1 -2
1532257691349012 -12 -2 0 0 -2 -5 -4 -8
1532257691379929 8 -2 -1 0 -1 0 1 1
1532257691401886 0 -1 -3 -3 -2 -2 0 -1
1532257691424808 11 1 -1 -3 -3 -1 -3 -1
1532257691454728 0 1 1 -2 0 -2 -3 -6
1532257691469689 -12 -2 -1 -2 0 -1 -1 -2
1532257691521550 -4 -1 -1 0 -1 0 -2 2
1532257691552469 2 -1 -2 -1 -1 -1 -3 0
1532257691567427 -4 -1 -1 -1 -1 -1 3 -2
1532257691582387 -12 -2 -3 0 -2 -2 -2 -3
1532257691604329 -5 -2 -1 -1 -1 -2 -1 -2
1532257691634249 -5 -1 -1 0 -2 -1 -1 -2
1532257691657187 6 1 -2 0 -1 0 2 1
1532257691687107 -6 -1 -1 -2 -1 -2 0 -2
1532257691702067 -9 0 0 -1 -1 -1 -3 -3
1532257691725006 3 0 -3 -2 -1 1 5 2
1532257691754925 1 -2 -2 -1 -2 -4 -9 3
1532257691776867 0 -2 -3 -2 1 -2 -3 -5
1532257691799806 -22 0 1 1 -2 -1 1 1
1532257691821747 -1 -1 -1 -1 -1 0 3 3
1532257691844699 -9 -2 0 -1 -2 -1 0 -2
1532257691866627 1 -1 -1 1 1 -1 1 -2
1532257691881587 14 -4 -3 -3 1 -1 -2 6
1532257691904526 1 -1 -1 -2 -2 -3 -6 -1
1532257691927464 -8 -2 0 0 -3 0 0 -2
1532257691942425 -3 1 -1 -2 1 -1 -1 1
1532257691979326 3 0 -2 -2 -2 -1 1 3
1532257692009246 -9 -2 0 -1 -2 -1 -4 -1
1532257692047144 1 2 0 -1 -2 -2 -6 0
1532257692062104 0 -2 -1 0 1 -1 -2 -5
1532257692084046 -3 0 0 1 -1 -2 -1 -4
1532257692114963 0 -2 -2 0 -1 -3 6 0
1532257692136905 2 -3 -2 -2 0 0 4 -2
1532257692182781 -2 -1 -2 0 0 1 -3 -3
1532257692241624 -7 0 0 0 -2 0 4 1
1532257692271545 2 1 0 -1 -2 0 0 1
1532257692302483 7 -6 -2 -3 -3 -3 -3 0
1532257692324403 6 -1 -1 0 1 2 -3 -3
1532257692354323 -5 -2 -2 -1 -1 -4 -1 -1
1532257692369292 26 -1 -1 -1 -2 0 0 14
1532257692384243 -3 -1 0 -3 -1 -1 4 -7
1532257692429123 -22 -1 0 1 -1 -1 5 2
1532257692444083 -9 -1 0 0 0 -2 -1 6
1532257692482979 19 -2 -1 -3 -3 -2 -2 7
1532257692496941 3 -1 -2 -1 -2 -2 -7 1
1532257692534884 8 -4 -3 -1 -2 0 -4 0
1532257692571786 5 0 0 0 -2 2 6 5
1532257692616665 14 0 -3 -1 -2 -1 0 5
1532257692639604 3 -2 -1 0 -1 -2 -9 1
1532257692670521 -13 0 0 0 0 -1 0 10
1532257692684484 9 0 -2 -2 0 1 9 7
1532257692744324 -19 1 0 0 -1 -2 -5 -3
1532257692767263 -5 -1 -1 -2 -1 -1 -2 -7
1532257692797183 6 -1 0 0 0 1 4 8
1532257692819124 -23 -4 0 -2 -1 -1 -7 -12
1532257692834084 -6 1 -3 -1 -2 -3 1 -2
1532257692879961 3 1 -1 -2 -1 -1 2 2
1532257692894921 4 -1 -1 -1 0 -1 -4 3
1532257692939801 2 -2 -1 -2 3 -5 -1 -2
1532257692954761 -30 5 2 7 -1 -2 -3 -5
1532257692984681 -58 -9 -14 -30 -1 54 -7 -37
1532257692999641 -1 -1 8 18 3 9 -2 -3
1532257693021583 -12 -1 -3 -18 -21 -32 -4 1
1532257693052507 5 -2 -5 -8 -32 -9 -1 2
1532257693074441 1 1 1 8 -14 0 -2 1
1532257693127300 -1 -1 -2 5 -2 -15 0 0
1532257693187139 1 -2 1 -6 -10 6 0 0
1532257693404558 3 -1 2 2 0 5 0 -2
1532257693502304 -9 -1 0 1 -2 9 -1 -3
1532257693548175 17 0 1 0 -1 10 -1 1
1532257693614996 4 -5 -7 1 -3 -20 0 2
1532257693644916 -8 -5 -2 1 2 -11 -1 1
1532257693704756 -21 1 -1 2 2 -5 -3 -6
1532257693741657 3 -7 -4 -2 -1 4 2 3
1532257693794515 4 -13 -6 -3 1 -38 5 3
1532257693907217 -13 -4 -4 0 -3 8 -9 -3
1532257693944120 6 4 3 -1 3 5 -3 -1
1532257693967054 12 0 -6 3 11 -8 -4 -1
1532257693996974 -1 10 35 -3 -4 -4 -2 -4
1532257694019913 -6 -6 -15 -6 -2 -18 -1 0
1532257694049833 1 -1 -2 3 1 3 -2 -3
1532257694101714 -1 -1 -1 -3 5 9 2 -3
1532257694161534 -6 -5 -14 -2 -3 0 -5 -4
1532257694222372 0 -2 2 0 -1 2 0 -1
1532257694274233 0 3 2 1 -1 3 -2 -2
1532257694312131 1 1 0 -1 -2 -1 -2 -2
1532257694364990 -1 -2 2 0 -2 -2 0 -1
1532257694394910 -2 -3 -1 2 4 8 -1 -1
1532257694409870 1 5 1 -3 -6 -2 0 -2
1532257694454750 -1 1 4 6 -43 -11 -3 -2
1532257694491652 -1 -1 0 -1 -4 -2 -7 -1
1532257694521571 -1 -1 -2 -7 8 13 -4 -1
1532257694536532 -1 -1 -2 0 1 9 3 1
1532257694567467 -3 -6 -4 -3 5 18 -2 0
1532257694597369 -3 -2 -2 -2 1 14 12 1
1532257694627289 0 -1 -2 -2 -6 11 -5 0
1532257694657209 -1 1 1 -3 7 3 -9 -2
1532257694679150 3 10 7 7 -7 15 5 1
1532257694694110 -1 -6 -4 -3 5 -5 -4 -2
1532257694709070 -3 -4 -3 -4 5 10 17 2
1532257694738990 -1 -2 -9 -7 -7 13 -5 -2
1532257694754948 -3 -3 -3 -7 -7 -25 -66 -10
1532257694769908 -3 -2 -3 -4 3 2 -6 -2
1532257694791849 2 -3 -1 -5 -39 -20 15 -2
1532257694821769 1 0 0 1 -7 -16 -4 -1
1532257694851688 0 -1 -2 0 10 20 0 -1
1532257694881624 1 0 -1 -2 5 -13 11 3
1532257694927486 -2 -1 0 -2 -1 -1 -21 -1
1532257694957406 0 -1 1 -1 -3 -1 5 1
1532257695002286 3 0 -1 -4 -3 -5 -3 -1
1532257695017246 -3 7 3 1 14 7 -3 -5
1532257695048167 2 0 -1 -2 -4 -5 -5 -1
1532257695062126 -13 -2 -1 -2 -1 0 -3 2
1532257695107006 4 -1 -2 -1 -2 -4 6 1
1532257695151887 4 -1 -3 0 -5 10 2 -6
1532257695181806 -5 -1 -1 -3 -24 -8 -4 -5
1532257695211726 -5 -1 -1 0 -3 0 -6 0
1532257695264585 -4 -2 0 0 10 7 -1 0
1532257695286526 3 1 0 -2 -5 -2 11 1
1532257695309465 -4 0 -2 -2 6 -11 -3 -2
1532257695324425 -1 0 -1 -1 -4 0 -4 0
1532257695347380 -1 -2 -2 -2 -5 -5 -7 -3
1532257695377283 -12 -1 1 -3 -1 -2 -4 -2
1532257695399225 1 -1 -1 -1 -3 0 2 -2
1532257695414185 10 -3 -2 0 0 -1 -2 4
1532257695437123 -1 0 -1 -1 -5 -9 2 0
1532257695459065 2 1 0 1 -1 -6 4 0
1532257695474025 -1 -1 -3 0 -1 2 -5 -2
1532257695496963 -2 -3 -1 -1 -3 -1 0 -1
1532257695526883 -5 -1 1 0 4 6 -2 -2
1532257695579741 -1 0 -1 -1 -2 0 -3 -2
1532257695594702 -1 -1 -1 -2 0 0 1 -2
1532257695616643 0 -2 -2 -2 -3 0 -6 0
1532257695646563 0 1 0 1 -2 -28 -7 -1
1532257695684462 -1 -1 -1 -2 -3 -2 -2 -1
1532257695707400 0 0 1 1 -1 -11 21 1
1532257695752292 -1 1 -1 3 -12 31 3 2
1532257695774222 -2 -4 -4 2 18 4 -4 -2
1532257695812121 2 -1 -1 4 35 -8 0 2
1532257695834062 1 1 6 18 22 -1 1 2
1532257695871961 1 2 0 10 17 16 3 2
1532257695886921 -1 -3 2 -13 9 9 -2 -2
1532257695924819 0 -2 -1 -4 -12 -5 -3 -1
1532257695961720 -4 -3 -2 -1 21 -2 -4 -3
1532257696052484 -1 2 6 12 -9 -10 8 3
1532257696097358 0 0 1 4 7 9 0 -1
1532257696172158 1 0 -2 -6 1 3 3 0
1532257696231998 -3 -2 -4 3 0 6 -2 -4
1532257696269897 2 2 2 6 5 9 1 0
1532257696487315 -1 -5 -4 -7 -11 -7 -3 0
1532257696517235 -2 -6 -11 -4 -15 -6 -3 1
1532257696704733 9 -7 0 -1 -9 -41 -5 1
1532257696847352 -13 -6 -2 0 4 -30 7 -2
1532257696884253 -8 -2 -3 -4 -12 18 1 -4
1532257696930131 -10 -2 -1 6 28 19 3 -5
1532257696996953 -14 -1 -4 -3 -10 -17 -9 -1
1532257697154531 -3 -3 0 0 2 1 -3 -1
1532257697207390 7 -1 1 -2 0 4 5 1
1532257697267230 -5 4 2 -1 -2 -7 0 -3
1532257697289171 3 -1 -3 -1 -1 -6 -3 0
1532257697327069 3 0 4 3 4 1 -3 0
1532257697349011 8 -5 -5 -4 -1 1 11 1
1532257697401883 2 3 -4 -4 -3 4 5 1
1532257697424808 0 -2 -4 2 2 4 3 2
1532257697446749 -7 -6 -2 -4 -21 -52 -4 -2
1532257697469688 0 2 0 5 -1 -80 0 1
1532257697491629 2 6 2 -5 -15 61 9 -1
1532257697521550 -2 -1 3 6 -4 31 -11 0
1532257697544488 -2 -5 -5 -5 10 -18 -1 -3
1532257697574408 -5 -4 -1 -2 5 -17 -7 -5
1532257697589368 3 6 7 6 -10 24 -6 1
1532257697604328 -1 -3 -5 -2 7 -13 3 -2
1532257697634248 0 2 -1 2 12 -6 -1 0
1532257697649208 0 -1 -2 -2 -8 -7 5 0
1532257697664168 -1 1 -1 -1 -6 6 -17 -2
1532257697703064 -2 0 -1 -1 -4 5 0 -1
1532257697717027 -1 2 -2 0 -1 -8 5 2
1532257697746947 -1 -3 0 -3 -4 -5 2 0
1532257697776867 -2 0 -2 0 1 17 -3 -3

1532257697791827 -1 -2 -1 -4 -6 -14 -2 -2
1532257697814765 1 -4 -1 -1 -1 -2 0 0
1532257697844685 0 -1 0 -2 6 1 -2 0
1532257697859645 0 -1 0 -3 -3 4 3 0
1532257697881586 0 -2 -1 -2 3 5 -4 -3
1532257697911507 -1 0 0 0 -10 -45 0 -1
1532257697934445 0 -2 -3 0 7 23 -2 0
1532257697964365 0 0 1 0 4 2 11 1
1532257697979325 0 -2 -1 0 2 27 0 -3
1532257698002265 -2 0 1 0 -14 -60 -5 -4
1532257698032184 1 -1 -2 -1 8 41 5 0
1532257698054125 -1 -2 -2 -1 -1 1 -1 0
1532257698077064 -2 0 -1 -2 -3 -11 2 -3
1532257698092024 0 -1 0 -2 -3 -11 -4 2
1532257698114962 0 -2 -2 -3 -1 5 6 0
1532257698136904 1 -1 -2 -3 5 10 8 1
1532257698151864 0 -3 -1 1 -2 -9 -5 1
1532257698181784 0 -1 1 1 2 4 2 -1
1532257698204736 -3 -1 -1 -1 5 26 3 -2
1532257698219683 0 -1 0 0 0 -4 -7 3
1532257698241623 -2 -1 -1 -4 -5 -11 2 0
1532257698264563 0 0 -2 -1 -1 -2 -8 -3
1532257698279522 2 1 0 -4 -2 -5 12 1
1532257698309443 -2 1 -2 0 -2 2 -4 -1
1532257698324402 -1 -3 -1 -1 1 8 -8 -3
1532257698347341 -1 1 0 1 -2 -6 2 0
1532257698377261 -2 0 -2 -2 -1 3 0 -1
1532257698392221 0 -1 -2 -2 -1 -5 -1 0
1532257698407181 0 0 0 -2 -2 -5 -2 0
1532257698422141 -2 0 -1 1 -1 -6 -1 -2
1532257698452061 -1 -2 -1 -2 0 0 -6 -1
1532257698475001 0 0 -1 0 -1 -1 0 -1
1532257698496941 1 0 0 -2 -2 -1 3 -1
1532257698519879 -2 0 -2 -2 -2 -5 -4 -1
1532257698579726 -2 -2 -1 -1 -1 -4 -4 -2
1532257698609645 -1 -2 -2 -3 -2 -4 -7 -5
1532257698639566 0 -2 -2 -1 -1 0 -13 -2
1532257698662504 0 -1 -1 -3 -3 -1 11 1
1532257698699425 -1 -2 0 -1 -2 -1 2 -1
1532257698729345 0 0 -1 0 1 -2 -1 0
1532257698752283 -3 0 1 -1 1 0 -1 -3
1532257698767243 1 -1 -1 -3 -1 -1 -2 0
1532257698789185 -2 -1 -1 1 -1 -1 0 -2
1532257698842052 -2 0 -2 0 -1 -3 -1 0
1532257698863985 1 -2 -3 -2 -2 0 1 1
1532257698886923 -1 -2 0 0 -2 -2 -5 -2
1532257698901907 -3 -1 1 1 -1 -2 0 -1
1532257698939782 0 -1 -2 -1 1 -1 -5 1
1532257698969715 0 -1 -2 -2 -2 -1 -3 -1
1532257698999622 -1 -3 -1 -2 0 0 -1 -2
1532257699014581 -1 -2 0 -2 -4 0 4 -2
1532257699044502 0 -1 1 0 1 0 2 -1
1532257699067440 -2 -2 0 0 -2 1 -3 0
1532257699082400 0 0 -2 -2 -2 -1 1 -1
1532257699105339 -3 -2 -1 1 -1 1 -4 -1
1532257699142241 -2 0 -2 -1 -1 -2 0 -2
1532257699172160 -3 1 -1 0 -1 -2 -5 -2
1532257699187121 -1 -2 0 0 -2 0 12 1
1532257699203078 -1 0 0 -1 1 -1 4 2
1532257699224022 1 -3 -1 -2 0 -1 -1 -2
1532257699254939 -2 -2 -2 -1 -1 -2 -7 -1
1532257699291840 0 -1 -2 -2 -1 0 3 -1
1532257699329738 -1 1 -1 -1 -1 -1 -2 -2
1532257699374619 -2 0 -2 -2 -1 1 0 -1
1532257699434459 1 -2 -1 -2 0 -1 -3 -3
1532257699487318 -3 0 -1 -1 -1 -1 0 0
1532257699532198 0 -1 -1 0 -2 -2 14 4
1532257699562118 -2 -1 -1 0 -2 0 -4 -2
1532257699577077 0 0 -1 -1 -1 -2 -4 0
1532257699599023 -1 -1 -1 -2 -1 -1 -2 0
1532257699621957 0 1 -2 -1 -1 2 4 -1
1532257699659857 0 -1 -1 -1 -3 -2 -3 -4
1532257699681814 0 0 -1 -2 -1 -2 -5 0
1532257699696757 -5 1 0 0 -1 -1 -2 -6
1532257699749616 0 -2 -3 -2 -1 -1 3 1
1532257699786518 0 0 -1 -2 0 -1 -5 -1
1532257699824416 1 -2 -2 0 0 -3 2 -2
1532257699847355 -3 -1 -2 -5 -2 0 0 1
1532257699877275 -1 -1 -2 -2 -2 -3 -2 0
1532257699892236 0 -1 -1 -2 -4 -3 -1 -1
1532257699914176 -2 -2 0 2 -2 1 -2 0
1532257699967039 -1 -1 -1 -3 -2 1 -1 -2
1532257699996956 0 -1 -2 0 -2 -1 6 0
1532257700071755 1 1 0 -3 -3 -2 -1 0
1532257700086715 -2 -3 -3 -2 0 0 -1 0
1532257700109654 -3 -3 -1 -1 -1 -2 -9 0
1532257700124613 -2 -1 -1 -1 0 0 3 -1
1532257700139573 0 -1 -1 -2 -1 -2 -5 0
1532257700176475 -1 -1 0 0 -1 0 -2 -1
1532257700192432 -1 -1 0 0 0 -1 -6 -4
1532257700214373 1 0 0 -1 -2 -1 -1 2
1532257700252272 -4 -1 0 -1 -1 1 1 1
1532257700274213 -2 -2 -2 -1 -1 -1 10 0
1532257700304134 0 -2 -2 -2 -1 1 3 -1
1532257700327072 -2 -1 -1 -1 -1 0 -20 -1
1532257700363973 1 0 -1 -1 0 -1 1 -1
1532257700401877 -4 0 -2 0 0 -1 -1 -1
1532257700431792 -1 0 -1 -1 0 1 1 0
1532257700446753 -2 -2 -1 -1 0 -1 1 -3
1532257700469691 -1 -3 0 2 7 -20 0 -2
1532257700491632 -1 -2 -5 -9 -2 7 -1 -3
1532257700514571 2 2 5 14 9 -7 -1 0
1532257700536512 3 3 -2 11 6 -6 4 0
1532257700552470 -2 -3 -6 -8 -1 10 2 1
1532257700604331 4 7 8 13 4 1 1 2
1532257700627269 -1 -2 5 27 23 -2 1 0
1532257700657189 -4 -3 -3 -16 0 -6 -3 -2
1532257700717029 0 0 3 15 7 -10 -7 0
1532257700814768 4 2 10 8 31 7 1 1
1532257700889567 -2 -1 1 0 -29 7 -8 -4
1532257700934448 -1 -4 -5 -11 -7 1 -1 -1
1532257701159845 8 0 -2 -5 -5 -21 -3 -1
1532257701279525 9 2 -6 0 -4 -7 4 11
1532257701354325 -4 -1 0 3 1 1 -2 -3
1532257701437104 -1 3 -3 -1 5 10 2 -3
1532257701474005 7 -2 -1 -1 -4 14 5 4
1532257701534843 -3 -4 -4 -14 0 -27 -7 -3
1532257701564762 0 -3 0 -2 5 1 -4 -2
1532257701594682 -4 -1 1 1 -14 -20 -2 -2
1532257701609642 -22 -2 -8 -3 5 32 1 -3
1532257701639563 2 -4 -4 -4 -4 -4 -5 -2
1532257701671477 4 3 7 5 -4 -3 -3 -1
1532257701767222 -2 -1 2 -3 2 -1 -2 -2
1532257701782181 11 -1 2 0 1 -2 -1 0
1532257701871941 -3 -5 -7 -2 -3 -1 0 -1
1532257701901864 -1 0 0 -3 -10 -21 -6 -2
1532257701946741 -1 2 5 18 45 1 -17 -1
1532257701976661 -1 -6 -5 -3 1 5 -22 -4
1532257701999600 -3 -2 -3 0 -2 -11 6 2
1532257702014559 -1 0 0 3 6 -4 13 0
1532257702036501 0 0 1 8 13 24 -5 -1
1532257702059440 0 -2 -3 -7 4 6 13 0
1532257702074399 0 0 -1 11 -15 -20 -1 -1
1532257702089359 -4 1 0 1 16 -24 -9 -1
1532257702112298 -3 -3 -5 -3 2 26 -3 -1
1532257702142233 0 0 1 -1 5 34 0 0
1532257702164160 0 -2 0 2 -8 -30 1 0
1532257702194079 -2 -1 0 4 7 5 -1 0
1532257702218015 0 1 1 0 7 17 2 -2
1532257702246938 0 1 0 2 1 0 0 0
1532257702261898 -21 0 0 2 -2 -2 0 -1
1532257702284838 1 -2 -1 -3 -6 -47 -1 -5
1532257702321750 1 -2 -2 -3 -1 -16 -5 1
1532257702359637 4 1 -1 1 13 17 0 1
1532257702374597 1 -1 -1 -1 -5 0 0 0
1532257702413493 8 -2 0 0 -9 -17 -3 -2
1532257702427472 1 -2 -3 -3 -3 -11 -13 0
1532257702449396 0 -3 -2 -3 -10 -10 -4 0
1532257702487295 5 -2 -2 -2 -4 -15 -3 2
1532257702509237 -4 0 0 -2 -6 -8 -3 -2
1532257702644874 1 -1 0 1 4 10 -3 -3
1532257702689754 -5 -1 1 0 -6 -2 2 3
1532257702704714 -1 1 0 -3 -9 -37 -6 -3
1532257702741615 -5 0 1 -1 -4 -5 -2 -1
1532257702764554 -1 0 1 -1 -2 4 3 2
1532257702779514 -5 1 -2 -1 -4 -14 -3 -6
1532257702794474 -4 -3 -2 1 3 12 0 -1
1532257702824394 -1 -1 -1 -2 5 12 -4 -1
1532257702847333 -2 -1 -2 -3 -1 4 3 0
1532257702862292 -3 -2 0 -1 1 8 1 0
1532257702877253 -5 1 -2 0 7 18 0 -2
1532257702907173 1 -2 0 -2 4 3 1 -3
1532257702922132 -3 -1 -2 -3 -5 0 -4 -2
1532257702944073 -1 1 0 -1 -3 -5 3 0
1532257702973994 -1 -2 0 0 -2 -3 0 -2
1532257702996933 -1 -2 -2 -1 -10 -20 -1 0
1532257703041813 -2 0 0 -1 3 5 -1 -2
1532257703064751 2 0 -1 -1 -4 -13 2 3
1532257703101653 -2 0 -2 -1 1 -1 -1 -1
1532257703124591 -3 -2 -1 -1 0 -1 -3 -3
1532257703146533 -3 -1 0 0 0 26 -2 -2
1532257703161493 1 0 -1 -3 -2 0 1 -2
1532257703192410 0 -1 -1 -3 0 -9 1 1
1532257703207369 -1 -1 0 1 -3 -18 -6 -2
1532257703267210 0 2 8 31 -12 -56 -26 -1
1532257703312089 -2 -5 -10 -26 -10 5 19 2
1532257703334031 0 2 0 7 -12 36 -2 0
1532257703364949 0 -2 -5 -3 14 2 8 3
1532257703386890 0 -7 -10 -32 -16 -5 -7 0
1532257703424788 -1 1 -4 2 18 2 -2 0
1532257703506570 -1 -1 -5 -6 -18 4 -1 1
1532257703604308 -3 -1 -2 -5 11 -20 2 -1
1532257703649188 -3 4 -1 -2 -15 -20 -4 0
1532257703694068 1 -13 -5 6 -2 -15 -2 0
1532257703949386 -1 3 28 5 9 16 1 -2
1532257704009226 1 0 -3 1 -5 -18 -1 0
1532257704062084 0 -3 5 -8 1 1 -5 -1
1532257704197721 -3 -2 -3 -6 4 10 -2 -2
1532257704219662 -1 -1 -4 -3 0 12 0 -1
1532257704302441 0 -2 0 0 4 4 3 1
1532257704369262 -1 1 -3 -2 -4 -3 -1 -1
1532257704407161 0 -2 0 -1 -13 -14 -7 -3
1532257704504901 -2 -2 -2 -1 8 -9 1 0
1532257704549780 -1 -1 1 0 4 7 -3 -2
1532257704579700 0 -2 -1 -4 -1 -12 -6 -1
1532257704616602 -2 -1 -1 0 2 -11 -3 -2
1532257704639540 1 -1 -4 -1 -4 -8 -7 -2
1532257704677456 -1 -2 0 0 8 -9 2 1
1532257704707359 1 1 0 0 5 7 2 1
1532257704729300 3 -2 -2 2 -1 4 -2 1
1532257704752257 5 2 2 4 2 5 2 2
1532257704774180 -1 6 6 3 2 -3 3 2
1532257704789139 3 8 3 2 1 -3 1 -3
1532257704812079 15 -2 -3 -2 -5 0 0 5
1532257704834020 -6 -7 -1 -2 -2 -2 7 -5
1532257704848979 5 0 -3 -3 -4 0 5 -1
1532257704871919 0 -2 -1 3 9 35 15 2
1532257704894857 0 3 2 3 4 7 11 2
1532257704909817 -7 -2 -5 -3 -4 -12 -22 -4
1532257704931759 2 0 -1 -1 -2 -8 -2 0
1532257704954698 -6 -6 -2 -5 -18 2 -10 -7
1532257704976639 -1 3 -1 -11 -4 -14 28 4
1532257704999577 -1 -1 -1 -6 -7 -101 -23 -5
1532257705029497 0 -1 -4 -2 -5 -20 -34 -4
1532257705059418 -1 -3 -6 -12 -28 -68 -31 -7
1532257705089337 -2 -5 -3 -4 9 55 1 -2
1532257705104297 -1 -6 -6 -7 4 28 10 -3
1532257705134217 -3 -6 -7 0 -7 37 0 0
1532257705172116 1 1 -1 2 -12 -14 -12 0
1532257705209017 -3 1 -6 -3 13 -13 -10 -1
1532257705224974 -2 -2 1 -1 -1 -4 4 -1
1532257705246916 -1 0 1 -2 -5 -5 -4 0
1532257705284815 -1 0 0 -3 -11 4 -1 -1
1532257705306756 1 -2 -3 -1 -1 -9 -4 0
1532257705351637 0 3 4 5 0 -6 -2 0

1532257705374574 1 0 -1 -1 10 17 -5 0
1532257705396516 -3 0 1 -2 -1 8 0 -3
1532257705419455 1 1 2 1 7 20 0 -1
1532257705457353 1 2 8 6 4 12 -5 1
1532257705487273 1 -2 7 -1 -6 -6 -6 0
1532257705524174 -1 -4 -9 -6 -7 -36 -4 -3
1532257705539135 2 2 5 5 3 10 -5 -1
1532257705562073 1 -1 -1 -4 -4 -25 -9 -1
1532257705621913 2 0 15 3 -10 25 -6 0
1532257705644851 -2 -3 1 -6 -55 22 9 0
1532257705674772 -3 -1 -2 1 9 -14 -4 1
1532257705704692 0 -5 4 -4 21 25 7 2
1532257705719652 0 -1 -1 1 8 10 7 -2
1532257705749571 -2 -2 -5 -6 -37 -17 -2 -2
1532257705779506 -1 -1 -1 0 23 -6 -5 -1
1532257705802444 -1 -2 -2 -6 -17 -10 0 0
1532257705817404 -2 1 0 0 -5 -3 -3 -1
1532257705832364 -2 -3 -2 1 10 7 -1 -4
1532257705854306 0 -2 -4 -3 -16 -8 -5 -1
1532257705877244 -1 -1 -2 0 17 3 -1 -1
1532257705907164 0 -2 -2 -1 -8 -9 -1 1
1532257705929106 -2 0 1 -1 -2 -3 -1 -3
1532257705967004 0 1 0 1 2 4 -1 -1
1532257705981964 -2 0 -2 0 2 5 6 0
1532257706026844 0 -1 -1 -2 3 1 -1 0
1532257706042802 -2 0 -2 0 -4 -2 -1 -2
1532257706086684 -2 -2 -2 0 -2 -3 -3 0
1532257706101644 0 -1 -2 0 -9 -7 -1 -1
1532257706139543 -2 -1 -1 -1 7 5 -3 -1
1532257706162481 0 -1 -1 -1 1 2 0 0
1532257706192402 -1 -1 -1 -2 -2 -6 -1 -2
1532257706229303 -1 -2 -1 0 -4 3 0 -2
1532257706267201 0 -1 0 1 3 -3 2 1
1532257706282161 0 -1 -2 -1 -7 -6 -1 0
1532257706319066 -1 -2 -2 2 -6 -23 -3 1
1532257706349980 -3 -2 -2 -6 0 -17 0 0
1532257706379900 -2 -1 0 -1 2 -3 -2 0
1532257706394860 1 -2 -3 -1 -5 0 -1 -1
1532257706416801 -3 -2 -1 -1 15 15 -2 -2
1532257706446721 0 -1 -1 -3 -10 -46 1 -3
1532257706476641 -2 -2 0 -1 -3 11 -1 -1
1532257706499580 1 -2 0 -2 -6 -6 -5 -2
1532257706521521 -1 -1 -1 -2 -14 -3 -3 -2
1532257706552453 -1 -1 -2 1 18 38 2 0
1532257706597318 -1 0 -2 -3 4 -12 -2 -1
1532257706642199 -1 -1 -1 -3 -5 -11 -2 0
1532257706687078 -2 -2 -1 -2 3 10 -2 -2
1532257706731959 -1 0 -2 0 -6 0 0 -2
1532257706754896 -2 -1 0 -2 10 15 1 0
1532257706814738 0 -2 -1 -1 0 1 1 1
1532257706836679 -2 0 1 0 2 -3 -4 -2
1532257706859617 -1 0 -1 0 -2 0 -1 -1
1532257706889537 -1 -2 -1 -2 -2 -3 -1 -2
1532257706911479 -2 -2 0 1 3 3 1 -1
1532257706927436 -2 -1 -2 -2 -6 -7 -1 -1
1532257706949377 0 -3 -1 0 -5 -1 -1 -2
1532257706987276 -3 -1 -1 -1 -4 0 -2 -2
1532257707024182 0 0 -1 -4 -5 0 0 -2
1532257707062075 -2 -1 -1 0 -1 -2 -1 0
1532257707077035 2 0 -1 0 0 -4 -2 0
1532257707106956 -3 1 1 -2 10 -1 1 -1
1532257707136875 -2 -1 0 0 -5 -2 -2 0
1532257707159814 -1 0 -2 -2 2 3 2 -1
1532257707174775 0 -2 1 -1 -1 -2 -2 -1
1532257707196716 -1 -2 0 0 0 -9 1 -1
1532257707241607 0 -2 -1 1 5 11 -1 1
1532257707256556 0 -1 -1 -1 -1 -1 -1 -1
1532257707302433 -1 -2 0 1 -2 -8 -1 1
1532257707324374 -1 -1 -2 0 -6 -5 -1 -2
1532257707347312 -1 -3 -1 0 -2 4 -1 -3
1532257707362273 0 0 -2 -3 -1 -3 -1 -1
1532257707377233 -1 -1 0 -1 -3 -5 -1 -2
1532257707414134 0 -1 1 0 -4 -1 0 -1
1532257707431088 -1 -2 0 0 7 13 -2 0
1532257707482950 -1 -1 1 -1 -5 -6 -1 -2
1532257707496913 -2 -1 -2 -1 -7 -9 -1 -2
1532257707519852 -2 0 -2 -2 -2 0 -2 -1
1532257707541793 -1 -1 0 0 1 4 0 -1
1532257707564732 -1 1 -2 -1 0 -3 -2 0
1532257707587671 0 -1 0 0 7 9 0 -1
1532257707631553 -2 -1 -1 -1 -1 -3 1 -2
1532257707654492 0 -1 0 -2 1 0 0 -1
1532257707707350 1 0 1 -5 -2 -5 -3 -2
1532257707768204 -2 -4 -2 1 -4 -10 1 -1
1532257707789132 0 -1 0 -1 -11 -13 -1 -1
1532257707834012 -3 -3 0 -1 -7 -14 -4 -3
1532257707871910 0 -1 -3 -11 5 0 1 1
1532257707909809 0 -2 -1 -9 3 6 -2 -1
1532257707946710 0 -2 -2 7 -17 -4 2 -1
1532257707976631 -5 -5 -3 -15 14 0 -2 -3
1532257708021510 -1 0 3 8 -3 -7 -1 -1
1532257708067387 -2 2 -3 -14 6 5 -1 -3
1532257708097320 0 0 -1 -1 2 11 -1 -1
1532257708149169 -1 -2 -1 -9 -16 0 -2 -1
1532257708254886 1 -1 3 6 -1 4 -2 -2
1532257708269846 -1 -2 -5 -2 -11 38 3 -1
1532257708442390 -3 -6 4 3 7 27 3 8
1532257708614923 -11 4 2 -4 4 -4 2 -5
1532257708681745 -6 -1 1 0 -3 -15 1 5
1532257708704683 5 9 13 -2 -5 -7 -1 2
1532257708719644 -3 -7 -5 4 6 8 -4 0
1532257708771505 3 -3 -6 -5 -4 -10 0 0
1532257708802422 -4 -1 -6 -2 5 19 -6 -2
1532257708817382 -1 4 16 -1 -3 -15 2 3
1532257708832342 -8 1 -2 -2 -1 4 -2 -1
1532257708892182 6 1 -2 -3 -1 7 6 1
1532257708922102 3 0 1 3 2 -12 1 3
1532257708952022 -5 -2 0 3 1 -5 1 -2
1532257708974961 0 -3 -4 1 -1 -2 -2 -2
1532257709004881 0 -2 -4 -5 2 -2 0 0
1532257709041782 -3 -3 -4 -2 -5 -1 1 0
1532257709079680 -2 -2 1 -4 2 3 -1 0
1532257709094641 -2 1 1 -1 -1 -1 -2 -3
1532257709139521 -1 0 -3 -1 -1 1 -1 -1
1532257709154481 0 -1 -3 -3 -1 0 -1 -1
1532257709184401 -3 -4 -4 -4 -3 7 -2 -2
1532257709199360 0 -3 -1 -3 -1 2 -23 -3
1532257709214321 -1 -2 -2 -5 -8 1 5 1
1532257709252219 -1 -2 -2 -5 -27 1 -6 0
1532257709282139 0 -4 -2 -4 -3 -13 -5 -4
1532257709297099 -2 -3 -1 1 9 23 5 1
1532257709334000 0 1 0 1 2 -5 6 0
1532257709364918 -1 0 2 7 11 -2 5 2
1532257709401825 -3 1 0 0 2 14 4 1
1532257709424758 -1 -2 1 -1 5 -22 -4 1
1532257709446699 0 -1 2 3 -22 -60 -13 -1
1532257709461659 -3 -4 -6 -9 7 -10 -6 -5
1532257709484599 1 -3 -3 -1 2 72 -3 -2
1532257709529478 -3 0 0 -1 -11 -24 0 -1
1532257709567377 2 -2 -1 -3 -14 -74 -6 0
1532257709612256 -3 -3 -3 -2 4 2 -2 -3
1532257709687057 -7 3 0 1 12 45 19 0
1532257709814715 -3 0 -2 -2 -8 -1 2 1
1532257709844635 1 -1 0 -2 -2 -3 -3 -2
1532257709874555 -4 -2 0 -1 -2 3 4 0
1532257709897497 1 -2 0 0 1 6 -7 -4
1532257709957334 -13 0 -1 -1 -2 -4 -4 0
1532257710017174 4 -2 -1 1 0 7 -3 -2
1532257710032134 -1 -1 -2 -2 -1 19 -2 -3
1532257710054075 3 0 -1 -1 3 -1 -4 -3
1532257710077013 1 0 -1 -3 -5 -12 2 -1
1532257710106934 -1 0 -1 -2 7 -9 0 0
1532257710121894 -4 0 -3 -1 0 -11 -1 -2
1532257710144833 -1 -3 -5 -5 -3 6 -2 -4
1532257710181734 0 2 0 2 -3 -8 2 0
1532257710204672 1 -2 0 1 -6 -3 -4 0
1532257710241574 -5 1 1 1 4 1 0 -1
1532257710271493 -1 0 -2 -4 -4 -2 0 0
1532257710302411 1 0 1 0 3 -5 -2 -1
1532257710317371 -4 -1 -2 1 -3 -3 0 -2
1532257710362251 0 -2 -1 0 4 10 3 -2
1532257710429072 -1 -2 1 -2 2 -1 -4 -2
1532257710459989 0 -2 -2 -1 -2 -14 -2 1
1532257710504870 -1 -1 -2 -2 2 3 1 1
1532257710541771 -1 -2 -3 -2 -2 -16 -2 0
1532257710579670 2 0 0 -1 4 -7 -1 -1
1532257710609589 -1 -1 -3 -6 -3 -1 1 -1
1532257710624550 0 0 -3 -7 8 25 18 1
1532257710662455 -3 -2 2 15 37 4 -8 -2
1532257710692368 -2 -2 -3 -9 -22 -9 -6 -4
1532257710729269 -2 -2 -3 -7 -5 14 -5 -3
1532257710782127 1 -2 -4 -9 -28 -71 6 2
1532257710812048 0 1 4 10 13 6 2 1
1532257710916768 -1 -1 -4 -10 -5 -1 4 2
1532257710954667 0 -4 0 3 -1 -1 2 1
1532257711021488 -1 0 -1 -9 -13 -23 -3 -2
1532257711164107 -3 2 -5 -5 -17 15 0 -1
1532257711374544 -6 -10 -7 -2 -13 -76 -7 -3
1532257711532123 -4 -3 -1 -4 -6 -15 -9 -3
1532257711599941 0 2 -1 -1 -3 -5 -7 -1
1532257711644820 0 -4 -2 6 -5 -14 0 -2
1532257711749541 -1 1 -1 -1 2 24 1 -1
1532257711779461 1 2 -2 3 2 -12 -1 1
1532257711839301 1 -1 -4 -3 4 21 4 -1
1532257711892160 -1 1 1 0 0 0 -3 -2
1532257711922080 2 -1 -2 -3 0 10 0 1
1532257711937040 -3 -1 -2 -2 -7 -20 -1 -3
1532257711966960 -1 -4 -4 -3 -4 -17 -1 -2
1532257711981919 12 0 2 -1 -1 -1 0 2
1532257712011840 -5 -5 0 -3 -10 0 4 -2
1532257712034778 6 1 -1 -4 -5 -17 -3 -3
1532257712049738 -4 -1 0 1 0 0 0 -2
1532257712079658 -2 -2 -1 0 5 5 1 1
1532257712109578 0 -2 -2 -2 -3 5 -1 1
1532257712124538 12 2 1 1 -1 -2 -1 -2
1532257712139499 3 1 1 -2 -4 -4 -4 0
1532257712169419 -1 -2 0 -1 0 1 -1 -1
1532257712192369 -5 -3 4 -3 -5 -2 -2 -3
1532257712223274 6 0 0 -4 -4 0 -7 0
1532257712244218 2 -1 -2 1 1 -4 -2 1
1532257712274138 -5 -10 -9 -5 -1 -2 -1 -4
1532257712297077 -2 -2 1 1 2 -12 2 -1
1532257712326997 -6 -2 -2 -2 -3 0 -6 -1
1532257712349936 -1 -1 -1 -1 -4 2 -3 1
1532257712364896 -2 -3 -4 -6 -9 -40 -3 -2
1532257712379855 1 4 5 7 9 26 4 2
1532257712417755 0 -4 -3 5 -1 -7 -2 -2
1532257712439696 0 -5 -5 -12 2 55 -1 -2
1532257712476597 1 -1 2 6 2 -4 1 0
1532257712499536 -3 0 0 0 -9 -9 -1 -2
1532257712522474 -1 -3 -2 -2 15 20 1 0
1532257712537434 -1 -1 0 2 -2 -13 -3 -1
1532257712567354 0 1 2 -1 -10 -30 -1 1
1532257712582314 -1 -4 -1 -5 -11 1 1 0
1532257712597274 -1 0 -1 2 4 4 -1 0
1532257712627194 0 -1 -1 -3 -2 5 -3 -2
1532257712642154 -1 -1 1 2 -1 5 -1 -2
1532257712664096 -2 -2 -2 -3 -3 -5 -1 0
1532257712679056 -1 -1 0 0 -5 -21 -3 -1
1532257712701994 -4 -1 -2 -3 -21 -2 0 -3
1532257712716954 -1 -1 -3 -3 11 -10 -3 0

1532257712739893 -3 0 1 9 7 1 -1 0
1532257712776794 -2 -3 1 -1 0 -7 -3 -2
1532257712799733 -1 0 -1 -3 -5 -5 -1 0
1532257712821674 0 -1 -1 1 -6 -3 1 -2
1532257712836634 -1 -1 -1 -1 -1 -1 0 -3
1532257712859573 -1 -2 -1 -2 -1 3 -3 0
1532257712881514 -3 1 -4 -3 -10 -11 -3 -2
1532257712897472 -2 -1 -3 -3 0 4 -1 -1
1532257712919424 -1 -1 0 0 -2 0 2 1
1532257712957311 -2 -1 -2 4 5 8 -6 -1
1532257712979253 -3 -1 -1 0 3 0 2 -1
1532257713009235 -1 -1 0 0 -1 13 -3 -2
1532257713024195 -2 -1 -2 -1 1 10 1 -2
1532257713047133 0 0 -3 -2 0 7 3 0
1532257713099991 1 -1 -1 0 0 9 -2 -1
1532257713121934 -2 -2 0 -1 0 2 0 -2
1532257713136893 -1 -1 -3 2 3 6 -1 0
1532257713151853 0 1 -1 0 -5 -11 1 0
1532257713181774 -1 0 0 -1 -1 12 1 1
1532257713196733 1 -1 -1 -3 -3 -4 1 1
1532257713219672 -1 -2 -1 1 2 17 0 0
1532257713256573 0 -1 0 0 1 6 0 -1
1532257713271539 -1 -2 0 0 -1 3 1 -2
1532257713302456 1 -1 -1 0 -2 -4 -3 0
1532257713324398 -2 -1 -2 -1 1 0 -1 0
1532257713339358 0 -1 -1 0 -12 -3 -2 0
1532257713362297 1 -1 -3 -3 1 -2 -2 0
1532257713377257 -3 -3 -1 -1 3 -1 -2 0
1532257713392474 -2 -1 -1 -1 3 2 1 -1
1532257713414417 -1 -1 1 0 -7 4 -1 -1
1532257713444337 0 -1 -1 -3 0 -3 -1 -1
1532257713467276 -1 -1 0 -1 1 -1 -2 -1
1532257713497196 -2 -1 -2 -3 -12 -2 0 0
1532257713512156 -2 -2 -1 2 0 -5 1 -2
1532257713527116 0 -2 0 0 -2 4 -1 -2
1532257713557036 1 -2 -1 -3 -15 -4 -1 0
1532257713579975 -2 1 -1 -4 -3 0 -1 -1
1532257713609895 -1 -1 -2 0 -3 -5 -3 -1
1532257713646796 -1 -2 -2 -1 -2 -2 -2 -4
1532257713669735 -1 -1 1 3 8 5 0 -3
1532257713691676 0 -1 -1 1 5 10 1 0
1532257713714615 -1 -1 0 -2 5 9 -1 0
1532257713736556 -2 -2 1 0 4 9 2 0
1532257713751516 0 -1 0 3 4 2 0 -1
1532257713789414 0 -1 0 2 -9 0 -2 -1
1532257713834295 -4 -2 -1 -2 -3 -4 0 -2
1532257713857233 -2 -2 0 0 -1 4 -2 0
1532257713902113 -2 -2 0 1 9 -4 -2 0
1532257713946993 0 0 -2 1 -1 5 -2 -1
1532257713991872 -2 -1 -1 0 3 4 0 0
1532257714006833 -1 -1 0 -3 -10 3 0 -1
1532257714029772 0 -1 0 3 5 -2 0 -1
1532257714074652 -2 -2 -1 2 1 0 0 0
1532257714126513 -1 1 -1 -3 3 -2 -2 -3
1532257714187350 0 -1 -1 -1 -2 -1 0 -1
1532257714217271 -3 -1 -2 -2 -3 -2 -1 -2
1532257714269148 -2 0 0 -2 0 -1 0 -1
1532257714359889 0 1 -2 -1 -1 0 -1 0
1532257714411750 -1 -2 -3 -2 5 -2 0 -1
1532257714547387 -1 -1 -2 -2 -2 -1 -1 0
1532257714629169 -1 -2 0 -1 0 -1 1 3
1532257714682028 -2 -4 0 -2 1 -1 -3 -4
1532257714704966 -2 -1 -1 -3 -4 0 1 0
1532257714764806 -3 0 -2 -2 -2 0 -1 -3
1532257714794741 0 -1 -1 -1 0 -1 -2 0
1532257714809686 -2 0 -1 -1 -3 -2 0 1
1532257714846588 -1 -1 -2 0 -9 -2 -2 -2
1532257714899446 -1 0 -1 -2 3 0 -1 -1
1532257714914406 -1 0 -1 0 1 -1 -1 0
1532257714952313 -2 -1 -2 -2 1 -2 -1 -1
1532257715027104 -1 -3 -1 0 0 -1 0 0
1532257715057025 -1 -2 -1 -3 2 3 0 -1
1532257715071985 -2 -1 -2 -1 0 -2 -1 -2
1532257715101906 -1 -1 0 -2 6 0 0 -2
1532257715116865 -2 -2 0 0 0 0 0 -1
1532257715131824 -1 -2 0 -1 -4 -3 -1 -1
1532257715191665 -1 -2 -2 3 1 2 -1 -2
1532257715275440 -1 0 -1 -5 -1 3 1 -1
1532257715388141 1 -2 0 0 -3 -19 1 -1
1532257715440001 -1 -1 1 -14 -2 -7 -2 0
1532257715469921 0 3 0 7 -24 -8 0 0
1532257715491862 1 -2 -6 -2 6 11 2 0
1532257715514801 0 3 0 5 -12 -13 -6 -2
1532257715574641 -3 -7 -7 3 2 -11 -4 -2
1532257715604561 1 -2 3 -1 17 -26 0 0
1532257715642460 0 5 10 11 -23 -17 -1 0
1532257715807019 0 5 -1 7 -8 -9 -5 -2
1532257715934678 8 -3 1 -1 5 -20 2 2
1532257716048374 -2 3 3 -1 -1 10 2 2
1532257716077297 24 -1 -2 -2 -1 5 3 12
1532257716234875 -1 -1 -1 -6 -14 3 -1 2
1532257716294716 0 0 0 1 -3 13 7 1
1532257716348571 -1 -2 -4 -4 -3 -16 -3 -3
1532257716399435 -1 0 -1 -8 -7 -36 -10 -2
1532257716489194 1 0 0 0 -3 -1 2 2
1532257716512133 -1 -2 -4 -2 -8 -7 -3 0
1532257716586933 -1 -2 1 -1 -2 8 0 1
1532257716624832 4 6 2 0 -1 0 0 1
1532257716647771 2 2 1 -2 -1 -14 -1 -1
1532257716676694 -2 -1 0 0 -2 24 0 -2
1532257716699632 -1 -2 2 1 -3 15 -1 -3
1532257716721574 -3 -2 -1 1 -2 21 -2 -1
1532257716744512 0 -4 -2 -5 -6 -11 -4 -1
1532257716789392 0 -3 0 2 4 30 4 2
1532257716827291 0 7 5 -1 0 15 -1 -1
1532257716894112 6 1 0 -2 3 21 7 4
1532257716917051 -3 -4 -2 -2 -4 53 -1 -3
1532257716991850 0 0 -3 0 -2 26 4 3
1532257717066651 -6 -2 -2 -5 -9 -38 -9 -5
1532257717119520 -15 -7 -8 0 0 -3 -1 -4
1532257717172368 11 -2 1 -3 8 19 1 0
1532257717217248 4 0 0 -1 -6 -20 0 0
1532257717239189 5 -3 -1 2 8 18 1 1
1532257717381808 12 -4 0 0 0 -2 -1 1
1532257717411728 -3 -1 -1 0 -3 5 -5 -5
1532257717494510 10 1 1 -1 0 -4 1 3
1532257717517445 17 -1 -1 -1 -2 -7 0 -6
1532257717547366 -9 0 1 0 1 -4 -4 -2
1532257717569317 0 5 -3 -2 -7 -16 -1 -1
1532257717607206 -3 -1 -1 -2 -1 -17 -3 6
1532257717629147 -4 -6 -3 -1 -1 6 -1 -3
1532257717674027 12 0 -2 0 -2 -2 1 5
1532257717711925 -7 -2 -2 -2 -4 -4 0 -2
1532257717771765 -1 -2 1 1 1 3 1 3
1532257717846565 -7 0 -1 -1 -2 0 -1 -5
1532257717884463 40 -2 -2 0 0 -2 -1 3
1532257717937323 -2 -5 -2 1 0 -1 -2 0
1532257717952283 -9 0 -2 -1 -1 -2 0 -1
1532257718004144 -10 2 -1 -1 2 6 -1 -2
1532257718027083 1 0 -1 -1 0 -4 -2 -2
1532257718109861 -2 -1 -4 -5 1 3 -1 -2
1532257718131803 0 2 0 4 -16 11 1 -1
1532257718161722 2 -2 -3 -3 16 33 0 1
1532257718184661 -1 -1 -1 -13 -39 0 16 4
1532257718244501 -2 -4 -2 13 -26 -24 -8 -4
1532257718289381 -2 1 -2 -9 -45 -22 -1 0
1532257718372160 0 -1 2 -3 33 1 0 -1
1532257718469915 1 1 8 17 31 32 4 3
1532257718545696 -1 0 -4 -23 -25 13 5 2
1532257718596560 -2 -4 -10 -21 -4 3 -4 -3
1532257718747156 -1 -8 -6 -3 -8 3 2 1
1532257719069303 -2 -3 -8 -2 -3 -12 -4 -3
1532257719174015 -4 -4 -3 -1 1 -4 -4 -1
1532257719196954 -11 -4 0 0 -1 -3 -1 -3
1532257719256794 -1 2 -1 -6 -1 12 4 1
1532257719286714 3 0 -4 -7 -12 9 4 0
1532257719316634 1 -1 -1 -1 -8 -15 -7 -1
1532257719340570 0 0 -3 -4 0 3 1 -1
1532257719377471 -1 -1 -2 -5 -8 -14 -4 1
1532257719392432 -2 -3 -4 -3 -4 -3 2 -1
1532257719437311 -2 0 1 -1 -4 -7 -3 -1
1532257719467231 -3 -1 0 -2 -1 3 0 -1
1532257719489172 -1 2 2 -2 -4 -4 -1 0
1532257719550010 3 2 2 -1 -3 0 0 1
1532257719571952 -3 -1 -1 1 -2 -1 0 -1
1532257719586912 -1 -2 0 0 -1 -2 -3 -2
1532257719624811 -1 0 -1 -2 -1 -4 -1 0
1532257719639770 2 1 -2 0 0 -1 -1 -1
1532257719661711 -3 3 5 2 0 0 -1 -1
1532257719684650 1 -3 1 0 2 0 -2 0
1532257719706592 -3 0 -1 -2 -2 -1 0 -1
1532257719729530 -1 -1 0 -4 -3 -2 0 -2
1532257719744490 -1 -7 -4 -2 -3 0 -4 -1
1532257719759450 0 1 -3 -1 -1 0 -2 -2
1532257719782389 -1 -2 -3 -2 1 0 0 -1
1532257719797348 -1 3 1 0 -2 -1 -1 -2
1532257719819290 -6 -1 -3 -2 1 1 0 -2
1532257719849210 1 -8 -6 -2 -2 -12 -1 1
1532257719864170 3 -6 -2 -5 4 32 -1 -2
1532257719894090 4 5 0 0 3 21 -1 -1
1532257719917029 -7 3 2 1 0 13 -2 -2
1532257719969887 -6 1 -1 3 10 -12 2 1
1532257719991829 0 1 2 5 22 -1 2 -3
1532257720014767 0 -2 -1 -2 -5 15 2 2
1532257720029727 1 -2 -3 -6 -12 43 -3 -1
1532257720044687 -4 -2 -3 -3 19 32 3 -3
1532257720066629 -1 -2 0 0 -7 -49 -2 0
1532257720081589 0 -1 -1 0 6 8 1 -1
1532257720096549 0 0 -2 -2 -8 -27 0 1

1532257720119488 1 0 -2 -1 -4 3 0 -3
1532257720172345 2 1 0 -3 -5 -15 -2 -2
1532257720194296 -3 1 0 -1 -6 -23 -1 -1
1532257720224207 2 2 0 0 4 24 -5 1
1532257720239167 0 0 1 6 9 -4 1 -1
1532257720254127 1 -2 -2 -2 3 -15 0 -1
1532257720269087 0 0 1 -2 2 -4 1 0
1532257720292026 -2 -1 -2 -4 3 8 -1 -3
1532257720314979 0 0 -1 1 0 -5 1 0
1532257720329925 -1 -2 -2 -1 -1 -3 -3 0
1532257720351865 -1 0 -1 -3 2 -3 1 4
1532257720374805 -5 -4 -1 0 0 0 0 -4
1532257720389765 0 -2 -3 -1 -3 -2 -1 -1
1532257720411706 -1 0 -1 0 0 -3 0 -3
1532257720434644 0 1 0 0 -1 -2 -2 -2
1532257720456585 -1 -2 -1 -3 -8 -1 -2 -1
1532257720479524 -1 -2 -2 1 0 -2 0 -1
1532257720502463 -3 -1 -1 -4 -12 -2 -2 -1
1532257720517423 -3 0 1 1 -7 -1 -1 -1
1532257720532383 -2 -1 1 -5 -7 0 -2 1
1532257720562318 0 -1 -1 -1 5 -2 1 -1
1532257720577280 0 0 2 2 2 -1 -2 0
1532257720607199 -2 -2 0 -3 -1 2 -1 -2
1532257720637119 2 -1 0 6 2 1 3 1
1532257720667038 -1 -1 -2 -2 4 -1 0 -1
1532257720681999 -1 0 -4 -2 -3 -3 -2 -2
1532257720696959 -1 -3 0 -1 0 -1 0 -2
1532257720711919 2 0 0 -1 -3 -1 1 7
1532257720734857 -1 0 0 -2 -7 -1 -3 3
1532257720749818 -2 0 0 6 11 -1 2 -1
1532257720779907 -1 -1 -2 -6 -8 -1 0 0
1532257720801848 -2 -2 -2 -2 -5 -2 -1 -2
1532257720839747 -2 -1 -1 0 1 0 -1 2
1532257720869666 -2 -1 -2 -2 -1 1 2 0
1532257720899601 -3 -1 0 -4 0 -1 -2 0
1532257720921528 0 0 -1 0 -10 -3 0 -2
1532257720937486 0 -3 -2 1 3 1 -2 0
1532257720959427 0 -3 -1 -1 -3 -2 0 -1
1532257720982365 -1 -1 -2 -3 -1 0 -3 1
1532257721004306 -1 -1 1 -1 -8 -1 0 0
1532257721019267 -1 -1 -1 -2 3 -1 -1 -2
1532257721034227 -2 -1 -1 -3 -2 -2 -1 -2
1532257721057165 -1 -2 0 -1 -1 -2 0 -2
1532257721072125 -2 -2 -3 0 -2 0 -1 0
1532257721094067 -1 -3 -2 -1 -13 -1 -1 -1
1532257721117005 -1 -1 0 -1 5 1 -1 -1
1532257721131965 -1 -1 -1 -2 2 1 -1 -3
1532257721154904 -1 -1 -1 -2 0 -1 -2 -3
1532257721184824 -1 0 -1 -2 1 1 -1 0
1532257721199784 0 -2 -2 0 -2 0 1 0
1532257721236686 -2 -1 -3 -1 -2 1 0 0
1532257721251645 -1 0 -1 -2 -1 -3 -2 -3
1532257721274584 0 -1 -2 -1 -12 -3 -2 -1
1532257721289543 -2 -1 0 0 1 -1 0 -2
1532257721304504 1 -3 -2 -1 -2 1 -2 -1
1532257721319504 -2 -1 1 -2 4 1 0 -2
1532257721334424 -1 -3 -1 -2 1 0 0 1
1532257721357363 -2 0 -2 0 2 -2 -1 -1
1532257721372340 0 -2 0 -2 -2 -3 -3 -3
1532257721402243 -2 -1 -1 -2 -1 0 -1 -2
1532257721424184 -2 -1 -3 -1 0 -1 -2 0
1532257721439144 -1 0 -1 -1 -3 0 2 0
1532257721462083 1 -1 0 -1 1 -2 -1 1
1532257721484024 0 -1 0 0 -2 -1 -1 -1
1532257721498984 0 -1 -2 -2 -2 -1 -2 0
1532257721521923 0 -1 0 -2 0 0 -1 0
1532257721551842 -1 0 -2 -1 -2 -1 0 -2
1532257721574781 -1 -2 -1 -2 -10 -1 -1 -1
1532257721604701 -2 0 -1 -1 -4 -2 0 -3
1532257721619662 -2 -2 0 -2 1 -2 -2 -2
1532257721641602 -1 -1 -3 -1 0 -1 -1 -2
1532257721679501 -1 -1 0 1 -2 -1 0 0
1532257721717400 0 -3 -1 0 0 0 -1 -1
1532257721784221 -1 -1 -1 -2 3 -2 -1 -3
1532257721837080 0 0 0 2 2 0 -2 -2
1532257721904899 0 0 -2 -1 -1 -1 -5 -1
1532257721949779 -1 0 -1 0 1 -2 -3 -1
1532257721964739 -3 -1 0 -1 2 0 0 -1
1532257721994658 0 -1 0 0 -1 -1 0 -2
1532257722009619 0 -3 -1 -1 -2 -1 0 -1
1532257722024586 0 0 -1 -2 -4 0 -1 -1
1532257722062476 -1 -2 -3 -1 -1 -2 -1 0
1532257722084419 -2 -1 -2 -3 -2 -1 -1 -2
1532257722129299 -2 -2 0 0 7 0 0 -1
1532257722144258 0 -2 -1 0 0 -1 0 -1
1532257722212077 0 -1 -1 -2 -3 -2 0 0
1532257722256957 -1 -2 -1 -1 2 -1 -2 -2
1532257722271916 -1 -1 -1 -1 1 -1 -1 -1
1532257722294856 1 -1 -1 -2 0 -1 -1 -2
1532257722324776 -3 -2 -1 -3 -1 0 0 1
1532257722361677 -1 -1 0 1 -2 -1 -1 0
1532257722414535 -2 -1 -1 -2 -1 0 -2 0
