1532260714279757 -3 -3 0 -1 0 1 3 2
1532260714322645 -1 0 0 0 -1 2 -1 -2
1532260714390461 0 -3 -2 0 -3 -1 -1 1
1532260714463266 0 1 4 5 -17 -3 -3 1
1532260714598904 0 8 -3 -2 5 -2 -3 -2
1532260714643784 -1 -1 -4 -6 -6 -5 -1 -2
1532260714713597 -1 0 -3 -4 4 2 6 -1
1532260714771442 -1 -2 -3 -3 6 -1 -2 4
1532260714831282 0 -2 -4 -15 8 2 -5 1
1532260714923037 -1 -3 -5 1 4 1 -1 4
1532260714944978 0 2 3 0 -3 5 12 7
1532260714958941 3 0 1 2 0 -6 -14 -16
1532260714981879 -8 2 2 2 5 -16 -31 -32
1532260715025771 1 -3 -5 -1 4 5 16 -5
1532260715058677 -4 3 1 -3 -47 -19 21 25
1532260715110535 11 -22 -13 -6 -3 -28 25 103
1532260715154421 -11 -10 -9 -7 -6 61 -41 25
1532260715224248 -20 0 -13 -30 -49 -7 -71 -60
1532260715240189 -29 -19 -11 -25 28 -56 -60 -16
1532260715290055 -10 17 -1 -3 -5 3 -64 -49
1532260715297036 -7 -22 3 10 22 7 124 41
1532260715386796 1 -1 -8 3 -5 -18 -53 -82
1532260715409735 16 10 4 -2 -16 -29 -9 57
1532260715432674 -5 -17 1 0 2 -23 -11 38
1532260715454615 -16 -14 -9 -14 -21 -4 -82 54
1532260715506476 14 -14 -3 7 3 18 -57 -5
1532260715527420 8 27 9 12 2 6 23 -2
1532260715566316 26 5 -2 -5 6 10 29 -13
1532260715733869 7 34 -8 -5 -46 6 0 1
1532260715792711 -30 19 16 10 -13 -9 13 -28
1532260715800689 -23 24 -5 -22 -16 6 5 3
1532260715872498 -16 -4 -19 -18 2 17 14 -44
1532260715896434 1 90 -1 5 -10 2 12 -7
1532260715971234 5 -33 10 -3 3 -14 3 3
1532260716026087 3 22 9 7 -4 7 -3 1
1532260716038055 0 -16 -7 2 3 -11 16 -1
1532260716100887 -1 -10 -4 4 30 0 6 0
1532260716121832 2 -14 0 -7 33 -4 0 1
1532260716174690 -4 0 -2 -5 8 -1 -6 -2
1532260716198625 -2 -8 -3 -8 28 0 5 2
1532260716348226 -2 -12 -1 0 -11 -6 3 -3
1532260716355207 4 -2 1 -3 29 -5 -10 15
1532260716378146 -4 -11 0 -2 0 -3 -4 -11
1532260716401109 -1 -24 -3 -2 1 4 2 3
1532260716452945 1 5 1 -1 1 0 0 5
1532260716610525 -2 -5 -5 -4 -1 0 5 2
1532260716632465 4 5 -5 -1 1 0 6 11
1532260716657398 -2 -5 -1 -5 -2 -2 -4 1
1532260716678343 -2 -17 -10 -3 0 4 4 -3
1532260716745164 -1 12 -1 -5 -5 -3 -6 2
1532260716903741 -1 3 -4 -3 -6 -2 3 0
1532260716909724 -2 3 -5 -4 -1 1 -23 -7
1532260716938662 -2 -1 -2 -3 -1 -2 -4 -5
1532260716984525 -1 8 -1 7 -2 -2 -1 -6
1532260717009458 -3 -18 -9 -8 -4 0 1 -1
1532260717144097 4 18 -3 -4 -1 1 -4 2
1532260717165041 0 1 0 0 3 -1 3 -1
1532260717185985 -4 -4 -3 1 0 0 -6 -1
1532260717230866 11 3 -2 -4 1 -2 -5 -5
1532260717285719 -4 10 -3 2 -2 2 -1 -2
1532260717321622 -4 -23 0 1 0 0 -3 -7
1532260717418364 -5 -16 2 2 -1 1 -6 -5
1532260717445292 -1 5 -2 -3 3 2 -3 -6
1532260717460253 -3 12 3 2 1 0 3 7
1532260717501143 -3 4 -1 1 3 -5 -1 2
1532260717515105 0 -1 -7 -4 -4 -1 0 0
1532260717561980 0 -8 -4 -1 1 -2 -1 -2
1532260717720555 -2 6 7 0 0 2 -18 -4
1532260717742497 0 0 2 1 -7 1 1 2
1532260717786380 -1 1 -3 -1 1 -2 0 2
1532260718011778 -7 -10 -3 -6 0 4 -2 0
1532260718035718 -5 -2 -4 -3 24 30 -3 -3
1532260718063638 0 -6 -7 -2 -46 -15 3 0
1532260718163372 5 19 -3 -1 -10 -10 11 1
1532260718185313 0 -6 -2 3 16 15 -1 -1
1532260718206257 -6 13 -1 -1 26 -18 3 -4
1532260718230193 -6 4 -3 0 -8 4 -10 -5
1532260718253134 1 -34 -4 -7 4 7 14 -2
1532260718290033 1 -29 1 0 11 9 -1 2
1532260718304993 4 3 5 9 -7 -10 10 5
1532260718327946 2 -20 5 23 31 9 -18 -3
1532260718386774 -1 -32 -14 -10 40 10 9 -7
1532260718528396 2 4 11 30 -9 5 21 6
1532260718553329 5 8 9 5 -32 -31 -10 -2
1532260718575270 10 -28 -4 2 21 1 16 6
1532260718596213 32 -14 0 -11 -40 -1 -16 26
1532260718665030 13 87 3 14 -3 -17 -4 1
1532260718747808 1 -22 7 -10 9 84 -19 -3
1532260718845548 1 -3 6 26 -11 -15 -33 11
1532260718867489 1 -6 0 -4 -6 -1 8 2
1532260718905388 -1 1 0 -3 -12 -6 4 0
1532260718926332 0 9 -2 -7 -6 -1 9 0
1532260718978193 -2 2 0 -3 -2 -19 -1 0
1532260719033046 1 1 -1 -2 -4 -11 -9 -2
1532260719055004 -1 -7 1 12 2 -1 0 0
1532260719084907 18 9 4 -1 -13 -11 -3 -3
1532260719167701 4 -9 1 -4 -3 2 -8 -33
1532260719184641 1 16 27 35 -1 25 4 19
1532260719317286 -1 -6 -3 9 19 11 7 2
1532260719400064 -3 -7 -6 -16 -77 -49 -8 -2
1532260719424998 -2 -1 2 0 0 16 4 1
1532260719479851 -1 -2 -8 -7 -8 -8 -3 1
1532260719572604 0 1 0 6 14 4 2 -2
1532260719617483 -2 -2 -1 -2 3 1 -5 -2
1532260719661366 -1 -1 -3 -2 -17 -2 -4 -1
1532260719680315 0 1 -1 -2 -4 4 2 2
1532260719723201 -2 -3 -3 -2 -13 -1 -1 0
1532260719730182 7 -1 -1 -3 -3 1 -2 -2
1532260719758107 0 0 -1 1 7 0 0 -2
1532260719783048 -2 -2 2 1 1 -4 -3 0
1532260719806982 0 -1 0 -1 0 -3 -3 -3
1532260719828918 -4 -3 -1 0 -3 -3 -1 0
1532260719871803 -1 0 -1 -2 -1 -3 0 0
1532260719941617 0 2 -2 0 -3 -4 -2 -2
1532260719977520 -1 -3 -1 -2 -6 0 -1 -2
1532260719984501 -1 -2 -1 0 0 -2 -3 -2
1532260720014421 -2 0 -1 -1 1 0 -2 -2
1532260720059302 -5 -2 -1 -1 -1 1 -2 -2
1532260720126123 -1 -2 -2 -2 1 -2 0 2
1532260720195944 0 -1 -1 1 0 0 0 -1
1532260720217878 -1 -2 -4 -1 -2 -1 -1 -1
1532260720253781 -1 1 0 0 2 0 2 0
1532260720292678 2 -1 -3 0 -2 -2 -1 0

1532260720314648 1 1 0 0 0 -1 -1 -2
1532260720510184 -2 0 -1 1 -3 -1 0 -2
1532260720546088 -1 0 0 -3 -2 -1 -3 0
1532260720592964 0 -3 -2 -1 -2 -4 -1 -1
1532260720657789 3 -1 -2 -1 -2 -1 -1 2
1532260720683720 -3 -1 -1 0 0 -1 0 0
1532260720727602 -3 -2 0 0 0 0 -3 -2
1532260720750541 2 -1 -2 1 0 -3 -3 -1
1532260720831325 1 -1 0 -1 -2 -2 -2 -1
1532260720869238 -2 -1 -2 -2 -1 0 -2 -1
1532260720981922 -1 -1 -1 0 -1 -2 -1 -1
1532260721026802 0 -2 -1 3 1 -1 -2 -1
1532260721145485 -1 -1 -1 4 0 0 0 2
1532260721193356 0 1 2 1 -2 0 1 0
1532260721306059 0 0 0 0 0 -1 -1 -1
1532260721326002 -4 -1 -1 -2 -1 -1 0 -1
1532260721350935 -2 0 -1 -3 0 0 -1 -1
1532260721423740 -3 -1 0 1 -1 -1 -4 -2
1532260721538436 -2 -1 0 -2 0 -1 0 0
1532260721620774 -2 1 -3 -1 -1 -1 0 -2
1532260721681612 -3 -2 -1 -2 0 0 0 2
1532260721815254 2 -3 -2 0 -1 0 2 2
1532260721896039 -2 1 -1 0 1 -1 -1 -2
1532260721935931 0 -1 0 -1 -2 -1 0 -3
1532260722048287 -2 -1 -1 -1 -1 0 1 -3
1532260722115109 0 -2 0 1 -2 -1 -2 -2
1532260722164975 -2 -3 -1 -1 1 -3 0 0
1532260722235785 -2 1 -1 -2 -2 0 -2 -2
1532260722371423 0 -2 0 -3 -1 -2 -1 -2
1532260722415306 1 0 -1 -2 -2 0 0 0
1532260722443231 -1 0 -2 -1 -2 -2 0 -1
1532260722489109 -2 -1 0 -2 0 0 -1 -2
1532260722534985 -1 0 -1 0 -1 -2 -2 -1
1532260722625743 -1 0 -1 -2 -2 -3 -1 -2
1532260722648682 0 -2 0 0 0 -1 0 0
1532260722692564 -2 -1 -2 -2 0 -1 1 -2
1532260722731460 0 -2 -1 0 -3 -1 -2 -1
1532260722751406 0 0 0 -1 0 -2 -1 -1
1532260722789306 -2 -3 0 0 -3 0 -1 -1
1532260722835183 -3 -3 -1 1 0 -2 0 -1
1532260722881060 -2 -1 -1 0 0 -1 -1 -3
1532260722925947 -1 -1 -1 0 -2 -1 0 0
1532260722967828 1 -1 0 -3 -2 -1 -3 -1
1532260723021687 0 -1 -1 -1 -1 -4 -2 -2
1532260723046617 -1 -2 -3 -1 -1 0 0 1
1532260723097481 -2 -1 0 -1 -2 0 1 0
1532260723204196 -3 -1 -1 -1 -3 0 -2 -2
1532260723247081 0 -1 0 1 -2 -1 1 0
1532260723286975 1 1 -2 -3 0 0 0 0
1532260723307775 -1 -1 -1 -1 1 1 0 -1
1532260723323733 0 -3 -1 0 1 2 -2 0
1532260723327722 1 -1 0 0 0 -1 1 -1
1532260723366618 2 1 -2 0 0 0 0 0
1532260723389557 11 -1 -1 -1 -2 -3 -1 1
1532260723488306 -5 2 -1 -2 -2 0 -3 -1
1532260723549130 -3 -2 -1 1 -2 -2 0 -1
1532260723570074 -3 -1 -2 -2 -3 -2 -1 -2
1532260723599994 0 -2 0 0 -2 -1 0 -2
1532260723781521 0 -1 1 7 14 -19 -2 0
1532260723808444 -1 -3 -2 -1 -2 25 0 -4
1532260723842353 -1 -2 -2 -4 -30 -8 -3 -1
1532260723913163 -3 -4 -1 -3 -10 22 4 -3
1532260723966022 -1 1 3 0 4 0 -3 -1
1532260724005922 0 0 -1 -2 -2 -3 -4 -2
1532260724073734 -8 -1 0 0 -1 9 -8 0
1532260724079719 0 -1 -1 -1 2 -10 -1 -7
1532260724154527 -6 -5 -3 0 4 18 7 -44
1532260724175478 5 -2 -2 -1 -2 -13 -4 18
1532260724221372 12 0 -2 1 1 -3 1 3
1532260724335052 -3 0 -2 -1 0 7 -2 9
1532260724377937 -7 -1 2 0 -1 -8 -1 -11
1532260724401873 -2 0 -1 1 -2 1 0 4
1532260724415835 -2 0 1 0 0 6 -7 -6
1532260724461729 2 1 2 -1 -1 35 -5 -2
1532260724674170 -1 -1 -1 -4 -1 -11 -6 -7
1532260724693111 -8 -2 -1 -2 1 -1 2 0
1532260724723031 4 -2 -1 -2 -2 -24 -11 -6
1532260724792844 -3 0 -2 -2 0 -3 -7 2
1532260724835729 -3 -1 1 0 0 -2 -6 -2
1532260724890583 12 -1 -2 -4 -3 -12 -2 0
1532260724935463 -17 0 -2 0 0 -1 1 -2
1532260724958401 -7 -3 -2 -2 1 -6 -6 11
1532260724981346 4 0 1 0 0 0 -1 2
1532260725003281 -5 -2 1 1 2 -2 -5 -10
1532260725024225 3 0 -1 1 0 0 -5 1
1532260725046254 0 -1 1 -2 0 2 -5 0
1532260725093128 5 0 -3 -3 -2 3 -4 8
1532260725100110 -8 -1 -4 -2 -3 -2 5 -2
1532260725190867 2 -1 -2 0 -1 -7 -4 -4
1532260725257689 -2 -2 -3 -2 -1 0 -6 -2
1532260725280627 16 -1 0 -2 0 -4 -6 3
1532260725347798 -6 -2 -3 -3 -1 0 2 -2
1532260725400657 -1 -2 -1 -2 -3 2 6 -1
1532260725423613 8 -1 -2 -4 1 0 -2 -2
1532260725468478 0 -2 1 1 0 0 -1 -3
1532260725513355 -3 -3 -1 1 -2 1 -1 -3
1532260725535297 -2 0 -2 -4 -1 4 -10 -3
1532260725558235 -3 -1 -2 -3 -1 -1 -1 1
1532260725700854 -1 -1 0 0 0 -6 2 2
1532260725722796 -1 -1 0 -1 -2 -3 3 1
1532260725745733 -15 0 -1 0 -2 -3 -2 5
1532260725768673 4 1 -2 1 -1 2 -1 2
1532260725790614 3 -2 0 0 2 -4 3 2
1532260725835504 -10 -1 -1 -1 0 -5 -5 -1
1532260725858433 -2 -1 0 0 0 -1 -1 3
1532260725910294 2 -1 -2 -1 -1 -7 -1 -6
1532260725955174 1 1 -2 -1 0 -1 2 0
1532260726023991 -3 -2 -3 -5 0 -3 -1 3
1532260726059894 1 1 -1 -1 -3 1 -4 -4
1532260726082833 -1 -2 -2 -1 -2 -3 13 -1
1532260726088817 -2 -1 -3 -4 -2 -1 1 -3
1532260726111755 -2 0 1 -1 1 1 1 -5
1532260726165611 -3 -1 -2 -2 -1 6 3 -8
1532260726187552 -5 0 2 1 0 0 -7 -10
1532260726211505 -5 2 -1 0 0 0 -4 -4
1532260726232433 1 0 -1 1 1 -2 -4 4
1532260726254374 1 0 0 0 -2 1 7 -4
1532260726275318 -10 -2 0 -1 -2 -1 1 -1
1532260726324187 -1 1 1 0 0 2 1 -2
1532260726337153 2 0 -3 -2 0 1 -3 12
1532260726359112 4 -1 -1 -2 -1 0 1 -2
1532260726396993 -3 -1 -1 0 -1 2 -2 -7
1532260726508700 -6 -2 -2 -3 -1 -2 -6 -4
1532260726555581 3 -2 -1 2 -1 1 -1 -1
1532260726638355 -3 -1 -3 -1 -1 -1 1 -3
1532260726646334 -4 0 -2 0 -1 -3 -1 -2
1532260726697197 6 -2 1 -2 2 0 -3 0
1532260726721150 -3 -2 -1 -1 -1 0 0 -2
1532260726787972 1 -1 -3 0 -1 -1 -1 0
1532260726832833 -2 -1 -1 0 -3 -3 -4 -8
1532260726855786 2 -1 -2 0 -1 -1 -3 -1
1532260726892673 0 -2 -1 -2 -1 0 -3 2
1532260726928577 -6 0 -3 1 -2 0 -5 -3
1532260726952513 -1 0 -2 0 -1 -2 2 3
1532260726975452 1 -1 -1 -1 -1 -2 3 2
1532260727019335 -3 -3 -3 -2 -1 0 4 0
1532260727065211 -3 -1 0 -1 -1 -2 -17 -3
1532260727133031 0 0 -3 -4 0 1 -3 -1
1532260727170934 1 0 -1 -1 -1 2 2 3
1532260727193874 -11 -1 -2 -2 -2 5 -1 -2
1532260727229772 1 0 0 -2 0 -3 -2 0
1532260727274675 -5 -1 -2 -3 -2 -1 1 -3
1532260727296593 -2 -3 -1 -1 -1 -2 -4 -2
1532260727343468 1 -2 -1 -2 -2 -2 -8 -2
1532260727365409 4 0 -1 -2 -1 -3 -3 -4
1532260727450182 0 -1 -2 -1 -2 -1 -1 -2
1532260727491075 -9 -1 1 0 0 -1 -9 -3
1532260727528211 5 -1 -2 -1 -3 -3 -7 -2
1532260727618968 -4 -2 -2 -4 -3 -2 -3 -3
1532260727665843 -1 -1 -1 0 -1 0 0 -1
1532260727723704 3 20 -7 -10 -2 -18 -3 0
1532260727763582 -30 -86 0 -28 3 0 2 38
1532260727814446 10 18 -42 -2 2 3 -1 6
1532260727913190 4 2 -2 -43 -20 2 0 4
1532260728003938 -8 -24 -21 -40 -20 -11 -6 -6
1532260728034272 -4 -2 -3 -12 -5 29 2 2
1532260728099100 -9 -5 -17 -31 -16 -19 8 2
1532260728196839 -10 -4 -3 19 12 -10 -15 -2
1532260728219778 -4 -11 3 -10 -20 -12 1 0
1532260728233740 0 27 7 9 13 8 5 -1
1532260728273635 2 -2 8 5 11 7 2 -1
1532260728301559 -2 -1 3 -12 -41 -9 -6 -3
1532260728430215 -10 -64 -10 -4 -6 1 3 -1
1532260728533938 1 -2 9 -5 -18 -5 2 -1
1532260728775292 6 0 -2 -3 -5 3 0 -2
1532260728835133 -6 -6 -4 0 6 -1 -2 -1
1532260728939853 -3 -4 -3 -3 0 -4 -1 -1
1532260729082470 -4 -5 -12 -24 -25 -9 -3 -2
1532260729113389 -1 -2 3 36 12 1 -5 -2
1532260729150290 -1 -6 -2 -3 1 -4 -5 -5
1532260729174226 -2 -2 -7 -17 -8 -7 -3 0
1532260729195170 0 -1 2 -15 -14 8 0 2
1532260729239054 -3 -3 -5 -9 2 -17 -13 -5
1532260729282935 -1 -2 -2 -5 10 51 7 -2
1532260729329810 3 -1 -1 4 6 -11 0 5
1532260729344787 -2 11 5 1 -2 1 -11 0
1532260729387654 -1 -3 -4 -1 3 20 -5 -3
1532260729411591 1 1 1 5 4 -24 -6 -1
1532260729494370 0 0 -1 0 -53 -4 1 1
1532260729507336 0 0 1 14 37 20 -1 -3
1532260729516311 -1 -2 0 -3 -13 -3 -1 0
1532260729643969 3 0 1 2 -8 9 -5 10
1532260729710791 0 -2 0 -1 17 11 2 9
1532260729794567 -5 0 -1 0 6 25 -1 -2
1532260729907265 -5 0 -2 -3 -6 -25 -1 4
1532260729975084 2 1 1 -2 -6 7 0 -2
1532260730000018 0 0 3 2 0 -10 1 -3
1532260730072826 -5 -2 0 -3 -1 -30 -2 -6
1532260730138648 -2 -2 -1 -1 -3 -20 -1 -2
1532260730209178 -8 1 -1 -4 -1 -41 -8 -6
1532260730254058 2 0 -2 -2 -1 4 -11 -1
1532260730276000 -1 -1 -1 -2 0 17 9 0
1532260730325865 -1 -1 0 0 -1 -7 -16 -1
1532260730417620 2 -1 -1 1 -2 -8 11 1
1532260730463497 -3 0 -1 -1 -1 -8 0 0
1532260730545248 -2 -1 -3 -2 -3 0 -3 -1
1532260730573175 1 -2 -1 -1 -2 -5 -2 1
1532260730672908 -3 -3 -1 -2 -1 -4 11 -1
1532260730718794 -1 -1 -2 -1 -2 5 7 1
1532260730785607 0 -1 -3 -1 -1 -4 2 -1
1532260730808546 -9 1 -1 -2 -1 4 -1 -3
1532260730858413 1 -3 -1 0 -1 -1 1 -1
1532260730926231 3 2 -1 -1 -2 -2 -6 0
1532260730973122 -2 1 0 -1 0 6 -10 -3
1532260730995147 0 -2 -2 -2 -3 -12 -6 0
1532260731017088 6 -2 -2 1 0 -6 8 7
1532260731084907 -5 -1 -2 1 1 6 1 -4
1532260731090893 -2 -1 0 -2 -2 -7 -1 -8
1532260731136768 -2 -2 -2 -3 -2 -17 -6 -1
1532260731227526 7 -1 -1 -1 4 -3 -3 7
1532260731251462 -3 -2 0 -1 -1 -4 0 0
1532260731341222 -1 -1 -2 -1 1 -1 -3 0
1532260731376131 -2 1 0 0 1 7 -3 -2
1532260731435968 -3 -2 -2 -3 -1 -4 0 4
1532260731482843 -1 -2 -4 -3 -1 -4 -1 -1
1532260731527725 -1 -1 -2 -3 0 -3 -5 -4
1532260731573601 0 -2 -1 -1 -1 -6 -1 -2
1532260731618480 4 -1 -1 -1 1 0 1 -3
1532260731641420 -1 -1 -2 -1 -1 -4 -1 3
1532260731645408 -11 -1 -2 -2 -4 0 0 1
1532260731685311 1 0 -2 -3 -1 3 -1 -1
1532260731782043 1 1 -1 -3 -1 0 2 0
1532260731805984 -9 -2 -3 -1 -1 -2 -1 -2
1532260731850858 1 -1 0 -2 0 -2 -2 -2
1532260731895739 3 0 0 -2 -3 -4 -3 0
1532260731900726 -1 -2 -2 -1 -2 -2 -1 -1
1532260731918678 -1 -3 0 -3 0 -1 -4 -2
1532260732015418 -4 -2 0 -2 -2 -4 -1 -3
1532260732081247 -3 0 -1 -2 -3 -1 4 -2
1532260732172998 -1 1 -1 -1 0 1 -2 -3
1532260732240816 -1 -1 1 2 -1 -2 0 -2
1532260732270736 -2 -1 -2 -1 -1 0 -4 -3
1532260732294672 -2 -1 -3 -3 0 -1 6 -1
1532260732384326 1 0 -1 -3 -1 3 4 4
1532260732405279 -2 -2 -1 -2 -1 1 -4 -3
1532260732451162 5 1 0 0 0 0 2 7
1532260732569986 -2 -2 -1 -1 -3 -12 1 -1
1532260732684680 -4 -1 -2 -1 -3 0 -1 -4
1532260732705638 -2 0 -2 -1 0 3 -1 -5
1532260732793389 0 -3 -1 -2 -1 -5 5 -1
1532260732826301 -2 -2 -1 0 -2 -2 0 2
1532260732915064 2 2 -1 0 0 0 4 4
1532260733005839 0 0 -1 -1 -1 -3 -3 -4
1532260733028779 -5 -2 -3 -3 -1 1 -1 -1
1532260733051717 -2 -2 1 1 -2 3 -2 -4
1532260733101583 0 0 -2 -2 -2 -5 0 -2
1532260733126517 -2 1 -1 0 2 4 1 -4
1532260733171397 0 -1 -1 0 0 -3 -3 -2
1532260733283098 -1 0 -1 0 -2 -2 2 -1
1532260733306053 -5 -1 -2 2 1 5 -17 -5
1532260733328975 4 0 -1 -1 -2 3 0 0
1532260733447658 -1 0 1 0 1 -2 -7 -3
1532260733560356 -4 -1 0 1 2 -2 -7 -5
1532260733583295 0 -2 -2 -3 -3 -2 4 4
1532260733605236 1 -1 -1 2 1 0 -4 -1
1532260733769796 -2 0 1 -1 -1 3 1 -3
1532260733792735 -2 1 -1 -3 -1 0 3 -3
1532260733815673 -3 0 -2 -4 -2 -2 1 0
1532260733838615 1 0 0 0 -2 -1 7 2
1532260733843599 -3 -2 -3 -3 -1 -8 3 3
1532260733866538 -2 0 0 1 -1 -3 -4 -2
1532260733949316 0 0 0 -2 0 -5 -5 -3
1532260734027108 1 -2 -4 -1 1 9 -1 2
1532260734049049 -1 0 -2 1 -2 -2 -8 -2
1532260734090938 -1 -2 -1 0 -2 -2 6 -2
1532260734151775 1 -3 -1 -1 -2 0 5 5
1532260734233556 -1 0 0 -1 1 -3 -13 -4
1532260734326308 -3 -1 1 1 -1 0 2 -1
1532260734346255 1 -2 -1 -1 -2 5 -16 1
1532260734392151 -3 -3 1 1 0 -2 -5 0
1532260734430030 -1 -2 -1 -2 1 -1 -2 0
1532260734557690 1 -2 -2 0 -2 -1 2 0
1532260734581625 3 1 0 1 0 -7 2 1
1532260734648446 0 0 -1 1 -1 -10 3 -1
1532260734692343 -2 0 -2 0 0 2 -6 -1
1532260734789073 -1 -2 0 1 0 7 1 0
1532260734926703 -2 0 -3 -1 -2 -1 -4 -4
1532260734945652 -2 -1 0 -2 -1 -8 -2 -4
1532260734984547 0 0 -1 0 -1 0 -6 -1
1532260735464352 0 -3 -2 -2 0 2 -3 2
1532260735546133 -2 -2 -2 -1 -2 3 -11 -3
1532260735577051 -2 -1 -1 0 -3 -6 1 -2
1532260735667808 1 0 0 0 1 0 1 -1
1532260735735627 1 0 -1 -2 -2 3 -2 -2
1532260735801451 -1 0 0 -1 1 6 -1 -1
1532260735838364 -9 -1 -3 -2 -2 -5 7 -1
1532260735945066 2 0 -1 0 -2 0 2 -1
1532260736035824 -4 -1 -1 -1 -2 -3 10 -1
1532260736093669 2 -1 0 -2 -2 -7 -4 -1
1532260736102645 1 -2 1 0 -1 -3 -2 1
1532260736319717 0 -4 -3 -3 0 4 -1 1
1532260736336670 0 -2 -2 -1 0 3 -2 -1
1532260736475317 -2 -1 -1 -1 -1 2 0 1
1532260736545705 -1 -1 0 0 0 0 3 1
1532260736614520 2 -3 -2 -1 0 0 5 -1
1532260736635464 -2 0 -1 -3 -2 -4 2 -2
1532260736701288 -1 -2 -2 -3 -1 0 0 0
1532260736891779 -1 -1 0 -1 0 7 -3 2
1532260736895769 -2 -1 0 -2 -1 -5 2 0
1532260736933667 -2 0 -1 1 0 -8 -1 -2
1532260737124158 1 -3 -3 -3 -2 6 3 -2
1532260737145102 -6 -2 -1 1 0 -6 -8 -4
1532260737175023 -4 -3 -2 1 0 0 3 0
1532260737241842 -3 1 -2 -1 -1 -4 -2 0
1532260737355540 0 -3 -3 -2 0 7 1 -2
1532260737401428 1 -2 -2 -3 0 0 1 3
1532260737429342 -3 1 -1 -2 -1 -1 2 0
1532260737451282 -1 -1 -2 -3 -2 -4 -1 0
1532260737534061 10 -2 -2 -2 0 1 1 -1
1532260737587917 0 0 -2 -2 -2 0 -10 -2
1532260737632797 -2 -3 -1 0 0 13 10 3
1532260737723555 -3 -2 -2 0 -2 -6 -3 -1
1532260737729539 -1 -3 -1 -2 -1 -2 -3 -1
1532260737752477 -4 1 0 -1 -2 -8 -1 -4
1532260737790381 1 -2 0 -1 1 0 -2 -1
1532260737819298 4 -1 -2 -1 -3 -2 7 -1
1532260737886120 -2 -2 -1 -3 -2 1 -5 0
1532260737934296 6 2 -1 1 0 -1 2 4
1532260737978181 -4 0 -1 -1 -1 -2 -4 -2
1532260737991146 12 -3 -3 -2 0 4 -18 2
1532260738052786 -2 1 0 -1 -4 -6 0 0
1532260738098679 -2 -3 0 0 -1 5 -9 -1
1532260738142546 -1 0 -3 -3 0 -1 3 0
1532260738210364 -1 -3 -2 -2 -3 -7 -4 3
1532260738233303 -5 0 0 -1 -4 0 -1 -3
1532260738260231 -2 -3 -1 -1 1 -3 4 -3
1532260738284167 -2 -1 -1 -2 -1 -1 1 0
1532260738322066 -2 -1 0 0 1 -3 2 0
1532260738357970 -1 -1 -1 0 -1 -2 1 -1
1532260738397863 -1 0 2 2 0 -3 -5 -2
1532260738441745 0 -1 0 -2 0 1 2 0
1532260738547750 1 -2 -2 -1 0 -2 0 -1
1532260738556726 -2 0 -1 -2 -2 -4 2 0
1532260738586647 -1 -3 -2 -2 -1 0 1 -3
1532260738607591 -1 -2 0 -2 -1 2 -1 -2
1532260738630528 -1 -1 -1 0 -3 -7 4 0
1532260738653482 -2 -1 2 0 0 -1 -2 -1
1532260738696352 -2 1 0 -3 -2 -2 1 0
1532260738743227 0 -1 -2 1 1 -2 1 -1
1532260738826006 -2 -2 -2 -1 0 -2 -2 0
1532260738837974 0 -1 0 0 -1 0 -2 -1
1532260738870167 -2 -2 -1 -2 -3 -4 -2 -2
1532260738906381 1 -1 -2 -1 -2 -1 0 0
1532260738951255 0 -1 -3 -2 2 1 0 0
1532260738997133 -1 -1 2 -2 -1 1 -1 -1
1532260739019093 0 2 -2 -2 -14 3 0 0
1532260739056992 -2 -4 2 5 2 -5 -1 -3
1532260739079930 -1 12 -4 -10 -11 -9 -4 -2
1532260739089904 -1 -3 5 -5 -18 1 -2 -1
1532260739138772 -7 5 3 -2 13 9 4 4
1532260739160713 53 45 2 -9 -1 -3 17 1
1532260739199610 0 13 8 12 5 -3 21 20
1532260739228541 0 -19 13 8 -10 -6 6 -1
1532260739266988 6 -20 -17 -4 -10 1 1 -3
1532260739395644 -12 -40 2 8 6 7 3 -6
1532260739596108 1 -13 -3 -13 1 11 0 2
1532260739665921 -11 -45 -23 0 -7 -13 4 -6
1532260739677889 0 28 14 5 -10 -12 5 4
1532260739741718 -13 5 5 5 -1 5 0 5
1532260739831479 9 46 8 2 -9 -18 6 0
1532260739875362 -9 -63 -46 -13 -5 -16 3 -4
1532260739898300 -2 -9 -16 -10 -10 -13 -9 -4
1532260739918246 -3 -18 -21 -3 8 -14 -3 4
1532260739945175 -2 -16 -12 -21 -33 -7 -11 4
1532260740211462 -1 3 -9 -8 -3 -7 7 -3
1532260740384998 0 -13 -11 3 3 -8 -6 -5
1532260740405943 1 3 -3 -6 3 0 -2 0
1532260740476753 2 0 -1 -6 -14 -5 21 -2
1532260740526643 -1 -3 -3 -3 9 -15 25 -1
1532260740594438 -1 5 -2 8 9 4 -11 1
1532260740767974 4 9 4 0 5 -13 10 1
1532260740826817 -2 -2 0 -2 -6 7 2 -3
1532260740963380 -6 -4 -1 -1 0 -1 -3 -1
1532260741044166 -1 -2 -1 0 -1 0 -3 -2
1532260741232662 0 -2 -2 0 -2 -4 -1 -1
1532260741276544 -2 0 -1 -2 -1 -5 2 0
1532260741427142 -3 1 1 -1 -1 -7 1 -4
1532260741492966 0 -1 -2 -1 -1 4 4 1
1532260741560790 1 1 2 2 4 -4 0 0
1532260741771222 -2 -1 -2 4 1 0 -3 -1
1532260741862976 -3 -4 -7 -14 -9 -5 -1 -4
1532260741884917 -1 2 -2 -3 -1 -2 0 -6
1532260741943760 -1 0 -1 -4 13 7 3 3
1532260742006592 -4 -4 -4 -9 -27 1 6 -1
1532260742027536 -1 -1 -7 -8 20 0 -5 -7
1532260742140235 0 -1 -3 -8 -5 -14 -12 -8
1532260742155194 0 -2 -2 5 10 9 -1 -12
1532260742186112 0 0 -1 -6 0 2 -14 8
1532260742206059 -3 -2 -5 -7 1 -3 -6 -11
1532260742231990 0 -7 -3 -4 -2 -2 8 10
1532260742279861 1 -1 -2 0 1 -7 9 2
1532260742397547 3 0 2 3 14 6 7 7
1532260742418496 2 3 3 10 -9 -1 2 4
1532260742446416 -4 -3 0 2 6 11 -7 -19
1532260742484315 -1 -2 -2 -7 -7 18 24 0
1532260742492293 1 1 0 3 0 -20 35 4
1532260742604992 -5 -5 -2 -2 1 3 -64 -49
1532260742650869 2 -6 0 0 -4 12 15 74
1532260742672811 3 6 1 14 3 -3 57 -13
1532260742695750 -3 -1 9 31 25 -9 14 -9
1532260742723675 -2 -1 -5 -9 -5 -22 -68 -78
1532260742770549 20 10 -3 -24 -1 -2 12 82
1532260742838367 23 12 1 1 -38 -3 22 35
1532260742883249 -13 -3 -9 -26 -21 1 14 76
1532260742905207 -12 1 -1 5 -24 -2 17 -15
1532260742928129 1 2 2 3 19 9 49 23
1532260742950069 6 7 -2 -6 -3 6 5 13
1532260742974005 3 -6 -5 -10 2 7 23 81
1532260742986970 -3 4 1 -1 -23 -3 0 0
1532260743008912 4 21 -6 2 -10 1 -3 21
1532260743091702 -4 -32 -8 -13 1 3 43 8
1532260743243286 -22 -3 -4 -12 -11 5 8 -8
1532260743252261 -5 -3 -6 -23 0 12 24 -9
1532260743293152 9 -1 -14 12 -3 11 24 -17
1532260743325066 -2 -15 -7 13 4 16 19 26
1532260743428789 -21 -49 -12 7 -2 5 -4 -28
1532260743482645 21 -31 10 7 -10 -2 -2 -26
1532260743506580 -8 9 14 -6 2 -7 -4 -1
1532260743571408 5 16 25 1 3 1 4 -5
1532260743594346 -1 -5 -6 0 -1 9 0 -5
1532260743639227 0 2 -3 -7 6 -6 1 -2
1532260743646207 -1 1 -2 -4 8 6 -6 -3
1532260743714026 -5 -1 -6 -8 -3 -20 -7 -5
1532260743736965 -1 -17 0 8 -35 -14 -1 1
1532260743774864 2 3 0 0 -1 -3 -1 9
1532260743803786 -6 5 4 1 -8 -10 -28 -12
1532260743863626 -3 9 2 -4 -10 -2 7 -4
1532260743886578 2 -10 -2 0 3 -1 2 5
1532260743924477 -2 -9 -1 -2 -1 -18 -4 -12
1532260743947415 -1 1 -3 2 -2 -1 4 8
1532260743990301 1 -3 -4 -1 0 1 1 2
1532260744068093 0 5 -1 -4 -2 1 -1 2
1532260744100008 -2 -7 -1 -2 1 -1 -2 -1
1532260744114967 -1 -84 -10 0 4 3 14 1
1532260744150870 1 19 8 -4 0 0 -1 10
1532260744375271 -1 0 9 20 4 -1 -9 -42
1532260744398209 -3 0 0 2 -1 1 12 2
1532260744412173 -3 -2 1 2 0 -3 -12 1
1532260744434114 0 -14 2 5 0 -4 7 -1
1532260744478994 -1 -42 -8 3 -1 2 13 -4
1532260744523874 -1 1 -3 -12 -4 -1 7 4
1532260744591692 0 -4 -3 -6 0 0 0 1
1532260744635575 -1 -7 -2 -2 -3 0 -2 2
1532260744654532 -2 52 2 1 -4 -6 -33 -38
1532260744690428 -3 -37 6 -1 -3 -4 -5 -4
1532260744713367 -1 10 -2 1 -1 1 -6 2
1532260744758247 -3 -12 -1 -2 0 0 -6 -6
1532260744848007 1 -15 2 -4 -1 -1 2 5
1532260744928791 -6 -10 7 -3 -1 -26 -1 1
1532260744944747 -2 1 0 0 0 6 3 -2
1532260744973671 -7 -15 0 0 -16 -15 6 -8
1532260745012567 -8 43 -5 -6 -10 -7 -3 -15
1532260745148204 6 -7 1 1 -3 3 -5 2
1532260745170145 5 1 1 -2 -15 -18 10 0
1532260745235969 -1 19 -2 -3 -4 1 -2 -12
1532260745275863 -2 -11 -3 -11 -3 0 4 3
1532260745342684 -2 -8 1 2 -1 -1 3 0
1532260745357644 0 0 1 0 4 1 -8 -9
1532260745425463 4 20 -5 -2 -3 -9 2 5
1532260745447404 -1 -7 0 -3 -5 4 3 3
1532260745471351 -4 -2 -4 -3 2 -2 -2 0
1532260745491287 0 -5 0 -2 -4 -3 -19 -2
1532260745523202 -1 34 3 -1 -2 -4 9 -3
1532260745568081 -2 -3 -3 0 -6 -11 -5 -2
1532260745612962 -2 -5 -1 -4 -6 8 -4 -4
1532260745701724 0 2 -4 0 15 25 0 3
1532260745725660 -2 -3 -3 -7 8 -20 -5 -4
1532260745914156 7 -19 -3 3 19 5 1 2
1532260745956044 -5 20 3 2 34 15 -5 0
1532260745978983 -2 9 -1 15 -57 -20 -2 -1
1532260746001921 -3 -13 -2 6 30 -22 11 -2
1532260746040817 -4 -22 -10 -29 -18 -12 3 2
1532260746076721 0 16 -10 -20 84 35 -28 -6
1532260746100657 -10 -34 14 -6 -33 -9 1 -3
1532260746123596 1 -21 2 5 -27 -11 -6 3
1532260746144540 0 -13 0 -14 -17 -2 -6 -4
1532260746353980 -6 61 -4 -1 24 21 -9 -3
1532260746535494 3 38 6 10 8 -20 -24 -6
1532260746580375 -4 -40 0 4 -40 9 10 -1
1532260746656172 0 -1 -2 3 5 1 -3 -1
1532260746678113 -1 -1 1 -1 0 24 15 -2
1532260746698060 -2 -3 -1 -3 3 6 0 0
1532260746813755 1 -3 -2 6 8 15 4 2
1532260746856636 6 5 1 -9 4 8 -4 3
1532260746871595 -2 2 -6 -7 -28 -19 -8 -3
1532260746902513 0 -6 -3 2 16 16 6 2
1532260747210689 0 -2 -3 6 -43 -15 -2 0
1532260747232630 -3 0 -2 1 -3 -6 -8 -2
1532260747413147 2 -1 1 15 -16 -55 -2 1
1532260747428108 -1 3 -6 -1 -25 -14 -1 0
1532260747449063 0 3 -1 5 2 -9 2 -1
1532260747486950 0 2 -6 -8 3 6 -4 -2
1532260747621591 -2 1 3 -3 6 5 -1 -2
1532260747667467 0 0 3 3 -28 -6 -4 -1
1532260747690406 -2 -3 3 -2 7 10 -2 -1
1532260747749249 0 -1 -1 -2 -3 0 -7 -2
1532260747786150 -1 0 0 5 13 11 5 -1
1532260747969659 -4 -2 -2 -3 -11 -4 1 -3
1532260747991601 -2 -3 -2 -3 0 -15 -2 0
1532260748013557 -1 -3 -4 2 6 -2 0 -2
1532260748056427 0 1 -1 -4 0 -2 -2 0

1532260748191068 -1 -1 -3 -5 -6 -8 -2 0
1532260748260881 0 -2 1 -4 0 -13 -3 0
1532260748318725 -2 -3 -3 -3 -4 13 3 -2
1532260748433419 1 -2 0 -1 -2 1 1 0
1532260748491264 -2 0 1 3 1 -16 -4 -2
1532260748539137 -2 -1 -2 -2 -2 -12 0 1
1532260748568060 0 -2 -2 -2 0 -1 -1 1
1532260748596982 -1 -2 -1 -1 -2 0 -2 -3
1532260748641862 -2 -3 -2 -1 -1 -1 -2 0
1532260748806421 -1 -2 0 1 -1 0 -2 0
1532260748816395 2 -1 -1 -1 0 -3 -6 -1
1532260748850304 -2 -1 -1 -1 -2 1 0 0
1532260748897179 -1 -2 0 3 0 -3 -2 -2
1532260748935077 -3 -1 -2 -1 -2 -1 -3 -2
1532260749000902 1 1 2 0 0 18 -1 -1
1532260749061739 -2 -1 -1 -1 -1 -1 0 -2
1532260749084689 -1 -3 0 -3 -2 1 0 -1
1532260749117589 0 0 5 6 -7 3 5 -1
1532260749152497 -3 -1 3 -6 8 26 1 -1
1532260749174438 -3 -3 -8 -11 -9 -9 -4 -2
1532260749197376 -2 -3 2 -10 -14 -21 -3 -2
1532260749221312 -1 -1 4 -9 -2 -3 -1 0
1532260749245248 0 -3 -5 0 -8 -7 -1 0
1532260749390859 -1 1 13 2 -4 1 -1 -3
1532260749522507 -1 -2 0 6 0 -3 -1 -3
1532260749543451 -28 0 -5 2 9 -4 -7 -14
1532260749565392 1 -1 0 1 5 5 8 0
1532260749587334 0 -1 0 -2 -2 -13 -2 -1
1532260749663131 -1 1 -1 -9 8 9 -12 -5
1532260749841653 1 4 1 0 0 -2 32 5
1532260749924432 2 0 -2 0 5 -12 -7 -23
1532260749975296 20 6 5 10 -6 -15 -4 24
1532260750155815 12 0 0 -12 -37 1 -26 21
1532260750167782 -2 -12 -6 9 -1 34 20 -27
1532260750189723 7 -4 -7 -11 11 16 -24 25
1532260750208683 3 6 -1 7 -5 0 -5 73
1532260750245573 -2 -4 -8 -13 -14 0 14 -1
1532260750282474 -5 -8 -6 -26 -4 -39 -15 -34
1532260750329349 -23 44 0 -6 10 15 21 -34
1532260750374229 -3 -7 2 -1 8 -19 -33 -44
1532260750479947 6 -43 -9 3 3 4 -27 -23
1532260750487941 -10 44 17 14 15 0 18 -21
1532260750508877 9 21 8 -12 7 2 23 16
1532260750531814 2 -10 7 2 -32 -2 28 51
1532260750608617 0 54 15 -4 -5 -4 -22 -50
1532260750697365 18 -12 15 7 -4 0 1 25
1532260750721314 -12 -6 0 -1 12 6 21 17
1532260750743242 -9 7 6 14 -4 -15 9 2
1532260750772165 3 2 -17 -2 -4 4 -5 -5
1532260750786128 -6 -9 1 0 -3 6 -10 -8
1532260750793109 1 2 -6 -4 -1 1 0 4
1532260750811061 1 5 -1 -5 0 -1 -6 1
1532260750838987 0 6 -2 -4 7 -13 1 0
1532260750882869 -1 -19 -6 -3 3 16 3 0
1532260750931739 -5 -24 -14 -3 12 -6 0 -1
1532260750936725 0 -12 10 27 13 -4 1 0
1532260750996565 1 8 5 -9 -7 -6 1 0
1532260751019505 3 2 19 6 -26 -6 -2 -1
1532260751056405 -2 -3 -4 -10 -17 -23 3 5
1532260751094304 5 1 3 -1 2 4 -2 1
1532260751162123 0 -3 -3 -4 -1 4 -1 -4
1532260751186075 0 0 -1 1 7 0 -2 0
1532260751252880 -2 3 -1 -1 -1 1 -2 3
1532260751400484 0 12 1 -1 1 -2 1 2
1532260751487262 -3 -9 3 8 12 2 1 2
1532260751555072 -3 -5 -2 -4 0 1 4 -1
1532260751576024 0 -3 -4 -2 -2 1 -3 3
1532260751596960 -2 1 -1 -1 1 -3 0 -6
1532260751642837 0 3 5 1 10 3 5 -1
1532260751672757 1 5 2 1 -1 -3 -18 -1
1532260751701680 -4 -11 -1 0 -2 -1 -5 -4
1532260751716640 -1 -4 0 -6 -5 0 6 0
1532260751746559 0 -4 1 6 0 -2 -5 -2
1532260751785455 -2 -3 0 -5 0 -2 6 1
1532260751807397 3 28 4 0 -1 2 7 -3
1532260751831333 0 2 -2 -4 -7 -1 4 -2
1532260751853274 -1 -5 -1 3 1 -1 -1 -1
1532260751875216 -1 -2 -2 3 0 0 8 7
1532260751943034 -1 0 1 -2 -1 -2 6 -3
1532260752010853 0 -3 -2 -1 -2 -4 -1 0
1532260752032793 0 -2 -2 0 -2 -1 -12 -21
1532260752108592 -4 -1 0 1 1 -1 7 -2
1532260752130533 -2 -3 0 -6 -2 0 5 0
1532260752145493 1 0 0 1 -2 -2 -2 1
1532260752175412 -2 -4 -3 -9 -3 -2 -1 3
1532260752340970 -1 -6 -2 1 -1 0 -4 0
1532260752362911 1 1 1 -3 -2 2 0 -4
1532260752407792 0 -15 1 1 -2 -2 4 3
1532260752435716 -1 8 2 3 0 0 -1 7
1532260752481594 0 -4 -1 2 -1 -2 6 3
1532260752487578 -2 2 0 1 1 -3 -6 0
1532260752609256 0 -3 0 0 -4 -3 -1 0
1532260752632203 -1 -9 -2 -5 0 -2 1 2
1532260752687045 1 -2 -1 -1 -3 -1 0 -3
1532260752702008 -1 0 -4 -2 -1 -2 -4 -1
1532260752737909 1 -2 -1 -1 -15 -26 -4 -5
1532260752842628 1 4 -1 -1 1 6 3 0
1532260752893492 1 -1 1 1 -2 9 2 1
1532260752963306 -1 2 0 0 11 16 4 0
1532260752986244 1 -6 -1 5 -11 12 3 3
1532260753006192 7 52 2 -14 -50 -12 0 -1
1532260753013172 -9 -37 -8 3 -49 -28 1 -3
1532260753060047 -7 9 -13 -43 -3 -47 -19 -8
1532260753103930 -16 -7 -6 -16 -40 -22 -11 -8
1532260753149806 7 39 2 -7 -9 9 23 7
1532260753255536 3 -9 4 10 46 14 0 0
1532260753277466 10 31 7 10 -7 26 3 5
1532260753291429 6 19 -3 4 14 7 25 4
1532260753330324 0 18 -4 -8 5 21 1 -4
1532260753472943 7 61 36 58 21 11 -6 10
1532260753495882 -1 9 0 47 50 33 15 2
1532260753517823 6 21 3 -13 -16 -2 7 0
1532260753569684 -1 -26 -11 3 30 8 -1 -4
1532260753590629 0 -11 1 -4 -20 -22 3 2
1532260753628527 1 -9 -4 -12 -15 -14 -1 1
1532260753796079 0 -11 -3 -4 -22 -9 3 1
1532260753810043 -2 -5 -3 -4 -12 -8 3 -1
1532260753838965 0 1 1 -1 3 1 -1 -2
1532260753936703 -1 -5 -1 0 -4 1 7 1
1532260754090292 -1 -5 -1 8 14 -9 -6 1
1532260754109242 5 0 -2 -1 2 2 5 5
1532260754192020 -3 0 -1 2 -22 -12 0 -4
1532260754260836 -3 -7 0 3 -2 -13 3 -1
1532260754349598 -2 -4 0 4 1 0 0 -2
1532260754381514 0 -1 -5 -6 -49 -5 -1 -2
1532260754424399 -2 -5 -2 -1 18 1 -1 0
1532260754447337 1 -3 -1 -4 -5 14 5 1
1532260754544079 -1 2 4 3 0 3 -3 0
1532260754611898 -3 -4 -3 1 -5 -10 -3 -2
1532260754644810 0 -2 1 -3 12 -13 -8 -5
1532260754660768 -1 -4 -2 0 -5 -4 -3 -1
1532260754702654 -1 -1 -2 -4 -2 -4 -2 -3
1532260754768479 2 0 1 1 6 1 -1 0
1532260754921098 -1 1 0 1 -5 4 0 -1
1532260754934036 0 -2 1 -1 3 0 -1 -1
1532260755024793 -1 1 -1 4 5 4 -1 -1

1532260755188356 -2 0 -2 0 -12 -3 -1 1
1532260755234233 -3 -5 -3 1 -2 1 0 -2
1532260755256174 1 -4 0 -4 -3 -4 -1 -2
1532260755323993 1 -1 -2 0 -6 -2 -1 0
1532260755348927 -1 -1 1 1 -2 -2 2 -1
1532260755368873 -1 -2 -2 -3 -1 2 -1 -2
1532260755420734 0 -1 0 2 -3 0 -2 -1
1532260755476585 -1 -3 0 -2 6 2 -2 -2
1532260755489550 0 0 -2 0 -5 -3 -1 0
1532260755521465 -2 -1 -1 0 -3 -1 -2 -1
1532260755532436 -1 -2 -3 0 0 0 -1 -2
1532260755558367 0 1 -2 -2 -5 -4 -2 -1
1532260755603246 -2 -3 -1 -1 -3 -1 -2 -1
1532260755625207 -3 -2 -3 -3 -4 -4 -3 -2
1532260755649143 -1 -2 -1 -1 0 -1 -1 0
1532260755720951 1 -1 -3 -3 1 -1 -2 0
1532260755753863 0 0 -1 -1 4 -1 -1 0
1532260755775804 -1 -1 1 0 2 1 -1 -1
1532260755811709 -2 -2 -2 -3 -1 -2 0 0
1532260755834647 1 0 0 1 10 8 -1 -1
1532260755856589 0 3 0 -13 3 10 2 1
1532260755903463 1 1 -3 7 -2 -5 -2 -2
1532260755946348 -1 -2 -1 -4 2 0 1 -1
1532260756031122 -2 -3 -6 -14 1 4 1 -3
1532260756051068 -3 -3 -5 -12 -12 -2 -8 -9
1532260756088966 -1 -1 2 1 8 1 -10 -1
1532260756111906 -1 -1 -1 6 2 -1 -1 -1
1532260756133846 -1 3 7 13 7 1 -12 -9
1532260756202663 1 3 -1 0 2 -1 0 -2
1532260756217623 -4 -6 -6 -5 0 -5 -11 -19
1532260756237570 0 -5 -3 -7 -12 -2 14 1
1532260756262503 -5 0 -3 -17 -15 -1 12 7
1532260756297410 -5 3 -1 5 -7 -10 -39 -17
1532260756306385 -2 -6 -3 -2 4 5 -3 11
1532260756344283 1 1 -2 -5 2 1 12 4
1532260756374204 -2 -3 -4 -5 -2 -3 -12 -32
1532260756502860 2 -3 -1 -1 -1 1 5 7
1532260756547757 -3 -5 -6 -11 2 -6 16 -3
1532260756569682 3 8 3 1 1 -18 2 -4
1532260756606582 -4 -21 -14 -12 -12 1 4 -7
1532260756665425 -7 -10 -7 -10 -5 22 3 7
1532260756690359 -6 -6 0 11 10 11 16 -12
1532260756763164 5 -1 -8 -14 13 17 11 2
1532260756825996 -6 3 -7 -10 -12 3 1 8
1532260756847937 3 0 0 -8 -7 -7 19 44
1532260756884839 -4 -8 -5 -4 -28 -21 -49 -70
1532260756928721 1 -1 8 4 5 -5 -23 13
1532260756951660 10 0 -5 -13 -14 -3 5 23
1532260756983575 -13 -15 -7 -1 -4 -9 2 -59
1532260757003521 5 -3 -4 -6 -26 -5 14 10
1532260757104252 -3 -2 1 0 16 11 0 4
1532260757127193 7 8 2 -3 15 5 18 21
1532260757131180 9 6 5 -1 -3 -1 41 -20
1532260757146140 13 -17 -6 -7 4 -9 -36 6
1532260757184039 -5 0 -5 2 -2 -7 -25 -36
1532260757274795 -5 29 6 2 -2 5 -8 -36
1532260757290753 -15 -40 -8 28 18 7 16 2
1532260757356578 -3 -22 -15 0 -12 -9 -5 4
1532260757380514 -4 -43 -17 -10 3 -8 -5 -9
1532260757417414 -9 2 -1 2 -12 -6 -3 -4
1532260757448332 -3 3 -3 -1 -6 -8 -5 3
1532260757469276 -1 -27 -7 1 -1 4 0 0
1532260757483239 -5 -21 -12 -6 -3 -1 -4 2
1532260757544076 -3 2 -4 -2 -2 14 -1 -2
1532260757613889 0 -1 2 3 -5 -15 -1 3
1532260757635830 2 4 0 -8 13 -1 1 0
1532260757657772 -1 2 6 -5 -28 -3 -2 0
1532260757679713 3 54 12 -13 -91 7 -3 -2
1532260757717612 1 7 2 -6 -6 -8 0 -2
1532260757769473 -3 7 2 0 29 6 -3 6
1532260757845270 0 -2 -1 1 1 2 -8 -4
1532260757868209 -11 -9 1 -6 -17 0 -10 -29
1532260757890150 1 -2 -1 -1 7 -1 14 23
1532260757972929 -2 -8 -1 -2 10 1 -4 -10
1532260757994876 -2 -5 1 0 -8 0 2 10
1532260758009830 -3 -1 -3 2 2 0 4 -2
1532260758031771 1 -6 3 1 -1 -1 -11 -7
1532260758168406 0 -11 1 -4 1 -1 4 4
1532260758213286 0 -2 0 3 2 1 -4 3
1532260758235227 -3 1 -4 -3 -5 -4 -1 -1
1532260758288086 -3 -2 1 -2 -3 0 -3 -8
1532260758376849 -2 -8 -5 -3 7 0 2 -2
1532260758443670 -3 -13 -1 -1 -3 -5 -1 0
1532260758513498 1 -2 -2 -3 -7 -3 3 3
1532260758542406 1 -3 -6 -1 0 -8 2 -8
1532260758594267 -3 5 -1 -2 -2 6 3 -5
1532260758631169 -2 -1 0 -2 0 20 1 -4
1532260758699985 0 -4 0 1 -6 -19 9 6
1532260758768801 -1 -5 -5 -2 2 -8 0 9
1532260758791749 -1 -10 -2 -2 -4 -3 -1 -1
1532260758814678 1 4 -1 -3 0 -4 -3 -1
1532260758835622 -1 -2 -1 1 -2 1 -5 4
1532260758887483 -3 1 -2 0 1 -4 -2 0
1532260758976246 0 -9 -5 -3 -1 1 2 0
1532260759001180 -3 6 -1 0 -1 1 -1 -4
1532260759046059 0 -20 -1 0 -1 4 -4 1
1532260759090939 -3 5 -2 -1 -2 -3 2 3
1532260759095925 -2 1 1 1 -3 -7 14 3
1532260759186683 -1 -8 -1 -4 0 1 1 0
1532260759278454 -1 3 -1 2 0 -1 -2 0
1532260759321323 -1 -6 0 0 -1 -1 0 -2
1532260759369195 0 -9 -3 0 -1 -2 3 2
1532260759392148 0 0 -2 -3 -4 1 -2 -3
1532260759492865 0 15 -1 -4 -1 0 3 6
1532260759557691 0 -17 -3 -2 -1 -3 -4 0
1532260759600576 -1 -8 0 -2 -3 -2 6 -2
1532260759622518 -2 3 2 6 15 8 7 3
1532260759644459 -4 -4 -7 -6 -11 -21 -5 -4
1532260759675376 -3 0 -5 -3 -18 9 -18 -12
1532260759788075 0 29 0 -1 37 14 0 -6
1532260759915734 -2 5 4 -1 5 -6 -2 1
1532260759922715 -2 30 -4 -7 -81 -39 -7 -3
1532260759959617 0 31 4 0 -29 -33 -1 3
1532260760177035 7 -3 -5 3 61 -20 1 -1
1532260760192992 -1 -7 5 23 55 27 -11 -5
1532260760215931 -1 -12 2 -10 -73 17 -1 4
1532260760273776 10 7 -4 -4 28 7 19 -10
1532260760371515 -3 3 9 -3 -11 12 6 -16
1532260760472246 -4 77 1 -1 53 7 3 1
1532260760493190 -3 -1 -2 -8 -10 -3 -2 -2
1532260760523110 5 -2 -1 0 6 7 -1 -1
1532260760610874 2 1 0 0 0 -3 1 1
1532260760732550 -2 -4 1 -1 0 12 4 5
1532260760769450 0 0 2 9 1 5 5 2
1532260760986869 -2 -6 -4 -15 -39 -12 -3 -2
1532260761084608 -1 0 -8 -6 -17 -4 1 -2
1532260761152426 -5 1 2 5 -3 -48 1 -2
1532260761304021 0 -2 -1 0 -12 5 0 -1
1532260761323968 0 0 -3 -2 -16 17 1 -2
1532260761383808 -3 -1 1 -1 4 0 -1 -3
1532260761476560 0 -2 -2 -1 4 7 1 0
1532260761581280 -1 -2 -1 0 10 -3 -1 0
1532260761593248 -3 -1 -1 1 12 -4 -1 0
1532260761661067 -1 -2 -2 -4 -54 -3 -1 -2
1532260761706943 -1 -3 -3 -4 9 -3 0 1
1532260761728885 0 -2 1 0 2 -1 -1 0
1532260761752821 -3 0 -1 -2 -10 -8 -1 -2
1532260761796704 -2 -1 -3 -2 20 -2 1 -2
1532260761857541 -4 -1 -1 -3 -12 -4 -2 -1
1532260761872501 -2 -2 -2 0 8 -1 -2 -3
1532260761940320 0 -1 -1 -1 -1 -1 1 1
1532260762080944 -2 1 0 -1 7 -4 0 -2
1532260762126821 0 0 -2 -1 14 6 0 -1
1532260762133803 -1 -1 -2 -1 -4 -1 -4 0
1532260762156741 -3 -2 -8 -22 -9 -9 -10 -3
1532260762178682 3 -8 10 10 5 -4 -1 3

1532260762215823 -4 -2 -11 -14 -25 -4 -8 -4
1532260762240756 2 6 7 -7 7 3 8 2
1532260762414292 2 69 6 -9 8 3 -3 -3
1532260762434239 -3 -6 -6 -2 -1 2 6 -2
1532260762473135 0 3 0 4 24 15 -2 -5
1532260762517017 -5 -8 -6 -5 2 4 8 2
1532260762561898 -1 -3 -5 -4 -1 -8 3 5
1532260763190217 -3 3 0 1 -13 1 -2 -9
1532260763217146 1 9 3 3 11 4 4 6
1532260763252052 -3 22 -1 3 14 3 3 1
1532260763262026 -1 1 1 2 -7 -5 -5 0
1532260763283966 0 0 -1 0 -2 -5 2 -2
1532260763304926 0 0 0 6 -3 -1 0 -1
1532260763371734 -2 -1 2 -1 3 1 3 -2
1532260763393673 -2 -4 -5 0 2 -5 2 -1
1532260763441546 -1 -8 -4 -5 -2 3 -4 -2
1532260763561236 -1 -9 3 -1 -6 -2 -1 -3
1532260763606109 -2 -1 -1 2 4 -28 7 -15
1532260763650985 -2 -1 -1 -3 -8 15 3 -7
1532260763709828 -6 -4 -2 -2 3 26 -20 -5
1532260763716809 -1 -2 -5 -7 -43 -29 -32 -1
1532260763738765 -9 -7 -4 -3 2 -32 -1 -32
1532260763760692 8 2 1 -3 -14 -8 -32 -3
1532260763799588 -7 -6 0 -2 -1 22 -12 0
1532260763821543 5 1 0 -2 10 -21 -54 46
1532260763850452 6 -3 -1 10 2 -45 -23 8
1532260763896329 -10 -7 -8 -3 2 4 32 -13
1532260763943203 -14 4 3 -1 0 14 -7 8
1532260763970132 9 -5 -4 -13 15 10 -7 53
1532260764037950 2 31 -1 -14 8 -18 -34 -2
1532260764062884 -6 -4 -5 -17 8 -8 6 16
1532260764074851 20 16 7 7 6 7 4 38
1532260764120728 -27 -8 -3 -4 -2 2 -13 -73
1532260764196526 -3 1 0 -8 -4 8 7 -73
1532260764250396 -7 -9 2 -3 6 -1 14 -44
1532260764323188 -2 -4 3 8 23 21 26 104
1532260764341140 -7 -7 -7 -10 6 5 19 25
1532260764355103 -3 -12 -5 0 6 -1 29 -14
1532260764369065 7 -16 -13 2 -17 -30 -12 -5
1532260764406964 4 30 1 1 0 16 -25 29
1532260764460820 -3 -35 -4 3 1 -14 18 -4
1532260764482761 4 -19 6 10 -11 -5 20 -1
1532260764504702 -13 -33 -21 -18 10 -3 -15 -9
1532260764526645 -3 58 0 14 14 23 9 6
1532260764549582 -4 10 6 -18 30 22 -19 13
1532260764571524 -9 31 15 4 0 0 20 7
1532260764624382 0 -8 -5 4 7 11 -22 -43
1532260764632361 -4 -19 -8 -8 11 15 -4 -14
1532260764647320 -4 -2 -7 0 12 3 3 -11
1532260764715169 1 11 19 1 18 5 -7 -2
1532260764736113 -4 -10 -2 -3 -4 -23 -7 -7
1532260764851804 1 -2 7 13 4 2 -3 2
1532260764873746 2 -5 -11 -3 11 -16 3 1
1532260764909649 -2 14 9 3 14 2 -4 -3
1532260764916630 0 -5 0 0 -2 0 6 -3
1532260764970494 -8 -28 -2 8 -35 -2 -10 -8
1532260764990433 -1 1 1 -2 0 3 -2 0
1532260765000406 -3 0 -5 -6 1 4 5 1
1532260765021351 -1 1 0 -6 2 -1 -1 0
1532260765105142 0 3 0 -4 -2 1 -10 3
1532260765128065 0 -4 -2 -5 0 -3 0 4
1532260765171947 -2 1 -1 -3 -15 -3 -4 -1
1532260765216827 2 -1 -3 -4 3 4 23 5
1532260765223809 1 -3 -1 -2 4 -2 0 4
1532260765246747 2 5 0 0 0 -1 -1 6
1532260765299605 -3 3 3 5 5 -1 10 -8
1532260765315564 -5 -1 1 2 -4 -2 14 19
1532260765381396 2 4 1 -3 -1 1 -6 14
1532260765406321 -4 -4 -4 -2 0 4 0 0
1532260765428262 -1 17 -2 1 1 -2 -10 -20
1532260765450203 -3 -1 -1 0 1 -3 5 1
1532260765472160 1 -2 -1 -2 -1 1 4 4
1532260765494086 1 -3 -3 -1 -2 0 -3 4
1532260765517025 1 3 -2 0 2 -4 -4 0
1532260765538967 -2 -2 -1 -3 -2 -2 -2 0
1532260765660640 2 2 -6 4 2 -2 -2 -1
1532260765683593 -3 3 4 3 -3 -3 -6 8
1532260765706528 -2 -12 3 -4 0 -2 -6 -5
1532260765728464 1 2 -6 0 1 -4 -2 -1
1532260765742422 -2 16 2 -5 -1 -1 1 6
1532260765755388 -2 -16 -3 -2 0 0 4 2
1532260765795281 -3 -2 -3 0 -2 -3 -10 -1
1532260765819217 0 -12 -3 0 0 0 -1 -1
1532260765839164 2 -5 0 0 -2 0 0 -9
1532260766021675 0 2 1 0 1 3 -16 1
1532260766048603 -4 1 -8 -6 -4 -1 -9 -4
1532260766070545 0 -7 -1 3 -3 -2 7 4
1532260766093483 2 3 1 -2 0 -3 -1 -1
1532260766139361 -3 -3 -8 -3 -1 -2 -4 -4
1532260766185238 -4 -2 1 5 -1 1 7 2
1532260766245078 -2 -3 1 1 0 -1 -2 1
1532260766289959 3 -2 -5 -1 -1 -2 1 1
1532260766320875 -1 1 -1 -2 -1 -3 0 -2
1532260766341821 -1 -2 1 -3 -2 0 0 -8
1532260766401659 -2 -5 -3 0 -1 0 -1 -2
1532260766484438 0 12 1 0 0 -2 -4 -2
1532260766530315 2 6 -2 -1 0 -1 7 16
1532260766543280 -2 -21 2 1 1 3 4 3
1532260766588160 -5 6 -1 -1 -1 1 -2 -4
1532260766670939 -3 -6 -5 -11 -14 2 -8 -3
1532260766798598 1 0 3 1 -28 -15 -2 -2
1532260766807573 -1 -4 -7 -9 58 38 -1 -4
1532260766837494 3 -1 3 25 44 30 -18 -8
1532260766874395 -12 -7 4 4 70 57 14 0
1532260766948197 -20 91 9 -5 -15 -57 -27 -8
1532260767131707 1 -40 1 18 12 46 0 0
1532260767152651 -4 -22 12 -2 19 0 -8 -5
1532260767255376 6 20 4 8 32 4 11 5
1532260767325190 -3 8 -8 5 29 30 -5 -1
1532260767406971 -2 -17 -3 -11 -21 4 9 5
1532260767429910 -1 2 -9 -22 -6 -28 1 -2
1532260767458832 3 -13 4 11 -55 -2 -19 -3
1532260767526651 0 -41 -2 -3 -34 -6 -5 3
1532260767605449 -7 -16 -8 -9 -9 -10 1 -3
1532260767686224 -9 0 2 4 -1 38 -4 -5
1532260767700187 -8 -10 -1 -4 -7 -14 1 1
1532260767812885 2 -7 -2 0 0 0 -10 -5
1532260767963483 -3 -4 -3 -4 -3 -1 8 -2
1532260767992406 1 -1 4 24 7 18 0 0
1532260768051248 1 -1 1 4 -17 -25 -5 -1
1532260768156982 0 3 3 -3 -2 -5 -1 0
1532260768263683 -2 0 -3 -4 -11 -17 -2 -1
1532260768301579 6 5 0 1 -2 2 6 4
1532260768322522 -4 -5 -3 -3 -26 -13 -1 -2
1532260768518997 0 -5 -4 0 5 -2 -3 -2
1532260768523984 -3 -1 1 1 10 8 -2 0
1532260768561882 0 1 -1 -1 -13 -3 -1 -2
1532260768576842 -2 1 -1 0 6 1 -2 -2
1532260768733424 1 0 -1 -1 -1 -2 0 0
1532260768793264 0 -1 2 -1 -2 -1 -1 0
1532260768878037 1 0 -2 -2 -5 1 -1 -1
1532260769075509 -1 -3 -2 0 -1 0 0 -2
1532260769088490 -2 -1 0 -2 1 -1 2 0
1532260769116400 -1 -1 -2 -1 0 -1 0 0
1532260769133354 -1 0 -1 -2 -8 -3 -1 0
1532260769179239 -1 1 -1 0 -3 -2 0 -2

1532260769350772 0 -1 -2 -2 3 1 -1 -1
1532260769372714 0 -1 0 -1 3 0 0 1
1532260769387674 -1 0 1 -3 -1 0 -1 -2
1532260769441530 1 0 -3 -3 -4 0 -1 0
1532260769500373 0 -2 -3 0 -1 -1 -1 -2
1532260769628031 -1 -1 -1 -2 -1 -3 0 -2
1532260769643988 0 0 -1 -1 1 -2 -1 -1
1532260769686874 1 1 -1 -3 2 1 1 -2
1532260769731754 0 -1 0 -1 -1 0 0 2
1532260769875386 1 0 -1 -1 2 6 0 1
1532260769905324 -1 -2 1 15 5 7 -4 -3
1532260769927247 0 -1 6 13 18 -2 1 1
1532260769944202 -2 -1 0 6 15 -2 -2 0
1532260769987087 0 -1 -2 -5 4 -1 -1 -3
1532260770053908 -2 1 5 18 -8 -4 -1 -1
1532260770077844 -1 -2 -2 -5 -13 -13 -2 0
1532260770121728 1 -1 -4 -7 -6 -5 -2 -1
1532260770182564 -5 -3 -2 -11 19 4 -1 -3
1532260770197524 0 -1 0 -4 0 0 -1 -2
1532260770219465 0 1 4 12 7 12 2 0
1532260770513687 0 -3 -3 -13 -2 7 -1 -2
1532260770700180 0 -3 -3 -2 -1 4 -2 -2
1532260770723119 0 0 2 2 0 -1 3 3
1532260770745060 -1 0 -2 0 -6 -1 -1 0
1532260770773983 -5 -6 -10 -10 -3 4 -9 -29
1532260770802905 -2 0 -4 -7 -4 -6 -11 -24
1532260770811897 -3 -2 -5 -13 -2 3 -8 12
1532260770932559 -14 -9 -7 -5 -2 -1 -6 6
1532260770947519 17 -6 -3 -3 -7 52 -11 3
1532260770997385 -11 -12 -6 -1 -3 -23 4 -28
1532260771028303 -5 -1 0 -6 12 -57 -18 -11
1532260771082159 9 8 1 -4 -24 20 34 18
1532260771126040 1 7 1 -13 -41 23 -47 -25
1532260771180895 -4 -9 2 6 -22 10 34 -40
1532260771232756 2 3 -3 3 -2 11 -17 -11
1532260771254697 4 5 5 10 21 19 16 11
1532260771291599 -2 2 -5 -6 -37 -65 -61 16
1532260771297582 -8 -19 1 0 7 7 57 29
1532260771344465 -2 -1 -3 -6 6 11 9 35
1532260771449177 -7 0 -7 -7 15 16 -5 66
1532260771479097 -9 22 1 1 -6 5 -24 0
1532260771511012 -4 -7 -1 -10 1 3 1 -9
1532260771546916 -1 -9 -13 2 7 5 3 27
1532260771591796 -10 -6 -7 -7 -4 9 -17 -64
1532260771606756 -2 -6 11 40 24 10 -16 -14
1532260771651636 -8 -1 0 -10 -14 -23 -3 15
1532260771719455 16 37 -2 -6 -8 24 -9 -11
1532260771743391 -8 8 -5 -15 -15 -25 -21 11
1532260771810212 -22 88 -4 -10 -14 3 19 53
1532260771832153 -20 -38 -11 -17 -4 -19 3 -44
1532260771847113 2 -17 2 14 -25 -2 -3 -9
1532260771860079 -5 -11 0 -9 -4 8 -2 -16
1532260771906953 2 11 -1 -4 -9 -6 7 -4
1532260771928894 3 -33 1 7 3 -6 0 10
1532260772004692 4 -38 -12 -19 17 19 -1 2
1532260772019652 -1 -8 -14 -19 -26 -15 -8 -6
1532260772088469 5 13 2 -7 2 -4 -5 0
1532260772109412 7 -6 25 3 -19 -4 8 4
1532260772147310 -5 -59 -7 -1 9 -13 -8 -3
1532260772193188 0 3 0 -7 22 -1 -6 -1
1532260772347774 -3 3 -7 -5 3 -1 2 -8
1532260772365726 0 13 1 -3 8 -29 -22 -15
1532260772387668 -9 -22 -9 -14 -6 -10 -22 -7
1532260772409609 -2 -27 -9 -1 -1 4 -9 -2
1532260772446510 1 5 -3 2 -1 -1 9 3
1532260772460473 -2 16 3 5 -2 -2 -9 -17
1532260772590126 2 4 7 3 0 -1 7 0
1532260772613065 4 10 0 3 1 -2 7 15
1532260772642985 2 -4 1 -2 -3 -1 -2 1
1532260772665923 2 16 2 0 4 2 7 -3
1532260772708809 2 -16 -5 3 -4 2 13 13
1532260772730750 -2 6 -10 -4 -3 1 1 0
1532260772777625 -1 6 -1 6 2 -2 -2 -2
1532260772965124 0 7 1 -11 -5 0 2 -8
1532260773010016 0 -4 0 -3 3 7 -6 -1
1532260773053886 -4 -1 1 -3 1 -1 -2 -2
1532260773190521 1 7 -1 2 -1 -1 -2 -16
1532260773220441 1 4 3 1 2 0 -10 4
1532260773248366 -1 4 4 -1 -3 0 -2 0
1532260773308206 -2 -15 -5 -2 -2 0 2 -7
1532260773339123 1 3 -2 1 0 -1 -3 -1
1532260773489721 -2 -5 -2 -4 5 -2 11 1
1532260773512659 -1 0 3 8 1 0 0 -3
1532260773548563 1 6 4 3 2 7 0 -3
1532260773571502 1 -5 -3 -3 -4 -3 -3 5
1532260773700158 0 4 3 0 0 -3 6 -2
1532260773811859 -2 -7 -6 -12 -22 -39 -5 0
1532260774053214 -1 7 1 3 15 24 7 0
1532260774119037 4 28 6 5 0 10 4 3
1532260774383331 2 36 5 11 31 39 7 3
1532260774450152 -1 -31 -5 -3 8 21 4 0
1532260774495047 6 4 2 -4 -41 -1 3 12
1532260774562851 0 -13 2 -3 12 13 -13 -3
1532260774586787 -2 11 3 -3 11 16 0 2
1532260774624686 1 -7 4 1 -23 -28 -2 0
1532260774720430 8 -5 -1 1 1 -2 2 -4
1532260774793238 -2 0 2 -1 -1 8 -3 0
1532260774833132 -3 -2 -1 2 -4 -2 -6 -2
1532260774908929 1 -3 -1 -1 -2 -3 2 1
1532260774950817 4 0 -4 2 33 5 0 -1
1532260774988716 0 -4 -5 0 -7 -20 0 -1
1532260775179206 2 1 2 2 -6 -19 -3 1
1532260775215111 0 -3 -2 -6 -17 -3 1 -1
1532260775237052 1 2 0 -1 2 -3 -11 -1
1532260775456465 -3 -4 0 0 -8 -4 -4 -3
1532260775469430 -2 -1 -1 -3 -1 -9 2 -3
1532260775491372 -2 -1 1 -3 -3 -2 -1 -1
1532260775536251 -1 1 -3 -2 -2 2 2 -2
1532260775677873 -1 0 -1 -2 -12 -5 0 0
1532260775733733 -1 -1 1 -1 -2 2 1 -2
1532260775747686 0 -1 0 1 -29 -3 -1 0
1532260775821489 0 1 0 0 6 0 0 -2
1532260775926209 1 0 -2 0 19 1 1 0

1532260776010984 -1 -3 0 -1 -6 0 1 -2
1532260776032924 -1 -1 -1 -2 -6 -4 -2 0
1532260776062872 0 -2 0 -2 -7 1 1 0
1532260776097778 0 -1 -2 0 -7 -2 -1 1
1532260776271314 -2 0 0 -1 -4 -2 -2 -2
1532260776347112 -1 -2 -1 -2 -8 -1 -1 -1
1532260776369053 -3 0 1 -2 2 0 -5 1
1532260776390994 0 -1 0 -1 -12 -2 1 -1
1532260776437869 -2 1 -3 0 8 -1 -1 -2
1532260776526632 -1 -1 -2 0 -12 -3 -1 -1
1532260776548573 0 -3 -1 0 -3 -1 -1 -1
1532260776563533 -3 -1 -1 -2 -63 -4 -2 1
1532260776626365 -1 -2 -1 -1 7 0 3 -1
1532260776646312 -2 -1 -1 -4 -6 -1 0 0
1532260776669265 1 -2 -2 -3 13 -1 -1 -1
1532260776759010 0 -1 -1 -1 -2 2 -2 -1
1532260776805885 1 -1 -2 -2 1 1 -1 -2
1532260776827826 -1 -2 0 0 11 0 0 -2
1532260776842786 -1 0 -2 -1 -5 -2 0 -1
1532260776856749 -2 -1 -1 -3 -1 0 -1 -1
1532260776924568 -1 1 0 -2 -57 -1 -3 -1
1532260776993384 -2 0 -1 -5 8 -1 -1 -2
1532260777121042 -3 0 -2 -2 -16 1 -2 -2
1532260777163927 1 -1 0 0 3 -1 1 -1
1532260777225762 -4 -1 -3 -1 -11 2 0 0
1532260777271673 -3 -2 -1 -1 -10 -1 -2 -2
1532260777315521 -1 0 0 1 36 -3 -1 0
1532260777361400 0 -2 -2 -2 -3 -1 0 0
1532260777420241 -1 -1 -2 -2 -5 -2 0 -2
1532260777459138 -1 -2 -2 -5 -59 -3 -1 2
1532260777523965 0 -2 0 0 4 -1 1 2
1532260777570341 1 0 -2 1 3 0 -7 -2
1532260777659104 -1 0 -3 -3 -10 -2 -1 -1
1532260777675061 -3 1 0 2 -4 0 -2 -1
1532260777697002 1 -2 -1 -3 -2 0 -1 -2
1532260777953317 0 -1 -2 -1 -56 -1 0 -2
1532260777968277 1 -1 -2 -1 -6 0 1 -1
1532260777989221 -2 -2 0 -1 -9 -1 0 0
1532260778057040 1 -1 0 -2 3 -1 -2 -2
1532260778102958 -1 -1 -1 -1 4 -1 -5 0
1532260778147838 -1 -1 1 0 -4 1 -1 0
1532260778168782 -2 -1 0 0 -1 0 -3 0
1532260778231614 0 -2 -2 -3 -5 1 0 -3
1532260778268515 -3 -1 0 -1 7 -3 -2 -1
1532260778274499 -1 -1 0 1 -4 0 0 0
1532260778290810 -2 -1 -1 -1 -5 -2 -1 0
1532260778311754 -1 -1 -3 -2 -12 0 -2 -1
1532260778334693 0 -2 1 -2 12 0 -1 -1
1532260778358629 -1 -2 -1 0 3 -2 -5 -1
1532260778379589 -1 -2 -1 -1 -4 0 -1 -1
1532260778425451 -2 0 1 -1 -1 3 1 -1
1532260778509227 5 0 -2 -1 10 -3 0 -3
1532260778531168 -3 -1 -2 0 -12 -2 -3 -3
1532260778552111 0 0 0 -1 -3 0 2 -2
1532260778612949 0 -2 -1 0 -3 -2 -1 -1
1532260778785488 0 -3 0 1 14 -2 -2 0
1532260778866272 -2 0 -1 -2 6 -2 -1 -2
1532260779062746 -1 -2 -2 1 -2 1 -1 -2
1532260779083691 1 -1 0 -1 2 0 0 0
1532260779098650 -2 0 1 -1 0 -2 -1 -1
1532260779121601 -3 -3 -2 0 0 -1 1 -1
1532260779189408 -2 0 -1 -1 -1 -2 -2 -3
1532260779212346 -3 -4 -1 -2 0 -1 -1 -2
1532260779234288 1 -2 -1 -2 1 -2 -4 -1
1532260779279168 -2 -2 -3 0 -2 -2 -1 -1
1532260779310097 -2 -1 -1 -3 -2 -2 -1 -1
1532260779346990 -2 -1 -2 -1 -1 -1 -3 -1
1532260779406209 -1 -2 -1 -5 -1 -3 -1 0
1532260779422167 -2 -1 -1 -3 -2 -3 0 -2
1532260779467046 0 -3 0 -1 0 0 1 -2
1532260779533868 0 -1 0 -3 -3 0 -1 0
1532260779580742 -4 -1 -1 -3 -2 -2 0 -1
1532260779600692 0 -3 -2 0 0 -3 -2 1
1532260779654545 -1 -2 -4 0 1 -1 0 -1
1532260779676486 -1 -3 0 -1 -3 -2 -3 0
1532260779699836 1 1 -1 -1 -1 -3 0 -1
1532260779767657 -1 -1 -1 -1 -2 -2 -1 2
1532260779833481 -2 -1 1 0 -4 -2 -1 -2
1532260779860409 -2 -1 -1 -2 0 -2 0 -1
1532260779879359 -3 -1 -1 0 -2 0 -3 -1
1532260779898307 1 -1 2 0 2 0 0 0
1532260779930222 1 -2 0 0 1 0 -1 -2
1532260780000036 0 1 -1 -3 -4 -1 -3 -1
1532260780090793 1 -2 -1 -3 -50 -3 -2 -2
1532260780135673 0 -1 -1 1 1 0 1 1
1532260780156617 0 1 -1 -1 10 0 -4 -3
1532260780209475 -2 -1 -1 0 0 -2 -1 -3
1532260780254356 -1 -3 -2 -1 0 -3 -2 -2
1532260780276297 -2 0 0 -1 -6 3 1 0
1532260780390990 0 -1 -2 0 -1 1 -1 -1
1532260780411934 -3 -2 -2 1 -5 -1 -2 0
1532260780450847 -2 -2 -1 -2 -11 -3 0 -1
1532260780455822 -1 0 -1 -1 2 1 -1 -1
1532260780508680 0 0 -1 0 3 2 -1 -1
1532260780554557 -3 0 1 -1 -6 1 0 1
1532260780621399 -2 -1 0 -2 -5 -1 0 -2
1532260780714151 -2 -2 -1 -1 0 0 -3 0
1532260780727117 0 2 -1 -1 -1 -3 -1 0
1532260780772993 1 1 -2 -1 2 0 -1 1
1532260780811890 -1 -1 0 -1 -2 -1 -2 0
1532260781005413 -1 -1 -2 -3 -3 -2 1 1
1532260781019377 -3 -1 -2 -1 -5 -2 -2 -1
1532260781089190 1 -1 -1 -2 1 -1 0 -1
1532260781199916 -2 2 -1 1 -4 -2 -1 -1
1532260781275713 1 -1 -2 0 -4 -1 1 -3
1532260781304635 -2 -1 1 -2 -1 0 1 1
1532260781318598 0 -1 0 -1 1 0 -3 -1
1532260781364475 1 0 -2 0 -1 0 -1 0
1532260781433291 -2 -1 -4 -2 -3 -3 1 0
1532260781454250 -2 -2 0 -1 -5 -2 1 0
1532260781498118 -1 -1 -1 -1 4 -1 -1 0
1532260781532028 -1 -2 -1 0 -13 -1 -1 -1
1532260781560950 -2 -3 -1 -2 4 -1 -1 -2
1532260781577905 -3 -1 0 -1 -2 0 1 -2
1532260781617797 0 0 -2 0 52 2 0 -2
1532260781664672 0 -2 0 -1 -1 0 1 -2
1532260781754437 -2 -2 -1 -2 -3 0 -4 -1
1532260781838209 -1 1 0 -2 -3 -4 0 0
1532260781860162 0 -1 -1 -2 -4 -3 -1 -1
1532260781875109 -2 -1 -2 -3 -2 -1 -1 -3
1532260781941931 -2 -1 -1 -2 0 -1 0 -1
1532260782007755 0 -2 1 -1 -2 -1 0 -1
1532260782084550 -3 0 -2 -1 1 -1 -2 -1
1532260782115467 2 -2 -1 -1 0 -1 -1 0
1532260782140401 -3 0 -3 -8 -5 5 -2 0
1532260782183301 -1 -1 1 -1 -7 0 -2 0
1532260782219190 -1 -2 -1 -1 -13 -5 -4 -1
1532260782242129 -1 -1 2 8 5 -6 0 -2
1532260782330891 1 0 0 -2 -5 2 -1 -1
1532260782383750 0 0 1 -1 1 -2 1 -1
1532260782394721 -1 -2 -3 -2 1 0 0 -2
1532260782408683 -1 0 -1 -1 -4 -2 -1 -1
1532260782435611 0 -1 -1 -1 -2 -2 -3 -2
1532260782474507 -1 -1 -1 -3 -3 3 0 -1
1532260782496448 -2 0 -1 0 0 0 -2 0
1532260782519387 -2 -2 -1 -1 -7 -4 0 -2
1532260782564267 0 -2 -3 0 1 -1 0 0
1532260782631088 1 -2 -1 -2 -3 -2 -1 -1
1532260782672982 0 1 1 0 -2 -1 1 0
1532260782692928 0 -2 -2 -1 -3 -2 0 -2
1532260782715867 -1 -2 -2 -2 -2 -1 -1 0
1532260782797655 -1 -3 0 -2 -5 -2 0 -1
1532260782841530 -1 -3 -3 -1 2 0 -2 0
1532260782916331 1 -1 0 0 0 3 0 1
1532260782948245 -3 0 0 0 -5 -2 -1 -1
1532260782963206 2 0 1 0 5 2 0 -1
1532260782984827 -2 0 -2 -1 -8 -6 -1 -2
1532260783013751 -1 -2 0 -1 -2 -1 -1 -1
1532260783027715 -1 -2 -1 -1 -1 -1 -1 -1
1532260783075790 -4 -1 -1 0 3 -1 -2 0
1532260783163555 0 -1 1 -2 -3 -1 -2 -1
1532260783213032 0 0 -1 -1 -3 -2 0 0
1532260783231984 -2 -1 -2 -3 0 -1 0 0
1532260783260906 -2 0 0 -1 1 -3 -1 -2
1532260783268885 -5 1 0 -1 2 2 -1 -2
1532260783290826 4 -1 -1 1 -1 -1 -1 0
1532260783305786 3 -2 -2 -1 -5 0 -1 -2
1532260783375610 1 -2 -1 -1 -1 -2 -2 -1
1532260783464362 1 -2 -1 -2 0 -2 -2 -2
1532260783494282 0 -1 1 0 -4 -3 -2 0
1532260783525199 -1 0 -1 -2 2 -2 -2 -1
1532260783584041 -1 -2 -2 -3 -4 0 0 0
1532260783606981 -6 1 -2 0 -1 0 -3 0
1532260783743622 4 -1 -2 -1 -4 0 0 0
1532260783780517 -2 -1 -1 -2 1 -2 -3 -2
1532260783884129 -4 0 -1 0 34 0 0 1
1532260784018769 0 -1 0 -2 -2 1 -2 -1
1532260784057665 -3 -1 -2 -2 -12 0 -1 -1
1532260784070631 3 -2 -2 -1 -13 0 0 -1
1532260784094566 8 -1 -2 -2 -4 1 2 -1
1532260784251148 -5 -2 -3 -1 -5 -1 -1 -2
1532260784337915 -3 -1 -1 -2 -5 2 2 0
1532260784357876 10 -2 0 -4 10 -4 0 -2
1532260784380802 -11 0 -2 -2 -6 -3 -1 0
1532260784611184 -85 -1 -1 1 -2 -1 -1 -1
1532260784650080 118 -1 -3 -1 -3 -1 -1 -1
1532260784695958 -4 -1 -3 -3 1 4 0 -3
1532260784717900 -4 0 -1 1 7 -1 -3 -2
1532260784858524 -6 -2 -1 0 -1 -2 -1 0
1532260784890438 3 -2 -1 -2 1 1 0 -1
1532260784934727 -51 -1 -2 1 1 0 0 -2
1532260784949688 -12 -2 -1 0 -4 0 0 -1
1532260784994567 16 0 1 -1 5 1 -3 0
1532260785001549 -2 -1 -1 -1 -2 -2 -3 -2
1532260785136189 6 -1 0 -2 0 -1 1 -1
1532260785169101 21 -2 -1 -2 -1 1 -1 -1
1532260785204007 -14 0 -1 -1 -2 -1 -1 -1
1532260785211987 -8 -3 0 -1 -3 -2 -1 0
1532260785286792 -1 -2 -3 -3 1 0 0 -1
1532260785310797 -2 -2 -2 0 -1 -1 -1 -1
1532260785338723 -1 -1 -1 -3 -6 -1 -3 -1
1532260785416515 -2 -1 -1 -1 0 -2 -1 -3
1532260785488331 -2 -2 0 0 -1 -1 0 0
1532260785595037 0 -1 -1 -1 -2 -1 -1 -1
1532260785722696 -4 0 -2 -3 2 -1 -3 -2
1532260785736658 0 -2 -1 0 0 1 1 -1
1532260785781538 1 2 -1 -2 -2 -2 -2 -1
1532260785826419 -1 -3 -1 0 1 -1 0 -2
1532260785849357 -1 0 -1 1 -6 -3 -2 -2
1532260785931139 1 -1 -1 -3 1 -2 0 2
1532260785994968 -1 -1 -1 -1 0 -2 -1 -2
1532260786023891 -2 0 -1 0 -2 0 -1 -1
1532260786034861 0 -1 0 0 -1 -1 -1 -1
1532260786143575 -1 0 0 -1 0 -1 -1 0
1532260786245298 -1 -1 -1 -2 -9 -3 -3 -2
1532260786278798 -1 0 -1 -1 1 0 -1 -1
1532260786312707 -2 -2 1 0 1 -1 -2 -2
1532260786428398 -3 -2 -1 0 0 0 0 -1
1532260786502201 1 0 -1 -2 1 -1 -1 0
1532260786555062 0 -3 1 -1 0 -1 -1 1
1532260786578015 -1 0 -2 1 -3 1 -2 -2
1532260786613901 1 -1 -1 -1 3 1 -1 0
1532260786643822 -1 -1 -1 0 1 0 -2 0
1532260786681720 0 -2 -1 1 8 -1 -1 -1
1532260786705657 -2 -1 -2 -2 -4 -1 1 0
1532260786771961 0 -1 1 0 -6 -1 0 -1
1532260786827812 -4 -1 0 0 0 -1 -1 -1
1532260786853743 -2 0 -1 0 -1 1 0 0
1532260786916575 -1 -3 -2 -2 0 -2 0 -1
1532260786952479 0 -2 -2 -1 -6 -2 -1 0
1532260787111062 0 1 -1 -1 -3 -3 -1 0
1532260787146965 -2 -1 -1 -2 -1 -3 -1 -2
1532260787260661 3 -2 -3 -1 0 0 -1 0

1532260787379290 -1 -1 0 0 -7 -1 -2 -1
1532260787424170 0 -1 -1 0 -1 2 -2 0
1532260787557814 -1 -1 2 0 3 -1 0 -2
1532260787702426 -2 -2 1 0 -1 -2 1 -2
1532260787905883 -1 -3 -4 -1 -1 -1 -1 -1
1532260787942784 -4 -2 -2 -2 -1 0 0 -1
1532260787985669 -1 -3 0 0 0 0 1 -1
1532260788070442 -2 0 -2 -1 -5 -1 -2 -3
1532260788136266 -2 0 -2 0 1 0 -1 -1
1532260788181146 -1 -3 -2 0 -4 -1 0 -1
1532260788222039 0 -1 0 0 -1 1 0 1
1532260788235999 -1 -2 -2 -2 0 -1 -1 -1
1532260788256944 0 -2 0 0 -1 -1 -1 -1
1532260788285867 -2 1 -2 -1 -4 -3 1 -1
1532260788316784 -2 0 0 -3 -4 -2 -2 2
1532260788370639 -1 1 -2 -2 0 0 1 -2
1532260788414523 -3 -2 0 -1 -2 -3 -2 -2
1532260788488334 0 -1 -3 -2 -1 -3 -3 -1
1532260788558138 -1 0 0 -3 0 -1 -3 -2
1532260788578085 -1 -1 0 -3 -1 0 -1 -1
1532260788692787 -1 -2 0 0 -2 -3 -1 -2
1532260788715717 -2 -3 -2 0 -1 -1 -2 -2
1532260788736661 0 -2 -2 0 1 -1 -1 -1
1532260788797498 -1 -1 -2 -2 -1 0 -1 -1
1532260788856340 0 0 0 1 2 0 -2 1
1532260788901221 -1 1 0 -2 -4 -1 -2 1
1532260788976020 -2 0 -1 0 0 1 -1 -2
1532260789052815 -1 -2 0 1 -9 -3 -2 -1
1532260789095700 -1 -1 1 -1 -4 -1 0 -1
1532260789134596 -1 -4 -2 -1 -1 0 0 0
1532260789179477 -1 -1 -1 -1 -1 -1 -2 -1
1532260789218373 0 -1 -2 -1 2 -1 0 1
1532260789253279 -2 -1 -1 1 -4 0 0 -1
1532260789298159 -2 0 0 -1 -1 -1 1 -2
1532260789388917 1 -3 0 0 2 0 0 1
1532260789457733 -2 -1 -2 0 0 -1 -1 -1
1532260789502613 -1 -2 -1 1 1 -1 0 0
1532260789546495 -2 -2 -1 -3 -1 0 -2 -1
1532260789568437 0 -2 -2 -1 -1 -1 -1 -2
1532260789598357 2 0 1 -1 -4 -2 -2 -2
1532260789622298 -1 -3 0 -1 -2 0 0 0
1532260789651215 -2 0 -1 -3 -6 -1 -1 0
1532260789733994 1 -3 -16 -22 -6 7 2 1
1532260789756933 -2 -4 -6 -14 -13 -5 0 -1
1532260789831732 0 0 3 1 -3 -14 -2 -1
1532260789877628 0 -2 -5 -8 -2 2 -1 -3
1532260789913513 3 2 -1 -1 2 4 0 1
1532260789931466 -2 -5 -4 -6 -6 2 -1 -2
1532260789981332 -1 4 14 28 -4 -1 0 1
1532260790034191 4 6 13 9 15 10 4 0
1532260790059125 -4 -7 -10 -22 -19 -4 -7 -5
1532260790102010 -7 -7 -13 -42 -18 -4 -2 -4
1532260790147887 -1 0 8 18 -3 3 -1 0
1532260790182794 -6 -5 -10 -18 -5 -7 -11 -6
1532260790213711 0 1 0 2 -1 3 6 1
1532260790304468 5 1 -3 -1 2 3 50 8
1532260790440106 -2 1 -2 -2 -2 -38 30 -12
1532260790479002 18 -11 -2 -15 -27 44 -3 13
1532260790521897 7 13 7 9 3 -12 -1 37
1532260790565770 -26 15 -4 -15 -13 9 31 12
1532260790612645 -38 -9 -5 -26 3 13 -63 -9
1532260790634586 -12 13 4 -3 -30 26 76 -9
1532260790656527 -37 -4 1 12 30 -9 105 -2
1532260790718370 -20 -28 -6 -6 -5 -27 -93 14
1532260790742297 3 -50 1 4 -19 18 27 -61
1532260790764238 5 -23 4 -1 -39 6 -41 -2
1532260790777204 -8 -12 7 6 -7 13 -1 32
1532260790798148 -17 -5 -4 -18 -3 -7 -56 0
1532260790844025 -31 -4 -3 -10 20 7 -7 -12
1532260790888906 -4 11 1 0 -6 0 23 -2
1532260790936778 -10 -4 -11 -13 1 5 0 -18
1532260790957722 -15 -5 0 -6 15 -5 -9 -10
1532260790994623 -10 3 -1 7 12 -1 -9 2
1532260791016564 27 69 2 -3 -8 3 -3 39
1532260791030526 12 -40 -10 -3 7 -3 -20 8
1532260791054463 1 -14 2 2 0 -6 13 28
1532260791122282 -2 -13 4 7 4 -4 -13 -12
1532260791144223 -8 3 2 -2 4 -49 -4 -7
1532260791211043 -6 7 6 5 24 40 13 -2
1532260791235981 -3 23 -1 -7 -79 41 10 -3
1532260791257919 4 16 -3 -6 42 22 -1 1
1532260791272879 -18 -16 -1 -1 22 8 -16 0
1532260791332719 -7 11 -5 -4 -14 -16 5 0
1532260791383583 12 -5 39 67 33 -7 2 1
1532260791474340 -7 -35 -20 8 16 1 -5 -5
1532260791491294 -9 -22 0 -4 10 1 -1 -1
1532260791510244 13 20 1 3 1 3 9 -2
1532260791537172 2 -9 -2 -3 -2 0 -17 -6
1532260791551135 17 -5 -1 1 4 5 0 8
1532260791579066 -12 -22 -6 -1 -3 1 -1 2
1532260791655869 -13 0 0 0 1 -2 -21 -18
1532260791675801 2 18 5 3 0 -8 4 6
1532260791743620 -6 -8 4 6 0 2 -2 13
1532260791791492 3 -7 -2 -6 -6 1 -8 8
1532260791813433 3 4 -3 0 -1 1 7 6
1532260791818419 0 9 1 -4 -1 2 12 14
1532260791858313 -8 -3 -1 -2 -4 -3 0 -4
1532260791893220 7 4 -2 0 6 10 4 1
1532260791947076 2 -4 0 0 -7 1 1 -8
1532260791970015 3 3 -3 -2 1 -2 -5 0
1532260792000931 -4 -3 -6 -9 -7 -2 -11 -24
1532260792021893 -4 3 1 0 -4 2 -6 -12
1532260792067753 -4 -9 -7 1 -1 2 4 5
1532260792092687 -1 -8 0 -1 0 -1 1 0
1532260792103657 -2 -11 2 1 6 -2 2 5
1532260792246284 1 5 1 -6 -51 -5 2 -3
1532260792346009 0 0 -5 -1 -4 2 2 3
1532260792382911 -3 0 -1 -7 -30 -8 -2 -2
1532260792509572 -3 -1 2 7 -3 24 -1 -1
1532260792659172 0 -2 -3 -3 -36 -24 -4 0
1532260792689092 -1 10 11 30 -6 -30 0 1
1532260792741950 -2 -11 -2 -3 32 9 -1 1
1532260792877588 -3 -3 -2 -8 -48 22 6 1
1532260792967348 6 11 7 1 12 15 -7 0
1532260793200723 -8 -18 -6 5 36 -9 -3 1
1532260793215684 14 -4 -6 -10 -26 11 7 -14
1532260793311427 0 1 -2 -2 -2 -3 -4 -3
1532260793446067 -13 -3 -2 0 -6 1 8 -7
1532260793492959 -1 0 0 -2 -2 -23 -10 1
1532260793515881 2 -1 1 1 3 -2 -2 0
1532260793522862 -3 -2 4 -1 -21 18 6 2
1532260793627600 -1 1 1 -1 -6 -12 1 -3
1532260793633566 -2 -5 -3 -3 8 25 2 2
1532260793678446 -3 -4 -4 -2 12 8 -2 -2
1532260793791145 -1 -1 -2 -2 61 -8 0 -2
1532260794046462 -2 -1 -1 -2 6 5 -3 -3
1532260794076382 -1 0 0 0 -4 -1 0 -2
1532260794169134 1 -2 -2 0 25 2 0 1
1532260794257896 -2 -1 -1 -1 -4 -3 -3 -1
1532260794287829 0 -2 -1 0 3 -1 -1 -1
1532260794323721 -1 0 -1 -2 -8 -7 0 -1
1532260794376579 -2 0 0 -1 3 -1 0 -1
1532260794452376 -2 -3 -1 0 -1 -1 0 -2
1532260794496258 0 -2 0 0 -2 -3 -4 -2
1532260794558094 -1 -1 0 -4 -4 -5 -2 0
1532260794586019 0 -1 -2 -2 -1 -1 -1 -1
1532260794617934 -1 0 -1 -2 -4 -5 0 0
1532260794645859 -2 2 1 1 0 5 0 1
1532260794662814 -2 -1 0 0 -3 -5 -2 -1
1532260794683758 -2 -2 -2 -1 -4 -3 -2 1
1532260794707693 -1 -1 -4 -2 0 -3 1 -2
1532260794730633 -1 0 -1 1 -2 -1 -1 -3
1532260794820410 0 -2 -2 -1 -4 -2 -1 1
1532260794843348 -3 -1 1 0 0 1 0 -2
1532260794865290 1 -3 -1 -1 1 -1 -1 -1
1532260794879252 -1 0 -1 -1 -1 1 -2 0
1532260794902191 -1 0 -1 0 -3 0 -1 -1
1532260794998932 0 -1 -1 0 -1 -3 0 -1
1532260795032842 -1 -2 0 -1 -4 -4 -1 -1
1532260795051791 -4 -6 -13 -26 -6 5 -1 -1
1532260795077722 -1 -1 2 -8 -26 -5 -2 -2
1532260795098665 -4 -5 -2 5 -9 -19 -8 -5
1532260795119609 -1 0 -1 4 9 5 4 1
1532260795142548 0 0 4 6 11 0 -11 -6
1532260795156511 0 -5 -9 -7 -13 -2 0 -1
1532260795230314 0 -3 -3 -9 -9 0 -1 -2
1532260795287164 0 20 0 -2 9 7 3 4
1532260795323065 -1 10 4 4 2 3 11 -8
1532260795330047 -2 2 1 4 -2 -1 -8 8
1532260795351987 -5 2 -5 1 -6 -3 -4 -1
1532260795457706 -1 3 -1 -6 -3 -2 -5 -9
1532260795495611 1 1 0 1 1 1 -1 8
1532260795555449 -2 4 3 11 5 2 7 -35
1532260795561428 -5 -3 -3 -3 -2 -1 0 -6
1532260795606309 -3 -2 -6 -12 7 -3 -3 -4
1532260795632239 -1 3 -1 -3 -9 -2 -4 2
1532260795666148 2 -1 1 2 -4 -8 1 16
1532260795691098 3 1 -1 0 -3 4 15 2
1532260795712026 0 1 -1 -3 -1 -19 2 3
1532260795725987 -2 -2 -3 -1 0 17 11 3
1532260795793807 -7 -3 -3 -6 2 5 0 -9
1532260795839684 -2 -3 -4 -6 11 13 -8 -12
1532260795976318 -1 -2 -2 2 -2 3 5 9
1532260795990282 3 0 -2 -2 -4 -4 2 7
1532260796003247 0 0 -1 -2 -6 0 -2 -3
1532260796041145 -3 -2 -1 -1 2 -12 -5 -2
1532260796063086 0 -3 -1 2 16 6 -1 1
1532260796087022 -1 0 -4 -2 -2 1 -1 -1
1532260796208698 -2 -2 -1 -3 -6 8 -1 -2
1532260796250585 -1 0 1 2 9 0 3 -1
1532260796265546 2 -3 -3 -1 3 26 0 1
1532260796302447 -2 1 -5 0 -21 -2 -2 -3
1532260796326382 0 -4 -4 -9 28 1 -4 -1
1532260796395199 0 0 -4 -11 3 8 3 0
1532260796463017 -3 -3 -4 4 15 -4 -5 -3
1532260796499918 1 1 2 3 -55 -5 -3 0
1532260796504905 -1 -7 -2 -8 -45 -74 -5 -1
1532260796542804 -2 0 0 -3 8 5 -4 -3
1532260796611619 -1 -4 2 4 49 16 4 1

1532260796625583 0 2 0 1 -13 -13 8 0
1532260796755236 1 -3 1 4 13 8 -1 0
1532260796791139 -1 1 -1 -3 -9 0 -1 0
1532260796799133 -3 -2 0 -1 -10 -13 -2 -2
1532260796823064 0 0 -1 -1 2 6 0 0
1532260796851984 -1 0 -3 1 10 0 -1 -1
1532260796864943 -3 -3 0 4 0 -5 -2 -2
1532260796919334 -3 -2 0 0 1 8 0 0
1532260796964208 -1 1 0 0 0 -14 -1 0
1532260796994112 -1 0 0 0 -9 3 -1 -1
1532260797032011 -2 -1 0 -6 -24 -8 1 0
1532260797076892 -2 -1 -2 -2 1 -2 -3 0
1532260797098832 -1 -3 -1 -2 -6 -4 -1 -3
1532260797104839 -2 1 0 1 12 -1 1 -2
1532260797217514 -1 -1 -2 -5 -7 2 -1 -1
1532260797340187 -2 -2 -1 10 -2 -1 1 -1
1532260797376091 -1 -3 4 -1 -1 -7 -2 -3
1532260797384070 0 -1 -7 -15 -19 -1 0 0
1532260797398032 -2 -2 -1 1 -5 -12 -4 -4
1532260797445919 2 -1 -4 -10 -1 -2 1 1
1532260797473830 0 -4 0 -4 1 -3 -8 2
1532260797497765 0 1 -2 1 4 1 3 -4
1532260797534680 -2 -1 -1 -3 -6 -2 9 -2
1532260797587526 -1 -1 -3 2 -3 -4 -5 -1
1532260797641382 1 -4 -5 -2 1 -1 4 -5
1532260797663323 -1 0 -2 -2 1 1 8 0
1532260797714187 -2 -3 0 2 -4 2 -12 -5
1532260797737126 0 1 -2 3 12 1 2 -1
1532260797872763 -3 -4 -2 -6 1 -2 3 -6
1532260797947563 -2 -1 -2 -6 -7 -3 -6 -16
1532260797976485 -3 -1 1 7 -2 -4 -2 5
1532260798065247 0 -2 -3 2 -5 2 -7 1
1532260798127083 0 -1 1 1 -3 -7 11 10
1532260798150022 7 4 1 1 1 3 9 14
1532260798208865 -5 -2 -3 -2 -2 8 39 5
1532260798253744 1 2 3 4 16 -13 29 26
1532260798284661 -5 1 -4 -6 12 7 28 -5
1532260798314581 -12 -32 -7 -9 -8 -9 29 1
1532260798359461 -4 -12 2 -12 -4 40 37 44
1532260798405339 -6 1 -3 -5 6 19 12 -8
1532260798429275 -19 -9 -4 -1 14 -28 -66 -79
1532260798474163 -5 3 -3 -5 20 15 10 26
1532260798494101 -2 -1 1 1 3 32 -19 6
1532260798517040 -13 -15 -10 -13 -6 22 -19 -44
1532260798584859 7 5 -2 11 9 -1 -56 -65
1532260798605803 -15 -12 -8 -4 -17 23 -59 -24
1532260798635722 11 9 2 -2 -13 -25 -4 1
1532260798696560 -21 -11 -5 -11 -12 3 56 17
1532260798727478 8 6 2 -6 3 14 55 58
1532260798796309 -6 5 -5 -10 -16 -6 16 36
1532260798861120 0 -17 2 2 -18 16 -6 24
1532260798869103 22 -5 14 34 1 6 12 40
1532260798914977 -10 28 14 -1 -4 -9 -18 11
1532260798959856 0 -38 0 -1 -1 3 7 -48
1532260799041637 3 7 9 -1 4 13 46 -42
1532260799085520 7 14 3 0 -9 -7 -10 16
1532260799160320 5 6 -4 -4 -17 5 15 -2
1532260799169296 1 24 -6 -10 -23 3 27 -1
1532260799259056 -2 4 -4 11 -5 -7 -16 1
1532260799305931 -1 12 1 13 -20 -2 -13 1
1532260799318896 0 4 -2 -2 0 0 7 1
1532260799378736 -2 -2 -7 -6 -11 5 4 0
1532260799422619 0 -1 1 3 -1 4 10 6
1532260799492432 1 -14 -9 -6 -7 2 14 2
1532260799514373 -3 1 -2 0 0 2 0 -2
1532260799599147 5 -3 -3 0 -4 -1 -2 7
1532260799635050 -1 3 2 -2 -1 3 7 0
1532260799836511 -2 -4 -1 -1 3 -2 -1 8
1532260799874410 -7 -9 -2 -3 -3 1 -11 -5
1532260799935248 1 37 4 5 39 22 8 14
1532260800030992 -1 -7 -1 2 14 3 3 13
1532260800069888 -2 -16 -3 -1 4 -13 13 12
1532260800094824 -4 1 2 6 4 -9 2 -8
1532260800137706 -1 -3 1 1 -3 10 8 2
1532260800160645 -2 -1 0 -1 -3 2 13 1
1532260800219503 -2 -2 1 3 -1 3 31 16
1532260800234447 -1 1 -2 -1 1 1 -4 1
1532260800428927 3 -2 -4 -3 -4 2 -14 14
1532260800503728 1 32 3 1 -3 0 6 6
1532260800558593 0 0 -1 2 2 -4 -5 4
1532260800647343 -1 -2 2 -1 0 2 -14 -5
1532260800661305 0 -5 -4 -6 -5 0 -5 -1
1532260800714164 -3 -9 -2 1 0 1 -9 2
1532260800781984 -8 -1 2 3 0 -2 4 8
1532260800901663 -1 -2 0 0 35 39 3 -3
1532260800969482 -3 -1 -1 -4 19 14 3 3
1532260801014361 -2 -1 2 -10 -47 -19 3 1
1532260801029321 2 3 2 -2 -47 -25 -10 1
1532260801053258 13 1 -3 -4 25 -51 -8 -3
1532260801089162 0 -20 -5 -3 -1 5 9 0
1532260801112101 -5 1 -3 8 81 6 -2 1
1532260801179919 5 80 11 3 -21 -19 -1 2
1532260801202858 -1 -27 8 42 20 -27 -21 -4
1532260801225797 -3 -14 2 14 4 7 -1 0
1532260801247737 2 35 5 6 -19 -8 4 1
1532260801269679 2 8 11 15 10 5 -4 -2
1532260801292618 -2 -7 0 -2 -45 -19 1 -1
1532260801435236 -7 -4 -6 -5 31 10 4 -1
1532260801441220 4 -8 -10 -10 1 -15 -1 -2
1532260801480116 -5 2 -7 -1 2 24 16 4
1532260801524996 8 3 -6 -10 -15 -8 6 2
1532260801530981 1 -17 1 3 -28 -12 9 8
1532260801546938 -1 -8 -1 -4 -17 -15 -3 -6
1532260801569876 2 -18 -1 6 65 57 4 1
1532260801598799 -1 -9 -3 -1 -28 -21 -2 -1
1532260801628719 -3 -2 0 0 -11 -2 1 2
1532260801788293 -7 -5 -2 -5 -8 -5 0 2
1532260801810234 4 0 -1 4 -15 -2 -2 0
1532260801831177 -5 4 -2 2 -1 -11 -4 -2
1532260801862095 -2 -4 -3 -2 2 -8 -2 0
1532260801872079 -2 -2 0 0 -7 -10 1 -2
1532260801921942 0 -1 0 -2 1 -2 2 1
1532260801990751 -2 5 -4 0 11 17 -8 -3
1532260802012692 -5 -1 -4 -2 19 13 -5 -5
1532260802056581 0 2 -1 -5 5 -10 -1 -2
1532260802063556 -2 -2 0 2 19 -2 0 -1
1532260802139354 -1 -1 -1 2 -14 -3 3 -1
1532260802178250 -1 1 1 -4 -12 -26 -6 -3
1532260802222132 -2 2 -2 -3 5 -2 -3 -3
1532260802269007 -1 -3 -2 1 -7 9 -1 -1
1532260802312890 -2 -1 1 2 2 0 -1 0
1532260802335828 -2 -1 0 -4 -6 -3 -1 -2
1532260802359774 0 -1 -2 0 11 6 -1 1
1532260802395668 -2 -1 -1 -1 -2 -21 -4 -1
1532260802409631 1 -2 -2 -2 16 3 1 -3
1532260802454510 2 0 0 -2 0 2 2 0
1532260802475454 1 -1 -2 1 12 5 -3 -3
1532260802650986 0 -1 -1 -1 -9 5 -1 -1
1532260802670932 -10 -1 -1 -3 -6 2 -1 0
1532260802711823 0 -1 -1 -2 -46 1 0 0
1532260802734772 -5 -1 -1 -3 2 -2 -2 0
1532260802755706 -2 0 -1 -2 7 2 0 1
1532260802926249 -1 -1 -2 0 8 0 1 -2
1532260802945198 -1 0 -1 0 3 -1 0 -1
1532260802986089 -5 0 0 0 -5 1 2 1
1532260803032964 -2 -1 0 -2 -2 -4 -2 -1
1532260803055902 -5 -3 0 1 2 6 1 -1
1532260803098788 -1 -1 -2 -3 -49 0 0 -2
1532260803173588 -1 0 -1 0 1 0 -1 0
1532260803199519 1 0 -1 -1 -8 -1 -2 0

1532260803207500 0 -2 0 0 3 0 -3 -1
1532260803227444 0 0 -1 2 2 -2 1 1
1532260803265342 0 -1 -2 -3 -2 0 -2 0
1532260803288282 -3 -1 -2 2 13 1 -1 0
1532260803311219 -1 -1 -2 -1 -7 3 -1 -1
1532260803422921 0 -2 1 2 22 6 -2 -2
1532260803466804 -4 -2 0 -1 3 -3 -1 -1
1532260803483759 1 0 -2 -1 7 -3 0 2
1532260803505708 -2 0 -2 -1 -2 3 -2 -2
1532260803520669 0 -1 -3 -2 15 1 1 -1
1532260803586483 -3 -2 -2 -5 -39 -2 -2 -1
1532260803645327 -1 -4 -1 0 0 1 -1 -1
1532260803679236 -2 -1 0 -1 0 1 0 -1
1532260803745060 0 -1 -1 -2 -6 0 0 0
1532260803753038 -1 -1 -2 -3 -4 -3 0 -1
1532260803842025 0 -2 -1 -3 -7 -2 1 -3
1532260803862969 -5 0 -1 -2 -2 1 0 1
1532260803932782 -1 -1 -2 -1 17 -4 -1 -1
1532260803956718 -2 1 -1 -2 14 10 0 -2
1532260804037649 -1 -2 -1 -3 -7 -5 -3 -1
1532260804098487 -1 -3 -2 -1 -6 -1 0 0
1532260804234123 -2 2 -2 -2 -3 -1 -1 -3
1532260804305940 0 0 0 0 6 -1 1 0
1532260804337846 -1 -1 -1 -3 -2 -3 -3 -2
1532260804396689 2 0 -2 -2 2 -2 -4 -2
1532260804509398 -1 -1 -2 -1 2 0 -1 -1
1532260804531340 -1 -1 -2 -2 0 -2 -1 0
1532260804585196 0 1 -1 1 15 -1 -1 -1
1532260804593175 -4 0 -2 0 -5 0 0 0
1532260804652049 -2 -2 -2 0 -10 -3 -1 -1
1532260804696459 0 -1 -1 0 2 1 -2 -3
1532260804719398 0 -1 2 -1 9 -6 -1 1
1532260804763281 2 -2 1 10 2 8 -5 -3
1532260804808160 -2 1 -5 3 -1 -1 2 2
1532260804840075 -2 -3 3 0 -3 -5 -3 -3
1532260804862017 -3 -8 -2 1 -5 -5 -1 -8
1532260804882961 -4 8 -2 -5 -3 -3 -3 -5
1532260804913878 3 4 1 -19 -12 -4 -28 -11
1532260804928838 2 8 4 1 -6 -4 15 3
1532260804951777 -3 8 -4 -6 -1 0 -10 2
1532260804988678 -2 0 -3 -3 2 2 15 9
1532260805019596 -3 -3 1 -6 -6 -2 0 -4
1532260805040539 1 -1 -3 -3 1 10 -5 -2
1532260805064485 -2 -3 -2 -3 2 -4 -8 -9
1532260805077441 -1 0 -3 -5 -3 2 0 3
1532260805095402 2 1 -1 -13 -9 6 -6 -2
1532260805124315 -2 -2 1 15 20 -1 12 2
1532260805133292 -5 -3 -4 -14 -10 -9 0 -22
1532260805168198 -2 -2 -2 -3 -4 -3 -4 -4
1532260805184163 -3 -6 -2 -9 -13 -7 2 0
1532260805214076 -2 -3 -3 -11 -10 15 7 -9
1532260805228038 -4 5 2 1 -2 -29 3 -8
1532260805273915 2 0 0 0 9 16 -9 5
1532260805295856 -3 -3 -4 -2 2 -26 -30 -38
1532260805304833 0 4 2 -3 -3 8 -16 16
1532260805364673 3 -3 -2 -5 8 26 -1 11
1532260805379633 4 0 1 3 -3 -13 9 11
1532260805409553 -2 1 -1 1 -6 -18 2 1
1532260805424513 -7 -3 -3 0 2 12 -10 -52
1532260805454433 -17 -12 1 0 -5 36 -14 0
1532260805467398 24 31 0 -5 1 73 -34 69
1532260805514272 5 1 -1 -1 20 -46 30 -19
1532260805528235 -14 0 -1 -10 -8 -50 -6 11
1532260805552172 3 -2 -6 -11 1 -7 -9 -18
1532260805588075 -8 -4 2 -3 -4 4 23 6
1532260805640933 10 3 -2 2 14 13 -23 51
1532260805657889 8 -24 -6 -11 38 -12 -23 -59
1532260805693792 -9 -11 -5 -4 -11 8 23 -31
1532260805716731 20 12 2 0 5 10 -3 90
1532260805767595 10 2 6 6 20 3 12 33
1532260805821475 -5 0 0 -23 -36 14 11 -82
1532260805844390 8 21 2 6 1 14 12 26
1532260805882289 -9 -22 -4 -5 6 19 2 -1
1532260805911211 3 -8 -1 5 -21 -15 5 -3
1532260805978032 -1 -1 -3 -3 5 -2 -34 -70
1532260805989003 -6 -2 0 2 2 -15 -6 22
1532260806076768 -10 2 -12 -21 -35 -18 -14 -46
1532260806106696 5 -2 21 -5 -10 -36 12 22
1532260806176502 -10 22 3 -20 -3 16 -5 -56
1532260806241328 -3 53 -1 -3 -6 -2 -2 -3
1532260806256296 -1 -29 1 -2 1 7 -4 -1
1532260806294187 0 5 -4 -2 -1 -5 -12 -3
1532260806339067 -3 -26 -3 1 -2 -23 -1 1
1532260806377963 1 -8 -5 0 -3 -13 1 -1
1532260806389931 -3 -8 1 -13 7 11 2 -1
1532260806511614 -3 -5 0 1 30 0 -2 -2
1532260806527563 -1 -3 -3 4 14 2 1 -2
1532260806556486 -2 -7 -3 -5 0 0 0 -3
1532260806593387 -5 7 0 -3 0 0 3 3
1532260806616325 7 1 -3 0 2 2 -4 5
1532260806676165 -2 -2 -3 -3 -6 0 1 1
1532260806713067 5 -2 1 1 3 2 3 0
1532260806751963 -5 -2 0 2 3 1 -1 -3
1532260806781882 -2 3 -2 0 -1 -3 2 -1
1532260806840725 -4 -11 0 -4 -1 3 -1 -6
1532260806879621 -2 -8 -7 -5 1 0 0 -4
1532260806946442 0 8 2 -3 -2 -7 -5 -1
1532260807028224 0 6 0 1 7 2 1 2
1532260807074101 -3 9 -3 -4 -5 1 -6 -6
1532260807097040 2 8 -1 -2 -2 -1 -3 2
1532260807156880 -2 -15 1 -3 -1 -1 0 -7
1532260807201760 -4 -15 -3 0 -1 -1 -4 -4
1532260807330416 -1 -12 0 2 5 1 -5 -1
1532260807365323 0 3 0 2 3 7 2 -2
1532260807457077 0 2 0 -4 -4 -16 0 5
1532260807553818 -3 -2 -4 -10 -14 -24 -1 -3
1532260807606677 0 -3 0 1 12 4 8 2
1532260807644575 4 7 -2 0 4 0 13 46
1532260807666517 -10 0 -2 -4 -2 -18 4 -10
1532260807696437 3 0 4 2 2 5 9 -16
1532260807741317 4 5 2 -6 3 11 1 11
1532260807772251 -4 -4 -3 -2 -3 -4 -21 -38
1532260807825092 -1 -4 2 3 2 7 4 10
1532260807876954 -2 -6 -4 -3 2 5 11 14
1532260807907872 2 1 -2 -5 3 5 -10 -19
1532260807921835 3 -1 1 4 -4 -4 -14 17
1532260807974694 -5 10 1 2 3 4 3 -6
1532260807995646 3 -9 -5 2 10 4 3 -2
1532260808094373 0 2 0 -2 -6 2 9 -3
1532260808118309 2 -2 -3 1 2 9 2 10
1532260808199093 -2 -4 -4 -7 -1 1 0 -3
1532260808281872 0 -12 -1 -1 1 4 0 3
1532260808342710 1 -7 6 4 -2 1 9 7
1532260808454410 -1 -5 1 3 0 2 -11 -1
1532260808483332 -2 -7 -4 -2 -3 7 6 3
1532260808500294 1 1 -2 -4 1 -5 3 -4
1532260808529210 -5 4 -1 -3 -4 -2 -3 3
1532260808560128 0 1 0 3 3 -8 4 -3
1532260808598026 0 1 1 -3 9 45 3 -2
1532260808642906 0 6 0 -6 -38 -27 1 -2
1532260808647893 3 2 3 -4 -7 6 2 1
1532260808687786 -3 -2 2 8 -6 8 4 0
1532260808693770 -3 -2 -3 -3 -5 -4 -5 -2
1532260808716708 -1 -1 -6 -3 -29 5 -1 0
1532260808739648 0 4 1 1 -36 37 11 3
1532260808843370 1 3 4 3 21 -4 1 1
1532260808971029 -2 -3 -2 -10 26 39 0 -2
1532260808995962 0 21 7 8 -7 -9 -3 0
1532260809016913 -1 4 -3 5 14 2 -7 -3
1532260809037850 -4 31 -1 -17 -9 -33 2 -5
1532260809053807 -4 -16 -7 -9 33 9 3 0
1532260809067770 -1 -26 6 3 -74 -4 -10 3
1532260809205414 -7 28 4 -3 -16 0 2 -5
1532260809296159 3 -6 -3 2 19 -34 -9 7
1532260809318101 -4 31 -1 -17 -9 -33 2 -5
1532260809323089 -4 5 -3 -4 -65 -9 8 2
1532260809343035 -1 -26 4 -1 31 12 3 -1
1532260809459722 -1 -25 -2 2 10 22 12 3
1532260809480665 -4 24 2 1 -14 -16 4 5
1532260809588378 0 -8 -2 -4 63 20 -5 -4
1532260809595359 -2 13 -5 -3 -7 -7 -7 -5
1532260809616303 0 -1 -1 -4 -7 -20 3 3
1532260809638244 -1 2 -1 1 -6 -2 -2 -4
1532260809865637 -2 -1 1 3 -2 -2 3 1
1532260809887594 -1 0 -1 -1 -4 -5 7 0
1532260809902537 -7 -12 -2 2 -16 7 6 -1
1532260810038175 4 9 8 -8 0 1 1 3
1532260810083055 2 0 -2 5 4 34 5 2
1532260810105993 1 1 0 4 0 -21 -7 0
1532260810141898 3 -1 -5 -2 0 -34 5 -4
1532260810186778 0 3 4 0 -3 -20 -1 0
1532260810270554 0 -1 -5 -4 -9 -11 -6 -1
1532260810293493 2 0 0 -1 1 -13 -1 -1
1532260810405202 -1 3 0 1 1 5 -2 0
1532260810418159 0 -2 -2 -1 3 -8 -2 -3
1532260810449076 -3 -2 0 -2 4 2 -2 0
1532260810501934 0 -2 -1 -1 -2 -1 -2 0
1532260810638569 -2 -1 1 -2 -4 -1 2 -2
1532260810700404 -1 2 -1 -1 -6 5 -3 -3
1532260810741295 -1 -1 -1 0 4 -3 -2 -1
1532260810779194 -1 0 -1 -2 -3 -22 -4 -1
1532260810990628 -2 -3 -1 1 3 7 -3 -1
1532260811035508 0 2 0 -3 15 0 -3 -2
1532260811058447 0 -1 -1 -1 -7 0 -1 -2

1532260811222009 -1 -2 -1 0 7 -2 0 0
1532260811254922 -2 0 -1 0 -9 5 0 0
1532260811296809 -1 -1 -4 1 -7 -4 3 1
1532260811313764 -1 0 -1 1 12 12 -1 1
1532260811333710 -1 0 -1 -1 6 -4 -3 -1
1532260811498271 -1 -1 -1 -1 -1 -5 -1 -1
1532260811532182 -2 -1 -2 1 -5 0 0 -1
1532260811568084 0 0 0 1 -1 2 0 -1
1532260811611966 -2 -2 0 0 0 0 -1 -1
1532260811634905 -1 -1 -1 -3 -2 -1 0 -3
1532260811808441 -2 -1 -3 0 1 -3 1 -1
1532260811821440 0 -2 0 -2 -3 -2 -1 -1
1532260811889225 0 -1 -1 -1 2 4 -3 -2
1532260811911166 -2 -2 -2 -1 -3 -6 -3 0
1532260811956047 -2 -3 -1 -2 -4 -1 -4 -2
1532260812084703 -1 -2 -1 -1 -5 -2 0 0
1532260812109635 0 1 0 0 -5 3 3 1
1532260812212366 0 0 -5 -15 1 19 1 0
1532260812234302 -2 -7 -8 -14 -3 -9 -2 -1
1532260812264222 -3 -3 -4 -14 -14 -13 0 1
1532260812303118 -2 -2 -2 -14 -4 -28 -3 -1
1532260812362958 -1 -1 -4 -8 -3 -5 0 -1
1532260812398862 0 1 5 2 5 3 3 -1
1532260812490617 -2 0 3 -2 0 -5 -2 -3
1532260812565417 1 -2 0 1 -4 -4 6 6
1532260812604313 0 -3 -1 -3 3 4 8 4
1532260812617278 -2 9 -2 1 5 3 11 7
1532260812631241 2 5 -1 9 -2 0 -3 0
1532260812654179 -2 -5 0 -2 4 3 -3 1
1532260812668142 -5 -3 -2 -3 -7 -4 -13 -13
1532260812691080 1 4 4 19 5 5 -4 8
1532260812714020 0 1 -2 -9 1 1 -6 1
1532260812743940 -1 3 -2 -3 -2 -4 1 -4
1532260812909497 3 1 1 2 2 -9 -15 -11
1532260812925455 -3 -2 -3 -2 4 13 6 13
1532260812949394 -5 -3 0 -2 -6 1 -3 -26
1532260812999257 -1 11 4 5 22 52 35 1
1532260813044137 -3 -4 -7 -9 -13 16 -29 -9
1532260813090015 3 -6 1 3 -9 -5 42 44
1532260813128910 -9 -8 -4 -6 -7 -26 -42 -47
1532260813180781 11 17 1 -3 -2 -14 -41 13
1532260813201716 -8 9 -6 2 -7 -25 -32 -23
1532260813278510 -9 -2 -1 6 -16 -23 21 -25
1532260813344334 3 -14 0 -1 -4 1 36 23
1532260813350318 3 5 3 9 18 18 -25 -15
1532260813411156 -1 1 4 8 1 -40 -1 9
1532260813429107 -4 2 2 4 -11 -6 -16 -67
1532260813459028 2 1 -1 -1 -21 -19 -28 26
1532260813471993 1 -14 -4 0 4 -6 27 -2
1532260813493934 -8 -9 -4 9 1 -11 44 36
1532260813576713 2 6 -11 -5 0 11 4 -12
1532260813645529 0 -17 11 -2 3 1 16 12
1532260813683427 2 13 2 4 -26 4 -19 -5
1532260813756233 13 18 6 7 15 0 23 61
1532260813915806 5 -4 9 3 -6 17 29 13
1532260813990606 2 3 5 -2 3 2 -10 -5
1532260814013553 -4 -7 0 9 11 16 -4 -1
1532260814025512 -3 5 -7 -7 -60 -46 -7 -4
1532260814070393 0 -6 -5 -7 -6 0 -4 -1
1532260814095326 -1 -9 -5 0 12 -11 0 -2
1532260814148184 -3 0 -4 -17 -3 -20 -3 -1
1532260814177107 -1 -2 2 14 9 -6 -3 2
1532260814261881 -3 -6 -3 -12 -9 -5 3 -3
1532260814288822 0 1 -2 -4 16 5 15 13
1532260814304766 3 0 -1 -5 -1 8 12 11
1532260814333689 1 7 -8 -2 3 8 8 3
1532260814388542 3 11 3 3 -4 -6 -2 -20
1532260814411493 0 -2 -4 -4 3 -1 2 0
1532260814432425 -4 -1 1 1 -3 -4 -20 -13
1532260814583022 -1 -9 1 4 4 0 -25 6
1532260814605972 -2 2 -2 -4 -7 -5 0 3
1532260814628909 -2 5 3 3 5 -6 -24 -6
1532260814647848 -1 -12 -4 0 -2 -5 3 1
1532260814732622 -20 -38 -2 3 8 29 8 6
1532260814778499 9 19 1 0 21 18 2 -6
1532260814814404 15 33 3 -2 -17 -9 6 6
1532260814853299 6 31 6 0 10 11 6 8
1532260814875240 -1 -24 0 -1 7 25 10 9
1532260814897182 -1 9 -3 -2 -1 -12 -33 -36
1532260814964003 -4 13 1 3 -3 -6 -11 -22
1532260815032819 1 -11 -3 -4 1 -1 12 41
1532260815078711 -5 -19 -4 -2 -3 -5 -6 -11
1532260815100638 -1 -5 1 2 -4 -8 -9 5
1532260815121581 -3 -10 -2 1 -4 2 7 -8
1532260815181422 -3 3 -4 0 -1 1 -16 -3
1532260815219320 2 15 -1 -4 -1 3 0 2
1532260815264200 -2 -16 -1 3 -3 -10 -5 -6
1532260815287138 -1 4 -4 -1 4 13 0 -16
1532260815355955 -1 9 1 -3 -2 9 -2 -1
1532260815400834 -2 -10 -3 -3 -6 -14 7 -3
1532260815420781 -3 1 -4 -2 0 3 -7 -15
1532260815459677 5 31 5 1 -1 3 7 16
1532260815497575 -1 2 0 -3 -4 1 0 4
1532260815519517 -1 -8 -1 -2 -2 4 -13 -11
1532260815565395 -4 -6 -5 0 2 2 -9 -13
1532260815609278 -1 1 -3 5 -5 -18 1 -3
1532260815692056 -1 -7 -3 -4 -54 -3 0 7
1532260815701032 -1 8 -1 1 20 -5 -17 -3
1532260815717987 -3 -4 -2 -5 0 -16 0 -15
1532260815752894 -2 0 -2 -1 1 6 5 6
1532260815797773 0 -2 -1 -1 0 -17 2 2
1532260815842653 -2 -17 5 10 13 -11 4 3
1532260815865592 -3 0 -6 -12 -19 2 -5 -3
1532260815909475 -4 -6 -6 -14 6 -14 0 -2
1532260815969315 -4 -2 -4 -11 -41 -27 -7 -2
1532260816052093 -2 0 1 18 4 37 2 -1
1532260816211668 -12 -27 -1 -3 4 25 -8 -3
1532260816246573 -15 -52 -3 12 -63 25 0 -2
1532260816302424 -3 0 -4 -15 25 -15 -2 1
1532260816346306 -2 50 -3 -10 7 37 2 -2
1532260816488925 1 -20 -4 -2 -2 -13 11 5
1532260816492915 2 37 12 15 85 -21 -23 -6
1532260816540786 -39 -18 -9 -10 14 -5 5 -10
1532260816584669 -3 -13 2 -4 -26 -22 -22 -8
1532260816630546 12 -19 1 1 -7 6 5 13
1532260816674429 -21 -3 -2 -7 -31 -19 37 -12
1532260816695373 11 -24 -3 13 36 38 18 13
1532260816741250 -3 5 0 -3 16 -1 7 3
1532260816789123 3 -8 2 -5 2 -22 -18 -3
1532260816801090 -3 1 -1 0 -14 4 -13 -6
1532260816811064 -4 -3 -4 -5 -2 -15 -7 0
1532260816846968 6 -3 -3 1 3 2 -6 -3
1532260816883869 -1 0 2 2 12 24 10 -3
1532260816943709 -1 -2 -3 1 2 4 3 2
1532260817065383 -4 -3 -2 -2 -3 9 -17 0
1532260817086327 -4 -3 -1 -2 -16 -44 -7 -6
1532260817124226 1 0 3 10 9 -30 -2 3
1532260817183068 0 1 -9 -15 -3 -1 -4 0
1532260817236942 1 2 3 -4 -4 7 -10 -1
1532260817327682 -1 -4 -5 3 25 18 11 2
1532260817360594 1 4 2 1 -11 6 -5 -2
1532260817394504 -2 -2 -3 -2 -3 -80 -23 -5
1532260817463319 -1 -3 -5 1 3 -3 -9 -1
1532260817484263 -2 1 -1 1 -6 5 2 -2
1532260817575021 0 -3 -2 0 8 -2 3 -2
1532260817620898 -1 0 -3 -3 3 3 -7 -4
1532260817655818 -2 2 1 1 2 -4 -2 0
1532260817717639 -1 1 -1 -1 1 7 0 1
1532260817740578 -2 -1 0 1 -6 -7 -1 -3
1532260817898157 0 0 1 0 -1 25 2 -1
1532260817913116 0 -2 -1 0 -2 -2 -2 -1
1532260817936071 -1 -1 0 -1 3 -3 -1 -2
1532260817956999 -1 -2 -2 0 0 -4 -2 -1
1532260818190376 -1 -2 -2 -1 0 2 1 1
1532260818213322 -1 -2 -2 -2 -10 -45 -1 -2
1532260818236252 -6 -2 0 -1 3 15 -3 -1
1532260818295095 -2 -1 -2 -2 -5 -12 -7 -2

1532260818431269 0 -2 -2 -1 -5 -1 4 1
1532260818459181 1 0 -3 -1 -3 -4 -3 -1
1532260818489111 0 -1 -1 0 -2 -4 -1 0
1532260818526999 1 0 -1 -1 -4 -4 0 -1
1532260818592823 -3 1 -2 -2 -3 -4 0 -2
1532260818683580 -1 -1 0 0 -1 -1 -1 -1
1532260818715193 -1 -1 -2 0 0 7 -1 -1
1532260818738132 -1 -2 1 1 -2 -1 0 -1
1532260818743119 1 -1 -2 2 0 4 -3 1
1532260818780019 -2 -2 -1 -2 3 1 2 0
1532260818826895 -1 0 -1 -1 1 0 -1 0
1532260818894713 -2 -2 -2 0 0 0 0 0
1532260819024367 -4 0 -1 -2 0 4 0 -4
1532260819038329 -1 1 -1 -3 -1 -2 -4 -1
1532260819082213 -2 0 -3 -2 -2 -1 -2 -1
1532260819195907 -1 0 1 -3 -1 -3 0 0
1532260819239790 0 4 6 21 7 -4 0 -1
1532260819284671 -2 -4 -1 -1 -7 -10 0 -2
1532260819293647 -1 -1 -1 -4 -8 -7 1 -2
1532260819336532 1 3 5 2 1 5 -1 -3
1532260819359470 -3 -5 -1 1 -1 -8 -2 0
1532260819471171 -15 -6 -1 -2 -5 -7 -3 1
1532260819540985 -12 -18 -3 2 3 2 -1 9
1532260819576889 9 37 9 2 -3 -2 10 0
1532260819613798 5 3 -1 -1 -1 -2 2 16
1532260819682606 -3 -15 -1 2 -9 -19 -4 11
1532260819743444 -2 6 6 3 -1 5 3 1
1532260819796302 -14 -16 -7 -5 3 8 -1 -11
1532260819816249 -5 -27 -9 -3 -1 7 13 -2
1532260819856143 2 -2 0 4 7 9 -4 -3
1532260819891048 1 1 -2 -4 -13 11 20 20
1532260819983802 1 -3 -4 0 5 7 11 4
1532260820072564 5 -2 -3 -4 4 0 27 36
1532260820160329 -8 -6 -4 -6 1 -23 -8 -16
1532260820191246 -2 -1 0 4 0 2 -26 -7
1532260820237124 2 -8 -3 0 -4 -8 5 23
1532260820386724 4 0 2 -10 5 40 -20 45
1532260820401684 -7 48 15 -4 1 16 -31 -63
1532260820423625 3 -2 -2 -11 -36 18 19 21
1532260820491443 -2 5 -7 -1 15 -2 3 -89
1532260820574222 -5 13 2 -6 -10 -10 -24 -29
1532260820604141 13 -3 -2 0 -4 3 -49 11
1532260820656004 6 9 1 -1 8 -11 -34 50
1532260820707865 -4 15 6 9 -19 -5 2 -29
1532260820761721 8 7 -8 9 2 -12 2 18
1532260820769699 7 24 -9 -10 -3 -4 14 -5
1532260820884393 16 0 -10 -2 4 3 -17 5
1532260820905336 -3 -4 -5 -5 -2 2 -23 -8
1532260820950217 -1 -22 -7 -3 -5 22 8 -3
1532260820966184 0 -7 -11 -6 0 0 1 1
1532260820972158 -2 14 4 -2 -2 -11 -5 -4
1532260820994100 -1 -23 -16 3 1 14 -1 0
1532260821008062 -3 -2 -13 -11 -37 2 -4 -3
1532260821031997 -2 -4 3 7 9 9 0 -2
1532260821143699 -1 -7 -1 25 35 -5 -3 -1
1532260821160654 0 6 5 -11 -17 12 7 0
1532260821175613 0 -1 0 14 -26 19 2 1
1532260821220494 -7 -9 0 -4 -2 3 -30 -15
1532260821256412 3 1 -2 -2 -4 2 7 11
1532260821316238 -3 -12 -3 0 0 4 6 -1
1532260821377075 0 -46 -7 -5 -3 -2 -10 -6
1532260821457859 1 16 4 1 -2 3 10 13
1532260821483790 0 12 -6 -2 -2 -2 -7 -14
1532260821519694 2 14 2 -5 -15 -5 17 14
1532260821736115 2 3 -3 -3 1 -2 -7 -2
1532260821760051 -1 -6 -2 -4 -1 -2 -2 -1
1532260821798955 -4 -6 -3 -4 5 3 -2 6
1532260821809918 2 47 6 -1 -1 -1 7 6
1532260821856792 -2 -2 4 5 0 -2 -1 9
1532260821879731 1 -22 -6 1 -1 2 8 0
1532260821946552 3 -19 3 -4 1 1 -5 14
1532260821985448 -2 0 3 3 -3 3 6 3
1532260822075208 0 -8 -4 -2 -3 0 -11 -7
1532260822133053 0 1 -2 1 -1 -2 -2 9
1532260822156990 1 -5 -2 -5 -1 -2 -10 -4
1532260822299608 -1 0 -3 3 -7 -1 3 3
1532260822351469 1 10 -2 -3 0 1 5 -1
1532260822376402 -2 -21 -8 -1 5 1 -10 -6
1532260822397347 -3 -50 -5 3 0 -2 -2 -1
1532260822486109 0 16 -2 -1 1 -1 7 0
1532260822516030 -1 -12 -1 1 -20 -5 -4 0
1532260822621747 -2 6 -2 -3 13 -19 0 -1
1532260822870083 2 15 1 -11 -8 -14 5 -2
1532260822893021 -3 1 6 6 17 8 0 3
1532260822915960 -5 -12 -4 -14 13 2 3 -3
1532260822937915 -8 -4 -1 19 -4 -15 -5 -3
1532260822942888 0 -9 -2 9 14 -24 -2 -3
1532260822981784 -6 -17 2 18 9 0 -7 -4
1532260823171291 -1 -7 -1 -10 5 -9 -6 -1
1532260823193219 0 22 7 27 -22 -6 7 3
1532260823207181 -6 -38 -8 -3 33 -28 -18 -9
1532260823244083 7 -1 3 17 -2 0 4 6
1532260823312898 -4 29 7 6 21 12 0 4
1532260823335837 -5 -10 -1 9 37 38 -1 -7
1532260823380717 -28 -22 3 -4 5 -27 -13 3
1532260823448536 -9 -4 -8 -3 -34 -8 6 2
1532260823462500 1 0 -4 -3 7 -5 3 -1
1532260823589160 2 -9 -6 -6 -1 6 1 -2
1532260823734770 0 -2 4 4 8 3 -3 1
1532260823763693 -1 -3 -6 -1 0 -19 -6 -3
1532260823800595 5 1 -3 -2 1 6 -1 3
1532260823807576 -2 1 1 3 12 -1 -2 0
1532260823958172 -2 -4 -7 -2 42 -30 -3 -2
1532260823980115 -4 -7 -13 -6 -16 -1 1 -7
1532260824018014 -1 -1 -1 2 9 -5 -4 0
1532260824038957 -1 -2 -1 -2 2 -19 6 -1
1532260824144674 -2 -1 -3 -7 -5 -3 -2 -4
1532260824189565 -3 -2 -1 -2 -2 8 -2 1
1532260824295272 -3 -1 -2 1 -3 -6 -8 -1
1532260824310232 -1 -3 1 -2 -13 -5 -3 -1
1532260824331176 0 -1 1 1 11 -11 1 -1
1532260824340152 0 0 0 -2 -4 2 1 -1
1532260824383036 0 -1 0 -1 -7 -14 -3 -1
1532260824400989 -1 0 -1 0 -7 -1 -1 -1
1532260824420935 0 -1 0 1 -3 -5 1 1
1532260824460829 1 0 -2 -2 -5 -1 0 -2
1532260824490749 -1 -1 0 -2 0 0 -4 0
1532260824533634 0 -2 -1 -2 -6 0 0 -2
1532260824571549 0 0 -2 -1 -2 -1 -2 -3
1532260824586492 -2 0 -1 -1 -1 -1 -2 -1
1532260824624392 2 -4 -2 0 -2 -2 -3 -3
1532260824646332 -3 -1 -1 -2 -2 -1 -2 1
1532260824683234 -3 -1 -1 1 1 -1 -2 -1
1532260824713154 -1 -1 -1 0 1 0 0 -4
1532260824744071 3 -2 0 -1 -4 -2 -2 -1
1532260824767010 1 -1 -2 1 -1 2 -2 0
1532260824781971 -4 -1 0 -1 -2 -1 0 -1
1532260824811890 -2 -2 0 -1 -1 -2 -1 -1
1532260824826850 0 -3 1 0 -2 -2 -1 -1
1532260824850786 -1 -1 2 2 1 -1 1 -1
1532260824863751 -2 -1 -4 -3 -1 1 -4 -2
1532260824902647 0 -2 -2 -3 2 1 1 -1
1532260824909629 -1 0 -1 1 -2 -4 -4 -1
1532260824946530 -3 -3 -1 0 0 -1 -1 -2
1532260824969468 -1 1 -1 -2 -1 -1 0 0
1532260824999403 0 -3 1 -1 1 -1 1 -1
1532260825022337 -1 -3 0 -2 1 -2 0 -3
1532260825080173 0 -2 -1 1 -3 -3 1 0
1532260825127047 -1 -2 -1 -2 -1 0 0 0
1532260825154974 -2 -2 -2 0 0 -1 -1 0

1532260825200850 -2 -1 0 -2 -1 1 0 0
1532260825224786 -2 -1 -1 -1 0 -1 -2 -2
1532260825246727 -2 -1 0 -1 0 -1 0 -1
1532260825323521 -1 -1 -1 1 0 -1 -1 -2
1532260825344466 -1 0 -2 0 -2 -1 -1 0
1532260825426247 -1 0 0 0 0 -1 2 -1
1532260825449816 -1 -1 -2 -1 -1 -3 0 -1
1532260825576757 -3 -1 0 1 -2 -2 1 -1
1532260825599696 -3 -1 0 -1 -2 -1 0 -1
1532260825620640 0 -2 0 -1 -1 -1 -1 -1
1532260825667514 -4 -1 -2 0 0 2 2 -1
1532260825787194 0 0 -2 -1 -1 -1 -1 -3
1532260825823099 -2 -3 -1 0 -2 -1 -1 0
1532260825855020 -1 -1 -2 0 -1 -4 -2 0
1532260825867978 -1 -2 -2 -1 -1 1 0 -2
1532260825876954 -5 -2 -3 -2 -1 -1 0 1
1532260825914853 2 -1 0 -3 -3 -2 -1 0
1532260825959733 0 -2 0 -1 -2 1 -1 -2
1532260825966714 2 1 0 0 0 -3 0 -1
1532260825989653 -10 2 -1 -2 -1 -2 0 0
1532260826041514 -3 0 -1 -2 -1 1 -1 -1
1532260826109346 0 -1 -1 1 -1 -2 -1 0
1532260826148229 -2 -3 -1 1 0 -3 0 -1
1532260826154212 -1 -1 1 1 -7 1 0 1
1532260826228015 -2 1 2 30 -10 2 0 -1
1532260826236991 -2 2 1 -9 14 12 1 0
1532260826273892 -3 -1 -5 -19 -7 -1 -1 0
1532260826288853 0 0 6 -2 -1 4 -1 -1
1532260826325754 0 -1 -1 6 -2 0 1 1
1532260826364650 -2 -2 -6 -8 5 0 1 0
1532260826410528 -1 -15 -2 -2 -7 0 -6 -4
1532260826479344 10 0 -1 -3 -3 3 3 -1
1532260826515248 -2 1 0 -8 8 6 -1 -3
1532260826521231 -2 -3 -6 -2 -3 -7 -4 -4
1532260826552148 15 -26 -5 4 2 1 -1 2
1532260826597029 2 57 9 27 1 0 4 1
1532260826663850 1 11 8 2 -2 2 0 3
1532260826814462 3 0 -2 -7 -8 -1 -6 17
1532260826823431 0 29 5 5 -11 -22 -12 -3
1532260826859327 -5 -1 3 4 -3 5 -9 -20
1532260826992970 2 4 -2 5 -2 7 11 3
1532260827002945 -3 -3 -3 5 -10 -4 12 4
1532260827069765 2 3 1 0 9 -9 15 2
1532260827121644 3 -8 2 1 10 2 6 4
1532260827168501 -16 -3 -4 -4 -24 -34 -12 -16
1532260827310122 2 -3 -2 15 -5 5 -24 -51
1532260827332063 -9 -2 -4 -6 -1 2 9 -53
1532260827391903 -20 -8 -5 -11 -13 -13 -64 27
1532260827474681 -9 -2 -4 -9 20 12 -10 -38
1532260827519562 -1 -4 -6 1 15 4 23 -69
1532260827580399 23 4 1 13 10 -20 23 38
1532260827587380 8 -8 1 4 -7 -24 -15 -26
1532260827602341 5 13 2 4 -7 6 -16 31
1532260827631262 14 0 0 7 0 -1 29 76
1532260827668164 10 5 9 -6 -14 2 11 1
1532260827722021 -2 -57 5 1 -16 2 -11 -20
1532260827742965 -16 -11 -6 -12 15 6 13 29
1532260827843695 22 -3 -1 11 -7 -7 23 73
1532260827865636 -15 15 4 -5 -3 7 -10 -92
1532260827901541 -12 26 6 -14 -6 9 19 -2
1532260827924479 1 -36 -30 -7 -8 15 -20 -68
1532260827933455 -9 17 10 11 -4 16 0 -20
1532260828008254 -26 -104 -56 7 9 -5 3 -8
1532260828053135 -20 -33 2 11 2 2 -53 -70
1532260828074079 -9 42 32 -7 -6 5 32 11
1532260828120954 14 67 23 19 7 12 26 16
1532260828141897 -3 -19 4 -1 -23 9 -15 -22
1532260828163839 12 -3 0 -14 -5 -23 11 7
1532260828201738 1 -1 -5 2 -2 -15 -8 -16
1532260828230660 1 11 1 8 3 10 -4 -4
1532260828261578 -14 33 -1 -2 1 7 7 -3
1532260828353333 0 3 -3 -1 6 -2 -1 1
1532260828449076 -2 5 0 -1 2 -5 0 -3
1532260828458052 -3 -3 0 -4 6 13 -1 0
1532260828493956 -1 -4 -4 -4 -9 -14 -1 2
1532260828516894 2 1 -2 -4 9 2 1 12
1532260828538836 -3 -5 -1 7 39 6 -2 0
1532260828601668 2 2 2 0 -38 -5 -3 2
1532260828629593 4 -1 -4 -7 -17 2 3 9
1532260828691429 -3 -1 -2 -5 -8 5 0 0
1532260828710377 3 -4 1 -4 -2 -3 5 7
1532260828734313 -5 -4 -2 -1 2 2 -5 -14
1532260828756255 0 -7 -3 -7 -4 1 -1 -7
1532260828770217 -4 1 0 7 3 -3 -3 -27
1532260828817092 -3 -2 0 0 -4 -3 -6 -7
1532260828855004 0 -5 1 0 -3 0 7 4
1532260828929791 2 14 -2 -2 2 2 26 8
1532260829021546 0 6 -2 -4 -2 6 1 -5
1532260829026532 -1 3 1 -3 2 0 18 -3
1532260829071412 -5 -7 -5 -1 -3 -12 7 -14
1532260829094351 -1 17 -1 -4 -4 -4 9 17
1532260829229005 -1 2 -4 -1 -3 -2 -3 2
1532260829251929 -3 -48 -11 -6 -6 0 6 2
1532260829275866 3 -6 -8 -1 2 3 5 9
1532260829297807 -4 -11 -1 0 -2 6 -9 -7
1532260829319748 -3 0 -1 -5 -8 -7 0 -5
1532260829370612 0 36 5 2 3 4 11 11
1532260829416489 0 3 2 -1 -6 -1 6 19
1532260829439429 -2 9 -2 2 0 -3 -10 4
1532260829552126 0 0 0 -3 1 7 0 -3
1532260829574068 -2 -2 0 -3 -2 -13 -14 7
1532260829618948 -2 -5 -1 3 0 1 18 7
1532260829708708 -2 8 -1 -4 -4 -3 0 6
1532260829739625 0 -8 -4 -2 -1 4 0 -1
1532260829798468 -3 13 1 3 5 1 10 0
1532260829822417 0 19 -2 -7 -4 -3 -8 -2
1532260829844345 0 21 -3 -4 -7 -6 -1 -2
1532260829873268 3 4 2 3 1 0 -3 5
1532260829927124 -3 -6 -3 4 -5 -2 1 -3
1532260829987961 -2 -2 2 -1 -3 0 -6 -11
1532260830040819 -1 -6 -10 2 1 -1 13 5
1532260830263225 -2 -15 -4 2 3 8 -7 1
1532260830333039 2 6 -5 -5 -3 2 12 7
1532260830361961 -1 -5 -2 -5 -3 -2 -2 -7
1532260830375924 -4 -7 0 -4 0 -2 1 1
1532260830398862 -1 5 5 2 0 -6 -1 -12
1532260830435763 0 6 0 3 -32 -10 -2 0
1532260830481641 -1 -14 -1 -1 -8 -19 -1 0
1532260830504580 -4 1 -7 -12 29 27 -3 -2
1532260830518542 1 -2 -4 -2 19 -12 -1 1
1532260830552452 2 0 -1 3 33 25 8 4
1532260830618293 0 -2 1 14 22 6 0 0
1532260830640217 -4 -10 -5 -14 -39 -24 -18 -7
1532260830699060 2 4 1 10 -60 -21 3 -2
1532260830728980 -5 -33 -3 -1 13 -3 4 -2
1532260830758900 -5 18 -6 -9 16 13 -7 -5
1532260830918473 -2 -8 3 8 -30 12 6 1
1532260830977316 0 14 6 -1 6 -11 -8 -1
1532260831061092 -1 -9 -4 -9 -15 -8 -3 -4
1532260831195731 -4 -10 -7 3 -10 -3 -6 -1
1532260831219675 -2 116 5 -3 11 20 17 3
1532260831235625 -3 -15 -9 -9 -21 -3 12 -1
1532260831262552 -25 10 -2 -5 -97 48 -3 6
1532260831275518 7 -15 2 -3 19 -9 -3 -5
1532260831361289 6 12 1 1 35 -31 1 -3
1532260831384227 4 -10 1 3 31 7 -6 -1
1532260831495929 11 -2 1 2 -4 -13 2 1
1532260831520869 -1 -6 -3 0 6 3 -5 -2
1532260831555769 1 -2 0 1 -18 -4 1 1
1532260831606633 -1 0 1 3 8 4 4 0
1532260831658494 -1 2 1 2 11 1 -11 -3
1532260831685437 -3 0 -1 -3 -1 29 9 0
1532260831728322 0 -1 -2 -1 0 -3 3 -1
1532260831749251 0 -3 4 17 22 10 13 0
1532260831773187 1 3 2 -2 -22 -76 -8 1
1532260831810089 0 -3 -1 22 17 12 2 0
1532260831824052 -4 -9 -8 -7 16 -21 -4 -4
1532260831892868 -7 -5 6 7 34 42 5 -1
1532260831938744 -4 -1 -4 -1 0 13 1 0
1532260832003570 1 4 2 6 -18 -10 -2 1
1532260832103321 0 -1 0 1 22 6 -3 -2
1532260832147187 -1 -2 -2 -4 -15 -6 0 -2
1532260832237944 -3 2 -4 -1 -9 2 2 0
1532260832343672 0 -1 0 1 1 1 1 -1
1532260832356627 1 0 -1 -1 -8 2 -1 -1
1532260832386547 -4 -4 0 0 -4 -7 -5 -4
1532260832491266 -2 2 -1 -1 5 10 1 -1
1532260832536147 1 2 -2 -1 4 -2 1 1
1532260832561080 -1 -3 -2 0 -3 -4 -2 -2
1532260832623912 -1 -2 0 -2 0 -2 -2 -2
1532260832658819 0 0 0 0 -1 0 0 1
1532260832678766 -4 -5 -2 0 11 5 0 -2
1532260832724643 -2 0 0 1 -4 -2 -3 -1
1532260832815400 0 1 0 1 -1 2 0 -1
1532260832898179 -2 -1 0 0 0 -2 -1 0
1532260832912141 -1 -2 -2 -1 0 -2 0 -1
1532260832957022 9 -1 0 2 1 5 1 -1
1532260833092664 0 0 -1 -1 -1 -4 -1 0

1532260833122590 -3 0 0 2 0 -2 0 -4
1532260833150504 1 1 0 -1 -4 0 -2 1
1532260833226301 -1 -2 -1 0 -4 -2 0 -2
1532260833257219 -1 0 -3 -1 1 0 0 -2
1532260833302099 1 0 -4 -2 1 -3 -2 -1
1532260833339003 -3 -1 -2 -2 3 4 -2 -2
1532260833391859 -4 -2 -2 -1 1 -3 1 1
1532260833414797 -3 -2 -1 -1 -2 -2 -1 0
1532260833474637 -1 0 -1 -1 -1 -1 -1 -2
1532260833504557 -2 0 0 -1 -1 0 -1 0
1532260833601299 -1 -2 0 -1 -2 -3 0 -3
1532260833662911 0 1 -2 -1 0 -3 -1 0
1532260833751674 0 0 -2 -1 1 0 0 0
1532260833789572 2 -1 0 -1 0 0 0 -1
1532260833811514 -2 -1 1 -2 0 1 -2 -3
1532260833894292 -1 -1 -1 -3 -3 3 0 -2
1532260833985056 1 2 -1 -1 -1 -13 0 1
1532260834042895 -2 -2 -4 -4 -13 -26 -4 -3
1532260834066831 -2 -3 -3 8 4 -6 -6 -3
1532260834185514 -2 -1 1 -1 1 4 1 -1
1532260834285247 1 1 7 33 15 -2 0 0
1532260834293226 2 0 3 16 12 3 0 1
1532260834352068 -4 -26 -9 -6 2 2 -5 1
1532260834517625 -1 -10 4 3 1 -2 -2 -2
1532260834524607 0 14 3 -3 -1 4 -4 -3
1532260834591428 1 12 0 -2 3 7 12 4
1532260834614367 -1 -7 -3 -5 -6 -4 0 3
1532260834643302 -2 6 -3 -6 -1 1 -3 -1
1532260834756985 -3 -5 -4 -3 -14 -2 2 -8
1532260834801866 2 2 -1 -4 -4 -17 6 -11
1532260834823807 -2 -2 -1 -2 -4 -1 15 9
1532260834845748 -5 -2 -2 -3 -6 21 10 -8
1532260834861722 1 -2 -5 0 10 36 4 5
1532260834921550 1 -1 -3 -4 -2 -17 3 27
1532260835005321 -1 1 -1 2 -4 -54 -26 11
1532260835035241 8 -4 0 -5 -7 15 -18 20
1532260835050202 20 11 5 5 -14 6 5 32
1532260835101065 3 2 6 16 3 -9 29 20
1532260835117023 -4 2 0 -4 30 10 -6 5
1532260835130985 1 5 -1 3 26 -11 -1 -4
1532260835161917 -3 -2 -9 -25 -22 -5 42 62
1532260835281582 2 5 1 -1 4 0 -9 14
1532260835350399 2 -10 0 16 -8 -1 -9 12
1532260835381317 -5 -11 -2 -10 -11 -7 -38 -64
1532260835394281 -10 -13 -1 -1 -3 -14 -42 -63
1532260835408244 -5 -14 -7 -3 1 30 32 -5
1532260835477060 -1 -40 -11 -16 -18 0 -60 -1
1532260835498004 -2 -6 -13 -5 -7 9 31 32
1532260835590756 5 -5 0 7 20 -8 16 -33
1532260835657577 -6 58 9 -4 -7 -9 -8 -18
1532260835672541 0 -9 -14 -2 1 -8 16 -22
1532260835754318 1 -42 -1 -1 3 0 -4 0
1532260835801197 -1 -8 -3 0 0 7 3 -7
1532260835890953 3 13 -1 -2 -17 -18 31 -2
1532260835934836 -1 21 0 -5 -32 28 9 -3
1532260835951807 -3 -10 -10 -18 -1 -12 -4 0
1532260836009636 0 -6 -2 -9 12 -15 -4 -2
1532260836093412 0 3 2 -4 -10 3 -3 9
1532260836138292 1 8 2 -3 1 0 -16 -12
1532260836183171 1 -7 -5 -5 0 1 10 8
1532260836213099 -2 3 1 3 0 -1 18 -9
1532260836225060 -3 -3 3 13 11 4 11 3
1532260836255977 -1 -48 -8 0 5 1 10 4
1532260836295871 6 6 0 0 -4 -5 3 18
1532260836355710 -1 19 4 11 8 0 1 -16
1532260836490350 -1 27 -2 1 4 1 -7 -8
1532260836543213 -2 -2 -1 -1 1 -1 -4 -5
1532260836632969 -3 -18 -1 0 0 -2 9 10
1532260836683833 2 -27 -2 1 5 1 -2 3
1532260836767609 2 -22 -6 -7 0 0 -2 13
1532260836775587 -4 9 -2 -2 -4 3 -4 -1
1532260836790547 -1 -3 -4 -1 1 -2 -2 -12
1532260836822462 -1 -9 -5 -2 2 -7 -15 -4
1532260836837422 4 54 4 2 6 0 1 0
1532260836933166 2 -21 0 1 0 -2 3 0
1532260836956105 6 13 3 1 -2 -3 6 8
1532260837023924 0 -9 4 0 2 -2 9 0
1532260837072795 -2 -20 -1 1 -1 -3 0 -9
1532260837095731 -1 -3 -4 4 -4 -4 5 -4
1532260837134628 -2 11 0 2 -4 -4 8 -2
1532260837233375 0 -15 -2 -7 -8 -3 -3 -3
1532260837276249 1 -11 -4 -7 -3 -3 0 1
1532260837322126 0 -3 0 0 -8 1 1 -9
1532260837336089 0 9 -1 -2 -1 2 -1 -3
1532260837359027 3 -3 -3 5 4 -1 6 4
1532260837381966 0 7 5 0 0 1 1 3
1532260837402910 -2 -19 0 -6 0 -2 -2 2
1532260837435822 -2 -35 -4 -1 1 -2 -2 -2
1532260837510622 1 2 -6 1 3 -7 -7 -1
1532260837547523 0 -8 -2 -2 -3 -1 -4 -19
1532260837570462 0 26 4 0 -2 -5 1 1
1532260837600382 -3 4 -3 -2 -8 -22 -2 -3
1532260837636286 0 -3 0 10 56 54 -2 -2
1532260837688154 -3 -3 -2 -6 9 -26 -8 -6
1532260837788879 -3 -6 -4 6 -18 -37 -16 -6
1532260837808824 -1 0 11 12 -50 -14 1 1
1532260837855699 1 -1 -9 -10 -11 -6 -2 2
1532260837878645 -2 0 -1 -10 44 16 2 -1
1532260837883625 -1 -4 -5 -28 -31 -27 -3 2
1532260837923518 -5 13 -5 -4 50 25 -8 -6
1532260837975379 1 -13 -5 -5 -61 -71 -1 1
1532260838137944 2 10 18 32 -27 23 -3 0
1532260838187835 -7 7 -9 -8 16 -6 -10 -6
1532260838191800 2 17 -2 -7 -26 17 -3 -3
1532260838207758 -8 -12 11 34 55 20 -27 -16
1532260838274578 14 31 3 -11 25 16 -35 5
1532260838305497 11 -27 -4 -9 3 25 10 18
1532260838322451 -17 20 3 -2 42 15 -2 -6
1532260838364339 -11 -14 1 6 36 26 -3 -3
1532260838388275 -12 -33 -2 -11 -4 -11 0 15
1532260838605694 -6 -13 0 7 -2 3 -4 -4
1532260838693459 -1 0 1 0 -3 -2 -7 -2
1532260838727368 0 0 -5 -2 0 7 -5 0
1532260838756291 -2 -5 -1 -5 3 -1 -2 0
1532260838948776 16 -1 -2 -4 39 51 2 0
1532260839004627 -4 -2 -1 11 -17 -18 0 2
1532260839041528 -6 3 -1 -11 -33 -47 -3 -3
1532260839063473 0 1 1 -4 -13 -11 -7 -1
1532260839121314 0 -2 -2 -2 10 0 1 -3
1532260839151235 -1 0 -2 -6 0 -10 -6 -2
1532260839196115 -2 -1 -2 1 -3 0 4 0
1532260839278893 -2 -1 -1 0 -2 3 -3 -1
1532260839303840 0 0 -1 -2 -7 -5 2 2
1532260839337736 2 -6 1 2 4 11 -2 -1
1532260839384610 1 -1 -2 1 -8 -4 -1 0
1532260839451432 -3 -2 0 -1 11 -6 3 -2
1532260839473391 -2 -3 -1 0 -3 -6 3 -3
1532260839499304 -2 -1 -1 -4 -12 1 -1 -3
1532260839542189 1 -2 -2 -2 -10 1 -2 -1
1532260839564131 -1 1 -3 0 6 0 -1 -3
1532260839623970 -2 0 -2 0 3 4 -1 -1
1532260839654901 1 -2 0 -2 -3 4 -1 0
1532260839729688 1 0 0 -2 -6 -4 1 -1
1532260839774568 -1 0 -2 -2 -2 -2 1 1
1532260839787536 -2 -1 0 0 -2 -27 -2 -1
1532260839821461 -2 -1 0 -1 -8 -1 -4 -2
1532260839832413 -1 -2 -1 1 2 4 0 0
1532260839864329 0 0 1 0 0 2 0 0
1532260839923170 0 -2 1 1 4 -27 2 0
1532260839938131 -1 1 -1 -1 -3 5 -1 -1
1532260839997971 -1 1 1 0 -2 -5 -1 0
1532260840030882 -1 0 -1 0 -1 0 0 -4
1532260840052824 -2 0 -1 -2 0 0 -1 0
1532260840090740 -2 -1 -1 -2 -1 4 -6 0
1532260840111666 -2 1 0 -1 -2 -1 -1 -1
1532260840172504 0 -2 0 -4 0 -1 -2 -3
1532260840352023 0 -1 1 1 -3 -2 -3 -1

1532260840585400 -1 -2 -1 -3 -1 -1 -1 -2
1532260840667181 -2 -1 -2 -2 -3 -1 -1 -2
1532260840704081 0 2 0 1 -2 -2 -2 -3
1532260840727021 -3 0 0 0 -1 -1 -2 -1
1532260840739986 0 -1 -1 -1 0 -1 -1 0
1532260840793798 -2 -3 -3 0 -1 -2 0 0
1532260840839690 -3 -2 -2 0 -1 1 -1 -2
1532260840860629 -1 -1 -2 0 -1 -1 1 -1
1532260840923461 1 -1 0 -1 -1 -1 -2 0
1532260840945402 -1 -1 -1 -3 -2 0 0 -2
1532260840966346 1 -1 -1 -1 -1 0 -2 -1
1532260840989285 -1 0 -1 -2 -2 -1 0 0
1532260841027184 -2 0 0 -2 -3 1 -1 1
1532260841094005 -2 -1 -1 -1 -2 -1 2 -4
1532260841109962 0 0 0 0 0 0 0 0
1532260841122927 0 -1 -1 -4 -2 -1 -2 -2
1532260841131904 0 0 -3 -2 -2 -2 0 -1
1532260841160826 -2 -2 -1 -1 0 -1 -1 -1
1532260841206705 -2 -1 -2 -1 1 -1 -3 0
1532260841274522 -1 -1 -1 0 -2 -1 -1 -2
1532260841417140 0 -2 -3 8 24 26 5 2
1532260841438085 -1 -2 -3 0 -3 -7 -3 1
1532260841484959 -1 1 3 -1 -5 -4 1 -1
1532260841499919 0 0 -2 0 14 10 -1 -2
1532260841528858 -1 -1 -1 -4 4 10 -1 0
1532260841543802 -1 -1 -2 -8 -3 -6 -1 -2
1532260841583695 2 4 4 13 -5 -7 -1 -1
1532260841605638 -1 -2 -5 -15 -3 0 0 0
1532260841715343 -1 -3 0 4 0 -2 -1 -1
1532260841771197 -2 -1 1 2 4 -1 -1 -1
1532260841798121 -3 -5 -7 -9 -4 -3 -1 -1
1532260841822061 0 0 6 -9 -1 -1 1 -1
1532260841844996 -2 1 2 -4 3 -3 -19 -5
1532260841858969 3 -2 -2 -2 3 2 6 2
1532260841905848 2 9 1 3 8 4 8 -5
1532260841942749 0 9 -1 -2 -5 -4 -11 -5
1532260841973667 2 8 -1 4 2 -1 -4 -4
1532260841993614 -3 -3 3 6 3 -1 -21 -15
1532260842016552 -1 4 0 5 7 -8 2 15
1532260842054481 -1 -2 -5 -4 -6 2 4 0
1532260842092349 0 1 -1 -7 0 9 16 3
1532260842121272 -3 1 0 1 2 3 -10 -7
1532260842143214 2 8 3 3 -6 -2 3 -8
1532260842206046 -1 -4 -4 -4 -10 -14 19 0
1532260842227987 16 1 1 11 3 29 2 18
1532260842250925 2 3 1 7 -4 17 15 30
1532260842273865 -10 -1 2 -7 -6 -1 8 2
1532260842294808 9 1 -2 -1 11 -6 9 5
1532260842316749 8 1 -6 -21 -23 -36 9 10
1532260842331710 -8 1 3 4 13 19 6 -50
1532260842345672 -4 -3 -1 9 -3 38 19 26
1532260842391549 15 -9 9 11 4 37 17 77
1532260842451389 -6 9 2 -11 7 -19 -21 -23
1532260842474328 -5 -8 -4 30 -16 -29 -52 3
1532260842528184 -16 -5 -3 -15 1 -9 -116 -117
1532260842557107 -14 -4 -1 -5 12 -5 35 104
1532260842595005 6 13 10 12 -30 21 -28 -55
1532260842608968 9 -6 -2 -5 -5 16 17 -2
1532260842631907 -9 3 3 7 14 14 0 -47
1532260842645869 4 1 4 9 23 36 47 18
1532260842660845 4 -8 -3 -15 4 -14 -24 58
1532260842691747 -2 -10 -7 -2 2 0 -8 19
1532260842736627 0 -15 -5 1 -1 6 17 -7
1532260842825389 -12 -20 -3 -2 1 -14 -10 28
1532260842874259 -17 -3 1 3 -7 -15 -48 -81
1532260842895202 18 -7 -3 0 5 18 2 -23
1532260842909165 -2 -17 -1 19 39 4 -30 -29
1532260842932104 -21 -48 10 -3 14 7 68 69
1532260843081704 3 89 -5 -15 -14 -8 -26 -1
1532260843127581 -12 7 -9 -10 -1 7 -16 18
1532260843164483 17 -24 -10 -3 1 -8 13 28
1532260843188427 -6 -14 -2 -6 -3 -2 -4 -10
1532260843217341 4 -5 -2 -6 -4 -8 1 4
1532260843232301 0 3 1 0 -1 -17 -2 -3
1532260843293138 -3 -2 -6 -13 -5 2 -3 -2
1532260843382898 2 -15 -1 3 24 3 1 -1
1532260843403842 -4 -4 1 5 -8 -20 2 -3
1532260843450717 -6 2 1 -1 2 3 1 -4
1532260843494600 11 -7 -5 -2 14 9 -4 0
1532260843540477 6 -4 3 -1 14 9 18 15
1532260843622258 2 -16 -5 0 3 3 -11 3
1532260843637218 2 3 -1 1 2 4 8 15
1532260843735969 3 10 -14 -3 -3 -8 -12 -4
1532260843786818 0 -3 -3 2 2 1 -34 -15
1532260843802775 1 18 6 -7 -2 1 -7 -23
1532260843846658 -1 10 6 6 -6 -61 -8 -2
1532260843893533 -3 -7 -5 -10 -36 -11 -17 1
1532260843935421 -2 -19 -3 -2 0 11 -7 -1
1532260843961352 -1 21 -2 -3 0 -5 -5 -4
1532260843981298 -4 0 -1 10 19 22 5 46
1532260844019197 1 6 -2 -1 4 5 24 14
1532260844073053 3 15 0 -2 1 7 7 3
1532260844192733 1 -6 2 -1 -11 -14 16 -37
1532260844237613 0 -15 -11 -8 2 7 -24 -15
1532260844261549 1 28 4 6 4 13 7 -5
1532260844274514 2 -23 -4 0 1 -7 4 5
1532260844350311 -2 -19 -2 -3 -2 -3 -4 -1
1532260844424114 0 14 0 -3 2 9 -7 3
1532260844491932 -1 -17 -4 4 5 0 12 4
1532260844552769 -1 2 2 2 2 19 10 -2
1532260844559752 -2 -1 4 -2 -4 -15 5 -12
1532260844604631 -1 9 1 -2 -7 -5 -12 -13
1532260844626573 -3 -10 -3 1 -5 -1 -1 -8
1532260844658487 -3 3 0 0 2 -1 -17 -8
1532260844693394 -1 -5 -4 -1 1 7 -18 -12
1532260844793127 -1 13 1 -8 0 -4 -5 6
1532260844815068 0 1 -4 -4 -3 7 -11 -1
1532260844831026 2 -3 0 -2 7 4 6 8
1532260845017527 -2 1 -2 5 2 6 10 -7
1532260845040467 0 15 2 3 0 -2 -17 -11
1532260845078374 0 -29 -4 -3 -3 1 0 -13
1532260845108285 -2 -9 -3 1 8 11 -3 -7
1532260845136210 -1 -1 -1 2 -3 10 1 6
1532260845159148 -3 -3 -7 -4 8 -25 -8 -5
1532260845189069 -2 -2 2 3 19 17 0 -1
1532260845204029 1 1 1 -1 -34 -18 5 2
1532260845318722 -1 -1 1 13 29 35 3 0
1532260845349639 -1 -2 0 -1 -4 -21 1 0
1532260845372578 -3 -7 -3 -4 -12 -12 -9 -4
1532260845400503 -1 -6 2 -2 19 25 3 1
1532260845438403 -2 -13 -8 -10 16 2 4 -1
1532260845676765 3 -45 3 4 48 20 -6 1
1532260845708679 0 -4 -3 -13 -5 8 1 -4
1532260845728626 0 4 -4 -4 -4 20 1 -4
1532260845773505 -4 84 5 -11 -106 -9 2 -2
1532260845813399 -14 14 -4 4 -14 11 -4 0
1532260845856284 10 -7 -3 0 40 34 0 3
1532260845943063 -3 -58 -2 -1 -60 18 -6 0
1532260845985937 1 0 -5 -22 -59 -7 -11 -2
1532260846163463 -4 -12 2 1 -3 5 10 5
1532260846205351 7 28 -2 -5 1 10 4 -3
1532260846226295 -7 -2 -4 -5 -59 -28 6 -2
1532260846262212 1 -2 3 1 12 20 1 2
1532260846496572 -2 -1 -5 -3 -4 -4 2 -5
1532260846510535 -2 -7 -3 -3 4 17 4 3
1532260846772834 1 0 -3 0 9 -5 5 0
1532260846796769 0 1 0 -4 -7 11 1 2
1532260846991261 -2 -2 0 -1 1 -7 -2 -2
1532260847026157 1 -1 -3 0 4 0 -2 0
1532260847049094 -1 -2 -2 -5 6 -3 0 -2
1532260847072058 -1 1 0 -1 -3 -5 -5 -2
1532260847102951 -2 -1 -3 1 -7 -8 -6 0
1532260847162791 -3 -2 -2 0 -5 -1 -4 -1
1532260847201686 -1 -3 -4 -3 0 -3 -3 -2
1532260847268507 -1 -1 -2 1 3 -2 1 -1
1532260847329345 -2 1 -2 -1 -4 1 1 0
1532260847343308 0 0 -2 0 0 7 0 -1
1532260847364252 -1 0 0 1 4 -4 -2 -1
1532260847387190 -3 -1 1 -3 -5 -3 -2 -1
1532260847426087 -1 -2 -2 -2 0 -4 -2 0
1532260847430076 1 -1 -2 -1 -12 -7 -3 0
1532260847497894 -2 -3 -2 1 2 2 -4 -1
1532260847591644 -1 -1 -1 -1 4 3 -1 1
1532260847605607 -2 -1 -1 -1 0 0 -1 -1
1532260847626551 0 -1 1 -2 4 5 0 0
1532260847642508 -1 1 -1 -2 -9 5 3 0
1532260847686391 -1 0 0 -2 -4 -9 -2 0
1532260847730273 -2 -2 0 0 18 0 0 0

1532260847777147 -1 -4 -1 -2 0 -3 -2 0
1532260847823025 -1 1 -2 -2 -5 -1 -2 -1
1532260847845964 -2 -2 -2 -1 2 -4 -1 -1
1532260847887852 -1 -2 1 -1 -1 -30 -4 -3
1532260847925750 -3 -1 -2 1 0 -1 1 -1
1532260848071361 0 -2 0 0 -3 0 -1 0
1532260848145164 -1 -3 -2 -2 1 1 0 -2
1532260848180070 -2 -1 0 -2 -8 -4 -2 0
1532260848212683 -2 -2 -2 1 4 3 0 -1
1532260848226647 0 -2 -2 -2 -2 1 0 -1
1532260848270962 -1 -1 -2 -1 -5 -9 -2 0
1532260848323821 0 -1 0 1 -7 -4 -2 0
1532260848353741 -1 0 -3 -2 -2 -1 -2 0
1532260848422564 -2 -2 0 0 -6 5 -1 -1
1532260848444504 -1 -2 -3 -3 -2 -2 1 -1
1532260848496789 1 -2 0 -1 -10 -36 -3 -2
1532260848610484 -1 1 4 -5 -14 -13 -1 -1
1532260848693264 -1 1 8 21 2 -5 -3 0
1532260848728170 -1 -4 -7 1 -5 4 1 0
1532260848767066 0 1 8 11 -11 -6 -1 -1
1532260848841867 -1 0 12 9 2 6 -12 0
1532260848870788 -1 -4 1 -16 -5 -3 2 -1
1532260848888741 -1 -4 -6 -1 -5 -3 0 -3
1532260848910682 -2 -3 -9 4 1 4 2 -1
1532260848932624 0 0 -3 -6 -2 -1 -2 -2
1532260848954565 -5 -4 0 -7 -3 -3 6 -6
1532260849000442 -1 -3 -4 3 -8 -12 2 -5
1532260849020388 0 -3 -2 0 10 3 9 4
1532260849043328 -2 -2 -3 -1 0 3 -1 9
1532260849090202 4 5 4 -2 -6 2 6 7
1532260849134085 -4 -9 -3 -3 3 -3 -9 -4
1532260849186943 -1 2 -3 -3 -7 2 11 7
1532260849271751 -1 -1 -2 -2 11 -2 -11 8
1532260849286677 -1 -2 -1 -1 -3 -8 10 11
1532260849351504 -3 -4 -2 -4 -16 -19 1 -4
1532260849391410 3 0 0 2 3 -7 -2 4
1532260849443258 -3 -3 -2 2 7 -12 -4 -10
1532260849503098 2 1 -2 -3 1 -11 5 -7
1532260849511076 1 1 1 6 1 -20 -18 -20
1532260849547978 -8 -4 -4 2 7 28 5 -48
1532260849568922 1 -9 -6 -6 -6 -24 -39 28
1532260849598842 -11 4 4 3 5 -23 -62 -53
1532260849605824 9 7 7 13 4 52 92 39
1532260849698575 -27 44 16 4 25 20 33 23
1532260849758416 -6 -13 -6 1 -12 -22 -10 -25
1532260849764409 6 -7 8 31 -7 32 20 -13
1532260849802299 5 -8 -3 4 -43 -10 -25 48
1532260849832218 -1 -12 -3 -2 -20 8 22 -26
1532260849845183 -11 -5 -10 -15 10 16 4 -20
1532260849892058 1 16 -1 -8 -27 13 -9 34
1532260849929956 -7 -18 -3 2 6 2 -1 -10
1532260849951898 -4 19 -6 -9 3 -1 2 -45
1532260850064597 7 -18 -12 -2 12 -20 -36 -24
1532260850080568 5 10 3 3 -2 5 36 72
1532260850094516 -12 21 -2 2 5 11 20 -2
1532260850131418 -26 8 13 -4 -5 -30 -29 12
1532260850145381 7 20 -18 0 11 36 6 15
1532260850184277 -18 -43 8 4 -5 -11 17 21
1532260850229157 3 16 21 21 9 17 -6 5
1532260850275033 -10 24 7 -9 -1 -22 -4 2
1532260850320911 -9 -2 -2 -10 5 -8 -1 -1
1532260850342865 -2 -5 -5 3 -3 5 -9 3
1532260850363798 2 -10 2 -5 8 -7 -1 -5
1532260850381749 -3 -2 1 4 -6 5 2 -3
1532260850394713 0 -23 -3 2 3 7 2 2
1532260850439594 2 -10 -2 -1 -4 -19 -1 2
1532260850455562 -2 49 -3 -7 2 0 -4 -4
1532260850484474 -2 -15 -5 8 5 -3 -1 -1
1532260850506416 3 -1 11 -5 11 34 2 2
1532260850530351 -1 -10 -2 11 39 7 0 -2
1532260850620111 -4 -14 -13 -10 -25 -18 -4 1
1532260850643050 -1 -3 -2 -8 -12 -7 1 0
1532260850659007 -13 2 -14 -4 -19 1 12 10
1532260850679951 43 -3 4 8 9 7 4 5
1532260850707876 13 -12 0 5 20 3 2 -1
1532260850731812 -2 3 -6 -5 -20 -25 4 -2
1532260850737819 14 3 -6 3 0 6 8 12
1532260850777689 14 -2 -3 1 43 24 -12 -55
1532260850806613 2 11 6 1 -3 13 -7 -28
1532260850935268 37 64 6 -2 27 30 -16 17
1532260850948234 4 31 -4 -19 6 4 -22 -60
1532260850981145 12 -4 1 1 4 -5 31 42
1532260851003086 -3 0 4 4 -5 9 18 -2
1532260851040985 4 11 1 0 -5 -2 -27 8
1532260851106809 2 -4 -3 1 6 5 27 5
1532260851152686 -15 -3 3 1 13 3 27 -3
1532260851175625 11 -3 -2 0 9 1 5 24
1532260851181610 5 -12 -9 -3 -1 -1 -7 -1
1532260851219508 4 26 1 -1 2 -1 5 -43
1532260851241450 -5 -4 3 -5 12 -1 -14 19
1532260851280346 -2 1 -5 0 -7 -3 13 12
1532260851386076 1 23 7 -4 -2 4 9 -13
1532260851453884 0 -4 3 2 3 -2 -15 -5
1532260851477817 -3 -7 -2 0 -5 0 -22 -10
1532260851497763 -1 5 4 0 2 -18 -13 5
1532260851520703 2 60 3 -4 1 5 -6 -5
1532260851549625 3 5 -1 2 -1 1 -25 9
1532260851663322 3 -16 -3 -5 -3 1 3 4
1532260851708201 -2 -19 2 -1 -1 8 15 1
1532260851730143 -2 -24 1 -1 2 1 12 -1
1532260851775023 0 5 1 4 -1 7 4 2
1532260851795967 1 6 2 -2 -3 1 6 -10
1532260851873771 -1 5 1 4 1 4 -5 2
1532260851917642 -3 4 0 -2 -3 -10 -19 -7
1532260851940580 -1 -1 -1 -4 0 6 10 6
1532260852006404 -1 -2 3 3 -2 -12 -11 -36
1532260852029343 0 22 -3 -5 2 36 13 5
1532260852051284 -6 -12 -4 -13 4 9 -2 1
1532260852106137 -1 -1 -2 -4 -24 -8 4 5
1532260852127081 -4 -7 -4 -2 2 -30 -8 -2
1532260852255738 1 6 7 17 -17 37 4 4
1532260852263731 0 1 0 4 36 -2 6 0
1532260852306601 -3 15 9 16 36 -4 -7 -1
1532260852336522 0 12 -1 -6 -13 15 0 -2
1532260852359460 -3 -19 -7 -7 -17 -30 -8 1
1532260852441241 -2 1 -4 -3 43 27 8 -1
1532260852467171 -4 -9 -4 -35 -46 -16 -4 1
1532260852563913 -1 5 5 5 -4 9 1 0
1532260852585855 0 26 11 31 29 27 16 2
1532260852598819 1 -18 7 7 29 9 -1 0
1532260852659657 -3 14 9 11 3 -1 2 -5
1532260852689577 11 0 -5 10 18 20 -27 -68
1532260852733459 -3 -18 -9 -2 18 -8 4 12
1532260852863113 5 -27 -5 2 -2 -19 -11 9
1532260852876078 6 25 5 3 7 -11 10 0
1532260852901028 -4 -24 -5 -19 15 -30 -24 -4
1532260852935918 5 -2 2 8 4 -15 4 0
1532260852966835 1 7 5 5 5 14 7 -4
1532260853006738 -1 0 0 5 -1 -13 9 1
1532260853048617 -2 -7 -4 -1 17 -7 -1 -2
1532260853171299 -1 2 3 3 4 -8 -11 -2
1532260853193231 0 -8 1 -2 -3 3 6 1
1532260853225146 -7 -2 -1 -2 1 -4 -3 -2
1532260853455590 3 4 0 7 20 4 0 -1
1532260853471522 -6 -10 -9 -22 -17 7 6 -4
1532260853501443 -6 -1 1 0 -7 -3 -2 -2
1532260853605166 1 2 -1 0 2 -2 2 0
1532260853710882 1 -2 0 -2 -33 -18 -1 -1
1532260853726840 6 -3 -2 1 19 20 1 -1
1532260853731827 6 1 -2 -7 -21 1 -4 -4
1532260853775709 0 0 -3 3 -10 -1 4 -3
1532260853799645 7 -1 -1 -2 12 -9 -7 -6
1532260853837544 -1 -1 -1 -3 2 33 0 -4
1532260853861480 -2 -2 -1 0 19 -13 -2 1
1532260853905363 5 2 -1 -1 -1 -3 -4 -4
1532260853948247 -1 -1 -1 -4 -3 -10 -2 -2
1532260853973181 -2 -1 -1 1 1 -4 -4 -2
1532260853981163 1 -3 -2 -2 1 1 0 0
1532260854002103 0 -1 2 -1 -6 -7 -5 -3
1532260854024045 -3 0 -1 1 0 0 -1 -1
1532260854061944 -1 -2 -2 -3 1 -6 -6 1
1532260854067928 -4 -5 -2 -1 15 1 -1 -4
1532260854113805 -4 -2 -1 -2 -8 0 -1 -2
1532260854129762 -1 0 -2 -4 14 2 1 -4
1532260854160680 -3 0 -1 -2 -2 -9 -3 -1
1532260854266397 2 -1 1 0 -8 1 0 -1
1532260854279362 12 -2 -2 -1 -8 -2 -2 2
1532260854301304 0 -3 -2 0 -3 -1 -1 -3
1532260854324243 -1 0 0 0 -1 -1 1 -2
1532260854391064 0 -2 -1 1 44 2 3 0
1532260854435944 -5 -2 -2 -3 4 4 -3 -4
1532260854459879 -3 -2 -2 -2 -3 1 0 -1
1532260854481821 -2 -1 -1 0 -3 -1 -1 -1
1532260854537672 -5 0 -2 -4 -17 1 0 -4
1532260854543658 -6 -2 0 2 -3 -2 -2 -2
1532260854594519 -3 0 -1 -1 -49 2 1 -1
1532260854624439 -7 0 0 1 2 -5 1 -2
