1532264853521069 -1 2 -2 -4 -26 -6 -3 -3
1532264853565948 -4 -6 -5 -3 -2 2 -3 -2
1532264853595868 -1 -2 5 3 1 7 2 -1
1532264853625789 -2 -3 -2 -10 -3 10 -3 -2
1532264853677650 2 0 -9 -7 -3 -15 -2 1
1532264853738487 -4 -1 -1 -6 -17 -13 -3 -1
1532264853805309 0 0 0 0 -3 -3 -3 1
1532264853955906 0 -1 -5 -4 6 14 6 2
1532264853985825 1 3 2 2 -4 -13 -3 1
1532264854015746 2 1 12 6 2 7 -1 1
1532264854030705 0 40 26 24 29 -8 -3 -3
1532264854045665 -1 -24 -29 -24 -33 -1 1 0
1532264854082567 -3 -12 -2 10 -1 -3 -2 1
1532264854135426 2 -6 4 24 10 7 3 2
1532264854150386 -1 5 4 5 1 -1 2 -4
1532264854203244 0 6 -4 -4 25 29 5 -1
1532264854241143 -5 -19 -12 -6 -16 -34 -11 -6
1532264854255106 -5 -1 12 10 -4 -8 -14 -17
1532264854301980 -1 16 -4 -9 -3 5 17 12
1532264854330903 -4 7 -9 -14 -30 10 -11 -10
1532264854360823 1 -14 -18 -17 6 12 -1 11
1532264854397725 0 -7 6 5 -24 -22 13 1
1532264854427644 -11 -12 -2 7 -12 23 8 -5
1532264854458562 -5 8 1 6 0 -35 -12 -1
1532264854488481 2 3 -5 -6 2 15 -5 0
1532264854503442 -5 4 -3 -9 20 12 -5 5
1532264854518402 -79 -27 -4 4 13 40 36 -10
1532264854555303 14 -12 7 0 -25 -11 1 2
1532264854578242 4 17 0 -3 -39 -2 3 -5
1532264854615143 11 23 2 1 5 -35 17 10
1532264854638081 3 -2 -1 0 16 25 -18 -7
1532264854661020 -4 -25 -30 -11 17 16 -5 -7
1532264854682961 -33 -21 7 16 16 6 -20 -9
1532264854735819 8 16 19 3 3 1 -15 -13
1532264854849516 -3 -5 -2 -4 -14 10 -5 1
1532264854885420 -3 -14 -11 -10 10 1 8 0
1532264854900380 13 16 1 2 6 11 36 -5
1532264854923335 -2 -1 4 3 -9 -8 -24 -13
1532264854953238 -1 -3 -6 -12 16 -6 -8 -1
1532264854983159 2 12 -2 2 9 24 -10 1
1532264855021057 16 27 13 6 4 -4 1 4
1532264855042999 0 -23 -11 -11 -7 -8 -8 -2
1532264855080898 -9 -6 10 19 14 -9 -4 -2
1532264855095858 -8 3 -9 -17 2 -9 -2 3
1532264855117799 9 50 12 29 3 0 0 -3
1532264855155697 -4 6 4 -1 -3 -2 -1 -1
1532264855208556 -3 -15 11 0 -3 9 -2 1
1532264855260417 -6 8 -2 0 -8 0 2 6
1532264855283356 -11 -4 -3 -2 0 -5 -5 -3
1532264855320257 4 -1 -1 1 1 -1 -7 -20
1532264855358156 13 -7 2 -11 -1 4 19 6
1532264855381110 -43 -12 -16 -1 2 11 10 -4
1532264855403036 -13 -13 3 -1 6 12 -3 -11
1532264855598520 -14 -19 -19 -2 -7 4 -4 -23
1532264855703240 9 -4 -5 1 1 -21 7 12
1532264855778040 -11 8 -7 -4 -6 8 16 14
1532264855800978 5 -12 -17 1 4 6 -1 1
1532264855890755 -7 -2 1 0 -4 3 6 1
1532264855912679 -5 2 9 -11 -8 -2 -4 -12
1532264855942600 -8 -4 -10 -3 -8 -8 -16 7
1532264855988477 -20 -9 -4 -2 -7 -9 -3 -7
1532264856018397 11 3 2 1 6 6 8 -4
1532264856048317 -5 0 1 2 12 25 3 -3
1532264856078237 6 -3 -1 -1 3 1 3 0
1532264856123117 -1 -1 0 -4 -8 -26 -4 -1
1532264856146056 5 -1 -4 1 -3 -12 -7 -7
1532264856167997 0 0 2 -1 15 15 3 1
1532264856190936 -4 -4 -3 -5 -11 -6 -18 -4
1532264856220856 -3 3 0 -1 7 -10 -12 -3
1532264856250776 -3 0 0 -2 -2 -19 -13 2
1532264856272718 -17 -4 -6 -3 -2 4 12 -4
1532264856287677 2 -2 -1 -3 0 -22 -2 3
1532264856378465 -8 -4 -5 -2 -1 10 12 -7
1532264856393425 4 1 0 -2 2 10 -14 -9
1532264856468225 4 -1 -5 -3 4 11 2 1
1532264856528065 34 4 1 -2 -4 21 14 12
1532264856595884 -3 3 0 2 10 -16 -7 -11
1532264856625803 -20 -5 0 -4 -6 -11 -1 9
1532264856685644 -3 -3 0 0 -7 -8 -5 0
1532264856724545 13 -2 -4 -3 -4 -25 -9 -9
1532264856775404 -34 -11 -3 -3 -11 -11 1 -16
1532264856813301 -1 0 1 3 16 18 16 5
1532264856873142 -11 2 2 3 20 -54 -11 -5
1532264856888102 36 1 5 4 -10 51 5 26
1532264856910044 59 10 -9 -10 -11 -8 -4 -17
1532264856970880 -32 -37 -49 4 4 37 46 -3
1532264857007782 38 3 -9 3 5 39 -40 21
1532264857022742 -7 -4 1 -1 6 22 8 -7
1532264857052661 -11 -1 0 -1 -18 -9 4 2
1532264857090562 -7 7 6 0 11 16 10 -16
1532264857113499 -11 -9 -3 -1 1 -5 -10 13
1532264857158380 31 3 -4 4 5 -2 0 42
1532264857240160 13 -1 -5 3 -7 7 2 5
1532264857315957 11 24 51 4 9 2 7 6
1532264857375797 -1 -10 -34 -29 17 26 -13 -1
1532264857450598 1 -10 2 7 -34 -46 -39 2
1532264857503456 5 -3 -6 7 -37 25 7 5
1532264857639108 -10 1 -6 -51 -57 -1 -2 -9
1532264857727857 -6 -14 -6 -10 -93 -46 -8 -4
1532264857840554 2 -16 -8 -10 42 16 -16 -12
1532264857908374 -5 -4 -16 -22 22 4 2 -5
1532264857938293 -7 -1 8 23 -14 2 -7 -2
1532264857983174 4 11 -8 -5 6 -13 6 -3
1532264857998133 6 2 -2 14 4 -15 -2 -2
1532264858021072 -12 -4 -6 -6 -21 1 -14 -7
1532264858036032 9 -6 -8 -9 -6 -15 12 7
1532264858072934 1 -7 26 0 13 -6 0 -9
1532264858110833 -8 -5 -3 -5 -8 19 -1 -2
1532264858140752 0 21 8 31 17 8 8 -10
1532264858162694 14 22 19 13 -27 19 16 2
1532264858185632 -8 -1 -1 -15 -27 -35 -10 -1
1532264858200592 12 -13 -16 5 7 -8 -26 -15
1532264858238491 -10 10 18 43 -45 -23 -8 -6
1532264858268411 0 29 2 -20 10 10 -1 7
1532264858298331 -1 -13 -2 -4 -11 32 -11 -5
1532264858335232 5 5 9 1 -53 -4 5 1
1532264858350192 -5 -5 -17 -19 4 12 29 -17
1532264858380112 -4 18 8 20 14 -8 -12 -7
1532264858403051 0 11 4 -6 -28 -22 -1 0
1532264858425989 -10 9 -15 -8 -6 -28 -6 0
1532264858447931 -3 -6 -1 -2 2 2 3 -1
1532264858462891 0 -5 -13 -6 2 -5 -1 -1
1532264858485830 -5 -3 -2 9 6 2 0 -1
1532264858507771 -1 -4 -15 0 -9 11 1 -2
1532264858522731 4 6 16 37 -16 -39 -6 0
1532264858545669 1 4 6 3 -54 -66 -11 0
1532264858575590 0 1 2 1 24 -17 0 -5
1532264858598529 -1 14 -5 -10 27 17 -1 5
1532264858635430 -4 -3 5 -3 -17 -12 -11 -3
1532264858651387 -3 -6 -2 -9 26 14 -1 -2
1532264858688288 -3 -2 -7 -7 0 13 1 1
1532264858710230 -5 -21 -15 -15 21 -46 0 -5
1532264858740149 2 -3 1 -16 -20 15 1 7
1532264858778048 2 2 5 -6 -20 -9 18 6
1532264858800987 4 61 -2 -14 -8 14 3 1
1532264858830907 -2 8 8 6 -55 2 15 1
1532264858867808 -3 -28 -4 4 4 -8 -7 1
1532264858935626 -1 14 2 -6 -2 10 -3 -1
1532264858973526 -4 -31 -24 -13 -10 -35 -4 -3
1532264858988485 -2 17 2 3 26 37 0 -3
1532264859033366 -2 -6 -4 -29 3 -21 -3 -2
1532264859055306 -1 28 -13 -21 -24 1 1 -3
1532264859130107 20 31 0 -10 -17 -49 2 -5
1532264859161024 0 2 5 -6 27 1 -6 1
1532264859182965 -10 -12 9 9 19 34 -3 -2
1532264859242829 -4 -16 -15 -5 38 56 -23 -12
1532264859265768 5 -7 -5 -16 -71 -4 6 2
1532264859310648 -37 21 -7 5 -17 27 -11 -5
1532264859348546 -1 -19 5 6 -75 -7 5 1
1532264859408386 1 -10 0 -11 52 48 5 1
1532264859445288 -7 -7 -1 2 2 -16 -1 -3
1532264859460247 9 -15 -12 -3 -16 10 12 1
1532264859483187 2 -2 7 7 -12 12 3 5
1532264859536045 5 8 10 25 1 31 5 3
1532264859551014 1 -20 -1 -11 12 -20 4 0
1532264859572946 15 2 -2 -22 -32 4 -17 -3
1532264859602866 4 -8 4 10 23 6 2 2
1532264859670695 -3 -12 0 -1 -9 -23 -1 4
1532264859768434 -14 -2 -4 -8 -9 -7 10 -2
1532264859813313 -2 5 -4 -2 -3 -3 -1 0
1532264859873153 1 -1 -1 -7 -7 -4 -2 0
1532264859926025 -2 -2 -4 -17 5 -23 0 0
1532264859977874 1 -3 -1 -2 -5 -10 -6 0
1532264860022754 -7 -6 2 -1 -11 -7 -3 -5
1532264860098558 -4 -3 -4 -10 -3 54 7 -10
1532264860150420 5 1 -2 0 23 -2 -4 0
1532264860203278 0 -5 -3 0 9 18 -17 -5
1532264860257144 5 -6 -1 -4 11 18 -4 -1
1532264860307999 -6 0 -4 -1 -6 5 0 1

1532264860375818 -6 1 -3 -1 10 -3 -1 -3
1532264860442638 -3 1 -2 1 -4 17 -2 0
1532264860457598 -2 0 0 -3 7 8 -1 0
1532264860488515 -3 -2 -3 0 8 6 0 -1
1532264860518435 -2 -4 0 -1 -8 -15 -2 0
1532264860570297 1 -1 -1 0 10 17 -2 -3
1532264860638116 -2 0 -2 -1 23 19 3 -4
1532264860660056 0 -2 -1 0 -10 -7 -6 -1
1532264860720894 0 -1 -1 -1 -1 1 -6 1
1532264860743833 -1 -1 0 -2 -1 0 1 -1
1532264860772755 0 -2 -1 -1 -2 9 1 1
1532264860795694 0 1 -3 0 0 1 2 1
1532264860832595 -1 -2 1 -1 -4 -8 -1 -3
1532264860915374 0 -2 0 0 -1 -6 -1 -1
1532264860960254 -2 0 -1 -3 -3 4 2 -1
1532264861005134 -1 -3 1 -2 -1 -1 2 -1
1532264861065971 -2 -1 -1 -2 -1 -1 -2 0
1532264861087913 0 -2 -1 0 0 -6 1 -1
1532264861185651 0 -1 -2 1 -1 -1 1 1
1532264861223550 -1 -1 -3 -1 -1 -2 -1 0
1532264861238510 -2 -3 -1 -1 -1 0 -3 -3
1532264861298366 3 2 0 4 6 15 1 2
1532264861411049 -2 -1 -1 -1 0 1 -1 -3
1532264861455929 0 -2 -4 -2 2 29 -1 0
1532264861552670 -2 -8 2 -18 -13 25 0 -6
1532264861567629 -2 -18 -16 20 -3 -5 -3 -2
1532264861582590 1 8 7 -6 -2 -3 3 -1
1532264861628467 -4 -1 -5 2 -3 -9 -3 -2
1532264861658388 1 20 1 -28 20 9 0 -3
1532264861703267 0 1 0 1 -1 30 -2 -1
1532264861763107 -1 7 3 3 13 -3 8 1
1532264861793027 -4 -2 -2 -3 9 -3 -1 -9
1532264861822946 2 -5 -3 3 32 23 -16 -1
1532264861852867 0 -12 -21 -4 5 2 -2 4
1532264861890773 2 11 11 5 -5 -41 -6 0
1532264861942627 -3 12 0 -9 11 9 3 2
1532264861957591 -3 -6 -3 -12 15 -2 2 -5
1532264861980526 4 -22 -11 -6 4 -2 -11 8
1532264862018424 5 -2 -8 -4 -6 -4 15 -2
1532264862033384 2 -7 0 -4 15 9 -6 -3
1532264862078264 2 -22 -3 2 -4 16 15 2
1532264862108185 4 -3 2 5 5 -33 17 -13
1532264862182985 -1 -4 2 -1 7 -27 3 2
1532264862213902 0 -1 -8 -12 -16 -19 5 -3
1532264862317624 2 4 4 3 0 -6 2 4
1532264862363502 -4 -24 -14 -15 -2 10 11 3
1532264862400403 -3 -6 11 10 -24 3 1 2
1532264862498141 6 -2 4 8 14 4 -9 7
1532264862513102 -9 -23 -13 -13 -17 -27 -15 -5
1532264862551000 -2 5 1 -5 -2 -14 -6 -1
1532264862647742 12 -23 -5 4 12 7 -4 1
1532264862670680 -3 -6 19 -2 3 -6 -5 0
1532264862723539 -8 10 23 0 -13 -7 9 18
1532264862760447 -3 11 -17 1 5 9 -13 -4
1532264862783379 8 -3 -7 -5 12 -15 -2 -19
1532264862813299 34 -17 -55 -2 11 45 45 5
1532264862835240 -16 -5 1 -5 3 18 -16 8
1532264862858179 11 -28 -19 6 15 -9 -6 13
1532264862888106 -13 10 43 -2 -13 -6 36 -3
1532264862918026 -4 -3 -28 -6 -5 -5 17 14
1532264862947946 -15 -19 -45 -10 -14 -11 -19 -12
1532264862992826 -49 3 14 2 12 0 -3 -3
1532264863007786 -2 34 25 -9 -6 -4 19 -2
1532264863060645 23 2 -8 4 14 11 9 3
1532264863090573 3 -10 -10 5 23 18 3 5
1532264863158383 14 15 45 5 -8 -19 25 10
1532264863195284 -10 -10 -4 -1 -9 4 -3 -2
1532264863248143 5 -10 -10 -2 -5 -1 0 -2
1532264863293023 -10 3 4 -1 -3 0 -8 -8
1532264863337903 -2 3 -2 -2 -2 11 0 1
1532264863352863 0 -4 1 0 -14 -22 0 -3
1532264863397743 1 -6 -4 -10 8 -6 -20 -8
1532264863412702 10 5 8 -3 6 -8 8 10
1532264863450602 1 1 3 -2 10 3 -3 -3
1532264863488500 5 1 -4 -1 31 -11 -5 -2
1532264863510442 3 -4 -7 -2 7 5 3 0
1532264863533380 3 -1 -2 5 22 30 -19 0
1532264863555322 -5 -4 0 -3 -9 -11 -16 1
1532264863578260 1 0 -3 -1 -4 -7 -30 0
1532264863615162 -9 -4 -2 -2 -2 16 15 1
1532264863631118 -4 0 -1 -2 -17 -14 -19 -7
1532264863653064 6 3 0 1 5 -11 -5 2
1532264863682980 7 -1 -2 2 1 -4 0 11
1532264863750799 -17 -1 1 -3 -5 1 -1 4
1532264863772740 12 2 -3 1 1 -3 2 4
1532264863795679 37 3 -2 1 7 7 -18 -3
1532264863870479 -3 1 0 -4 -17 -17 6 10
1532264863901397 -31 -4 -5 -2 -9 -11 14 -31
1532264863998138 13 2 1 1 -9 -17 -4 2
1532264864036036 5 -1 -2 0 -1 23 -7 -4
1532264864072938 -42 1 2 0 -13 -35 9 -39
1532264864170676 0 2 9 2 11 -16 -52 -25
1532264864185636 -61 -7 -6 0 9 42 -19 -2
1532264864215556 -23 17 14 16 20 -51 -24 6
1532264864260436 -18 1 -7 3 -2 7 7 -36
1532264864305316 10 -12 -10 -8 -3 -21 -7 -50
1532264864350196 8 9 17 5 11 34 -2 5
1532264864373135 8 7 6 1 -4 -12 2 3
1532264864403055 -14 -5 1 -5 -12 6 -11 -22
1532264864432975 15 -1 0 -1 6 -8 -7 3
1532264864462895 -1 2 7 2 -5 1 3 2
1532264864492815 3 -19 -24 -3 0 56 -5 -3
1532264864522735 1 -34 -24 -14 13 -14 1 3
1532264864545673 -3 -4 -19 -17 6 25 -2 -5
1532264864605513 -6 2 -4 -22 -47 -39 47 -3
1532264864620473 3 1 0 -7 -38 -13 23 5
1532264864643412 0 5 3 33 3 5 -73 0
1532264864665354 4 -3 7 8 24 2 9 6
1532264864718211 -3 6 -3 -26 72 5 -2 -1
1532264864755113 0 -6 -4 25 32 -27 9 0
1532264864807989 3 39 10 26 -35 12 -5 1
1532264864867828 -4 -10 0 -23 -10 21 2 -3
1532264865018426 0 19 18 -2 -70 -31 -10 0
1532264865115167 -2 0 9 13 2 1 6 0
1532264865132121 3 11 3 -32 4 -10 5 3
1532264865177001 4 33 78 114 11 8 11 4
1532264865197946 -8 -29 -56 -88 -33 -54 -8 -8
1532264865235845 -2 3 -5 -35 -14 -10 1 -5
1532264865287706 -4 -3 -7 -11 -27 -18 5 15
1532264865317626 -2 25 6 -16 -3 -7 3 -3
1532264865348543 10 -7 -3 -4 -4 14 0 -6
1532264865400404 -1 -10 0 -7 10 13 -7 -2
1532264865430325 -1 1 0 -4 -1 -42 12 1
1532264865454266 -2 -3 3 2 -35 -5 4 4
1532264865475205 -10 4 4 3 -1 13 5 3
1532264865505124 -3 -3 -3 -8 -44 10 -2 1
1532264865551002 -15 2 -1 -3 -15 -8 0 -1
1532264865587903 5 -3 -1 3 36 -2 4 2
1532264865625802 -8 -7 -6 -8 25 29 -6 -10
1532264865685641 1 -1 3 13 8 10 0 -1
1532264865700602 -1 -1 -3 -12 11 -4 0 -4
1532264865738500 0 -29 -4 -6 50 7 3 2
1532264865775402 -2 17 1 -11 -4 5 -1 -1
1532264865799337 -1 7 0 3 21 37 1 0
1532264865828260 -2 2 -15 -7 -13 -35 -4 -4
1532264865903060 -2 -5 -1 -3 -6 -14 -1 -1
1532264865925998 3 4 4 3 -23 -20 5 3
1532264865947940 26 -1 -8 -19 -9 -48 4 1
1532264865977860 4 10 -9 -19 -31 -21 1 1
1532264866007781 -2 -16 -7 -21 4 49 -6 -5
1532264866045678 2 11 3 22 40 9 -3 -2
1532264866068630 7 -21 -1 0 -14 20 3 -4
1532264866105518 -5 -15 -18 -5 -30 22 -3 -11
1532264866135438 -7 -11 -10 -15 29 -8 17 15
1532264866182313 5 -2 5 -6 -40 -24 -1 3
1532264866195278 -3 1 -8 -2 25 -10 -3 -4
1532264866225199 -4 5 0 12 8 0 -7 -1
1532264866240158 2 -5 8 4 29 5 0 -1
1532264866278057 -5 12 0 15 37 7 4 1
1532264866307978 4 -3 5 4 -6 -7 -4 -3
1532264866352857 -4 14 -5 -7 -2 17 -6 -2
1532264866412698 -4 -2 3 21 48 -26 2 1
1532264866473535 -5 -28 -8 -2 -29 -21 1 -1
1532264866518414 -8 9 -2 -2 -14 -3 2 -5
1532264866548334 -1 4 -1 -6 -2 5 -20 -7
1532264866570275 -2 5 0 -1 0 -1 0 -1
1532264866600196 -1 -4 -2 -3 -3 -11 10 13
1532264866675993 -4 3 1 4 -1 -2 -3 -1
1532264866705916 0 0 0 -2 -3 -4 1 0
1532264866727854 1 2 3 -8 -5 -4 5 1
1532264866757776 -3 -3 -7 -21 -3 -15 6 3
1532264866780713 -2 -1 -4 -4 -5 -22 5 -2
1532264866802654 -2 -1 -6 4 -10 -60 -10 -4
1532264866825593 -5 -5 -9 1 10 47 9 -2
1532264866863493 0 -5 0 4 3 -2 -1 -2
1532264866885433 -2 4 2 2 -26 -26 4 -1
1532264866908372 -2 1 5 -3 0 51 -4 0
1532264866938292 -3 -3 0 -1 2 13 -10 -6
1532264866953252 -19 19 5 4 -1 1 -2 -6
1532264867020073 6 2 -1 -3 -5 -4 -1 4
1532264867037028 5 -2 -1 0 -1 -2 1 1
1532264867057988 -1 1 0 -1 2 0 1 0
1532264867087891 0 0 0 -4 -1 1 0 -4
1532264867110830 -2 -3 1 0 -2 6 9 1
1532264867147732 -2 -2 2 -1 0 -3 -10 -3
1532264867177652 -1 0 -1 1 3 0 -6 1

1532264867207573 -1 -1 -2 -1 0 -5 -1 0
1532264867223529 -2 -1 -2 -1 -3 2 2 -1
1532264867238489 1 -1 0 -1 -3 -6 -2 0
1532264867290506 1 0 -1 -1 2 5 -5 -2
1532264867305465 -3 0 -1 0 -3 3 2 -2
1532264867328405 0 -1 3 -1 0 -3 -3 -2
1532264867373284 0 -1 -1 1 1 -2 -2 -1
1532264867403205 -2 2 0 -1 0 0 0 -1
1532264867425146 1 0 0 -3 2 7 -1 -2
1532264867463045 -1 0 -2 -1 -1 0 -9 -2
1532264867478004 0 0 0 -2 -1 -2 -1 2
1532264867500943 0 -2 0 -1 -4 -2 0 -1
1532264867522885 -1 -4 -6 -1 -1 -6 -2 -1
1532264867552804 0 0 -1 0 -1 1 0 -1
1532264867590716 -1 -1 -2 1 -2 -4 1 0
1532264867635583 1 -1 1 0 0 -1 0 -2
1532264867718362 0 0 0 -1 -1 -2 -4 -2
1532264867770223 -1 -2 -3 -1 -1 0 -8 -1
1532264867793162 -2 1 -1 -1 -1 0 0 0
1532264867831061 -1 0 1 -1 1 1 0 0
1532264868010580 0 -1 -1 -1 2 0 -2 -1
1532264868287839 2 1 -2 -1 0 5 -2 -1
1532264868317759 -6 -8 -10 8 -12 -19 -4 -5
1532264868400537 0 1 12 26 -24 0 -3 -1
1532264868475343 -1 3 5 4 8 7 0 2
1532264868558121 -3 -2 0 3 11 22 1 -6
1532264868596014 -4 1 0 5 6 37 -3 0
1532264868610975 1 -16 -8 2 -16 -16 -12 -5
1532264868670815 0 -1 -3 -3 -11 -33 3 3
1532264868685775 -3 18 10 5 7 -4 5 3
1532264868700735 -3 4 4 4 2 9 5 -10
1532264868737636 -2 -3 -1 -8 -66 -25 0 4
1532264868760575 -2 2 1 0 14 -12 9 -2
1532264868783513 2 -17 -9 -8 13 -4 7 2
1532264868805455 4 -16 2 -1 1 32 -1 -13
1532264868837370 -1 -29 -16 4 20 23 4 4
1532264868858313 -8 -4 2 5 3 -13 -8 -1
1532264868880256 4 4 1 6 60 51 11 2
1532264868903193 -8 -5 -8 0 1 -14 1 2
1532264868933113 15 6 1 3 -47 24 8 3
1532264868977994 -5 -5 -4 -10 -23 -15 -25 -12
1532264869037833 -5 -10 3 2 5 -4 10 -6
1532264869067753 1 4 2 2 13 11 2 2
1532264869097673 4 -2 -2 -3 22 -15 7 -3
1532264869120612 -23 2 2 2 -3 -6 0 -4
1532264869173481 7 -1 -1 2 7 4 -1 3
1532264869203391 -12 -2 -2 -5 10 16 0 2
1532264869233310 -1 38 20 3 0 -11 0 -9
1532264869270212 4 -19 -13 -5 -5 -11 4 13
1532264869285172 4 -26 -21 -5 -4 -13 -5 0
1532264869308111 -8 8 10 -2 -4 5 11 11
1532264869338031 -1 -4 -5 -5 -2 -9 -5 3
1532264869360969 -38 19 13 1 -3 -5 -9 -34
1532264869412830 -2 12 6 0 0 1 -5 21
1532264869465689 -10 -3 -2 -7 21 7 3 2
1532264869480650 -16 -5 -2 11 13 15 24 -1
1532264869525529 -13 -21 -16 -10 -7 -6 -2 18
1532264869548467 -12 0 1 0 1 4 -11 -39
1532264869585369 -6 -16 -12 0 3 6 -5 -6
1532264869608308 1 3 1 4 1 -8 5 27
1532264869623268 0 1 3 2 -1 -5 5 26
1532264869675129 0 2 -11 0 7 1 -9 -3
1532264869713028 -33 -9 0 -4 -8 -5 2 8
1532264869765886 -7 0 1 0 -8 -18 6 17
1532264869825727 0 -3 -2 3 6 5 -2 19
1532264869847668 24 -5 -3 -1 4 5 1 2
1532264869878585 -8 -2 0 -2 -4 2 4 -2
1532264869915486 1 2 0 0 2 3 6 4
1532264869968345 -5 4 1 0 0 2 1 1
1532264870005246 -1 -9 -19 -2 1 0 -1 -1
1532264870028185 -1 1 -2 -20 7 0 4 -1
1532264870073064 -1 7 11 1 1 -1 8 14
1532264870096003 4 2 8 2 -8 -13 -2 8
1532264870132904 -13 -6 -5 -4 -16 -13 -2 -16
1532264870147864 11 3 3 -1 1 15 1 0
1532264870170803 9 26 24 5 -2 8 -3 0
1532264870207705 15 -4 -5 2 3 4 -5 5
1532264870222665 -2 -13 -8 -6 -7 -3 3 0
1532264870268542 -9 -5 -6 -1 1 1 -2 -5
1532264870298462 -7 2 1 -1 -7 -9 -8 -22
1532264870343342 16 5 2 0 2 -15 -12 -4
1532264870404179 -16 -1 -1 -1 -4 9 9 -1
1532264870418142 -3 0 -3 -1 1 13 -15 0
1532264870433102 -3 4 5 0 -1 5 -27 0
1532264870456041 -24 -3 -3 -2 -5 -5 17 2
1532264870477982 -16 -7 -1 -1 -2 -6 -5 12
1532264870492942 -13 -7 -7 -9 -16 -8 -13 3
1532264870522862 -4 -3 -3 0 6 3 28 9
1532264870560761 6 -2 -2 2 8 16 18 -5
1532264870582702 9 4 1 -3 -17 -17 -8 5
1532264870606638 -17 -7 -4 -4 -9 0 -11 -23
1532264870627583 -15 2 2 3 8 -4 13 15
1532264870643540 19 0 1 2 4 -6 0 3
1532264870695401 -2 -4 -3 -2 -2 7 4 -11
1532264870718354 -16 -4 -3 -6 -11 -2 -6 16
1532264870748259 -5 3 -1 1 2 4 -1 -12
1532264870770201 -7 0 1 0 -2 5 -10 -6
1532264870785161 43 6 5 1 -8 -2 -18 18
1532264870823059 1 -4 -1 1 7 11 -3 -2
1532264870838020 -2 2 1 2 3 13 7 -3
1532264870860958 33 5 4 4 9 -10 -2 6
1532264870897859 -9 -7 -2 -2 -11 58 25 21
1532264870936756 -4 -10 -10 -9 -1 -31 -12 -2
1532264870972659 -42 -4 -2 2 1 -15 2 17
1532264871003576 -23 4 19 1 3 71 6 14
1532264871033497 9 3 -17 -4 -18 7 13 -7
1532264871048457 21 1 12 3 8 -10 -1 13
1532264871071407 5 -11 -9 -1 1 -23 19 -7
1532264871100330 4 4 5 1 2 -4 6 -12
1532264871147193 7 12 6 2 6 -2 -1 -3
1532264871160158 -23 -16 -16 -4 0 -7 -2 -7
1532264871242937 -6 -9 -2 5 -14 -38 -7 -6
1532264871355636 12 72 48 -15 -31 35 34 2
1532264871460355 -20 -41 -7 -13 22 -27 -69 -11
1532264871565075 -11 1 -2 1 28 76 10 5
1532264871602973 -2 -28 -25 30 52 45 13 0
1532264871670793 -2 6 4 12 5 -17 -1 2
1532264871730633 -2 -10 -7 -17 9 2 -3 4
1532264871754569 8 9 0 -5 -3 15 -1 4
1532264871805432 -4 -2 2 4 2 -25 -13 -14
1532264871843331 -3 11 0 -7 21 -8 16 5
1532264871858291 4 -14 2 -7 6 16 7 -3
1532264871888211 2 22 16 6 20 23 -5 0
1532264871918132 12 32 -7 -5 -5 -27 12 4
1532264871948051 2 34 -10 -7 3 -4 13 5
1532264871970989 -1 -3 5 -21 -41 0 -14 -2
1532264872022851 3 -15 9 3 -1 -5 14 2
1532264872052771 -2 -19 -10 -35 4 16 0 -8
1532264872150510 0 -3 4 7 8 9 20 0
1532264872166467 -10 22 19 -6 9 6 -11 0
1532264872203368 1 -13 -4 2 10 -15 21 10
1532264872225310 -21 -17 -3 0 8 2 -23 0
1532264872263208 -9 -9 2 2 37 8 -23 -9
1532264872323048 -8 1 2 -7 -62 -8 8 3
1532264872345987 -10 25 1 2 -13 -6 3 2
1532264872375907 4 -9 -16 -26 19 -10 9 3
1532264872405827 -9 -46 -22 -15 11 45 -10 -5
1532264872465667 -5 -18 -7 9 -53 -29 -5 -3
1532264872487608 3 4 2 2 20 -9 -2 -1
1532264872510547 4 5 11 44 -22 -6 6 4
1532264872578371 3 -6 3 7 -2 -28 0 5
1532264872615267 -1 -4 -18 -21 12 18 5 -1
1532264872653166 -4 11 2 -11 -40 -56 -10 -3
1532264872675107 35 8 2 20 50 74 3 4
1532264872706024 -4 9 16 3 -11 -14 12 26
1532264872735944 -34 -42 -7 -13 27 4 -12 -14
1532264872772846 -3 0 10 4 -18 1 2 9
1532264872787805 -11 44 -9 -17 -4 4 3 -5
1532264872825705 10 -3 -2 -4 82 -7 12 1
1532264872870584 -32 -27 1 2 40 -21 -3 -8
1532264872885544 15 32 7 22 3 24 9 5
1532264872908483 -1 -19 -6 -24 -32 10 -6 -3
1532264872953363 1 -20 -3 3 -61 -5 12 0
1532264872968323 9 -3 -5 0 -9 8 0 -3
1532264872990264 0 -30 11 10 25 -15 -2 -2
1532264873013202 21 52 -5 20 21 6 2 2
1532264873035145 -6 -19 -8 -11 -9 -1 1 -2
1532264873081021 1 -5 -1 1 35 -3 -7 0
1532264873102963 13 3 -1 5 9 -2 10 8
1532264873117923 -10 -6 0 3 -10 -6 2 -5
1532264873170782 30 -4 -1 0 0 12 -1 29
1532264873230622 -7 -3 -2 -3 -11 -18 1 9
1532264873252563 -8 9 3 -3 -18 -7 -3 -6
1532264873305421 -8 -3 3 -1 -10 -4 -2 -10
1532264873328360 -1 2 -3 5 2 20 22 1
1532264873358280 0 1 1 9 -20 -42 -8 0
1532264873374238 -5 -2 0 2 28 -6 -5 1
1532264873395181 -1 -4 -4 -2 -23 -22 -4 -1
1532264873433079 -1 3 0 1 11 44 2 -3
1532264873492920 -7 -4 0 4 52 -57 -38 -4
1532264873560738 27 0 -5 -7 -20 -16 16 -1
1532264873591663 -8 -1 -6 -10 -32 -36 -7 -3
1532264873613601 -5 -1 -3 2 35 12 -2 3
1532264873673458 4 -3 -2 -1 -4 4 2 3
1532264873725299 -1 -3 1 1 -3 -1 0 2

1532264873816056 -5 1 0 -1 -1 -3 -5 -9
1532264873838035 -3 -2 0 0 7 9 -3 -2
1532264873860974 -8 0 0 -1 -5 -8 0 2
1532264873912836 3 -4 -1 -2 -1 6 5 -1
1532264873950734 -3 0 -1 -2 -2 -1 -5 1
1532264873972691 -2 -1 0 -3 3 10 0 -5
1532264873987635 -3 -1 -1 0 -3 -17 -3 -2
1532264874025534 0 -1 -2 -1 0 3 3 -1
1532264874056451 4 -1 0 -1 -1 -4 8 1
1532264874078392 -9 -1 -2 -1 0 4 -2 0
1532264874100334 -5 1 -2 -1 -1 2 -1 -7
1532264874123272 -2 0 0 -1 -3 1 -2 2
1532264874153192 3 -2 -3 0 2 13 2 5
1532264874168152 -13 0 0 -2 -2 14 0 3
1532264874183113 6 0 0 -1 -26 -65 3 1
1532264874242953 32 -2 -2 0 16 48 -1 1
1532264874317752 -12 0 0 -1 0 -1 -4 -5
1532264874423470 -3 -2 -1 -1 -3 -14 -7 5
1532264874445411 -3 2 1 -1 -3 -1 -4 0
1532264874505251 -1 -2 -1 -1 1 -1 -1 -2
1532264874573070 1 -2 -2 -1 -2 -2 0 0
1532264874625928 -4 0 -2 1 1 2 -2 0
1532264874670809 -3 -2 -2 1 -1 -3 -1 -2
1532264874783507 0 -2 -1 0 -2 -3 0 0
1532264874858308 0 3 9 12 -1 22 0 1
1532264874880248 -1 -2 -6 -7 -12 -18 -4 -4
1532264874918147 2 16 0 -19 42 36 2 0
1532264875007921 3 5 32 5 -1 -8 4 1
1532264875045806 -2 -14 -23 -5 -4 1 -3 -3
1532264875135565 1 -4 -2 -3 -4 -7 -12 -4
1532264875150526 0 -3 -5 1 -1 7 -2 1
1532264875263224 -3 3 -3 -8 -5 -19 3 -3
1532264875285166 -6 -18 -11 -2 -16 -8 -14 -17
1532264875398862 -1 -6 4 4 -53 -24 -9 0
1532264875510562 -14 1 1 4 4 -23 7 7
1532264875713021 -1 -1 -1 -3 54 7 7 0
1532264875787821 -15 -3 -4 1 -14 -25 1 -4
1532264875817741 -10 1 -3 2 -2 4 -1 -1
1532264875855640 1 -9 1 -2 -2 1 -23 -1
1532264875885560 5 -4 1 4 15 0 12 32
1532264875900519 26 -9 -1 -2 -4 13 17 4
1532264875923479 0 -24 13 -2 -4 6 0 11
1532264875945400 23 11 -1 1 -1 -13 -21 -15
1532264875998259 3 13 2 0 -3 4 -5 -1
1532264876044136 41 6 -4 -2 4 0 -19 5
1532264876081037 -1 14 9 5 5 11 -39 -7
1532264876095997 -26 6 1 -1 -8 9 3 -6
1532264876132898 -38 19 19 3 5 0 17 8
1532264876147869 12 -19 -14 -4 5 2 16 -13
1532264876162819 3 -2 0 3 8 4 9 -6
1532264876237619 22 30 15 -5 -5 -20 -2 31
1532264876283496 40 16 10 -3 -18 -22 5 12
1532264876335357 -14 -9 -2 0 1 11 10 22
1532264876388216 -8 9 8 -2 -4 -47 -6 -42
1532264876440077 -15 -3 -8 0 2 2 0 -3
1532264876507907 -14 5 -10 0 1 1 -1 -44
1532264876597656 -1 -4 -2 -2 -1 2 3 -4
1532264876665474 0 1 2 5 3 2 -8 4
1532264876688413 -14 -9 -2 -2 4 3 10 1
1532264876703373 -20 -2 0 0 1 -2 -6 -38
1532264876740274 -17 1 -1 -2 -8 4 -6 -6
1532264876755234 11 1 2 0 -3 3 -8 -2
1532264876778173 1 0 0 -2 -7 -4 -11 -2
1532264876801126 -11 -2 -3 -5 -17 -18 -5 -6
1532264876831041 -2 -4 -4 -3 -3 0 4 -1
1532264876852973 -16 -2 0 -7 -13 -15 -42 -5
1532264876867933 0 4 2 -1 -5 -5 -4 -2
1532264876897853 27 1 -1 -2 -8 -44 -2 0
1532264876921790 -50 -11 -4 -4 -11 -2 -28 1
1532264876950711 4 1 2 3 3 5 -2 0
1532264876965672 5 -1 -2 -3 6 14 -6 -2
1532264876987612 -5 -1 -2 -4 -8 -14 -10 0
1532264877018530 -11 2 3 1 3 -3 2 2
1532264877040488 -18 -6 -4 -3 17 8 -4 -9
1532264877063410 26 1 3 1 2 13 -6 7
1532264877078370 -44 -2 -3 -2 -8 -13 -4 -12
1532264877093330 -8 -6 2 0 -4 -7 -25 5
1532264877115272 10 -4 -1 0 2 8 -9 -9
1532264877145192 5 -1 -2 -1 5 11 5 -16
1532264877206029 -46 -5 -3 -3 -10 -8 17 -14
1532264877235973 -30 -1 2 4 4 0 -6 -6
1532264877265893 30 -4 -6 -4 -9 -12 3 7
1532264877295813 -31 -5 1 2 6 -1 29 -15
1532264877325733 -2 0 -1 3 5 -9 -4 -6
1532264877347675 -2 -5 -2 -3 -4 -23 4 -3
1532264877393552 9 -1 -2 -3 7 11 2 8
1532264877430453 21 0 2 3 18 22 10 6
1532264877475333 16 -1 5 3 2 26 17 14
1532264877505261 63 -36 -21 -3 7 23 6 -42
1532264877535173 -67 -39 -20 -3 -21 -86 -19 -13
1532264877551131 33 -5 -5 -9 -11 -1 38 -28
1532264877573072 12 -23 -9 -5 -1 2 -4 4
1532264877610970 83 5 -6 6 -5 2 -58 19
1532264877647885 40 -7 -32 -2 -4 48 -28 -8
1532264877692751 30 6 -2 -6 -38 -49 -13 21
1532264877722672 -21 2 6 2 17 -3 12 11
1532264877775531 -10 2 0 0 -4 -15 2 -1
1532264877805450 -4 36 20 -2 -7 -1 5 2
1532264877828389 -11 -11 -4 -2 -5 -16 2 1
1532264877865290 -10 -8 -4 -5 1 2 -7 0
1532264877880250 0 0 2 4 1 20 -6 2
1532264877941088 -2 5 -1 6 8 12 6 0
1532264877977989 -1 16 -8 22 13 -30 14 1
1532264878015888 -3 -2 -19 -40 -46 -25 -3 -3
1532264878180462 -4 15 10 -16 34 66 -21 -4
1532264878412841 -2 -26 3 38 16 29 -3 -3
1532264878442761 0 -19 -12 -23 18 1 -4 0
1532264878510579 7 -11 -3 -2 11 8 -1 -2
1532264878525539 -3 -1 0 -5 4 -15 -6 0
1532264878555459 0 0 0 5 11 5 -2 -4
1532264878587374 -4 -22 1 1 -7 -1 19 13
1532264878608319 5 3 -2 -5 10 10 -14 1
1532264878660179 -9 -10 5 31 4 1 -30 -15
1532264878683118 -1 17 19 3 37 -7 -6 14
1532264878713038 7 -4 -1 -3 5 -20 5 -3
1532264878735977 15 -3 6 35 28 8 2 -2
1532264878757918 -1 4 -4 -16 -3 -37 1 2
1532264878787838 -3 14 13 -12 9 27 -19 -12
1532264878810777 -6 -6 -15 -10 -13 -16 6 3
1532264878825737 -2 2 3 0 11 26 -7 -4
1532264878877598 -1 -6 -1 1 -1 -4 5 1
1532264878908515 1 -1 2 5 31 19 -5 -3
1532264878945417 -3 -3 -1 -2 -11 2 1 -1
1532264878960377 0 0 -1 0 -2 8 0 0
1532264878998275 -4 1 -7 0 25 18 0 0
1532264879020216 1 -8 3 -3 56 56 -2 0
1532264879050136 2 11 -1 6 34 6 14 4
1532264879065097 3 0 -5 -1 -18 22 -1 2
1532264879162835 -10 -2 0 -10 -17 -27 -1 -1
1532264879177795 -14 -4 -16 -10 -27 -29 -10 -5
1532264879200734 0 6 2 -14 -54 -24 -4 -1
1532264879237635 4 -14 4 4 8 10 3 -2
1532264879275534 2 3 0 -4 1 -5 3 2
1532264879335374 -1 -9 -6 -10 -6 -11 -4 1
1532264879373273 -2 5 3 3 -11 9 0 1
1532264879441092 -8 -13 -7 -12 0 7 -5 -2
1532264879463032 -5 -2 3 34 72 67 3 1
1532264879507919 5 7 3 7 32 -8 -2 3
1532264879537832 -1 3 -2 -16 -66 -46 -9 -3
1532264879575731 0 -1 -1 -9 -3 -6 2 0
1532264879605655 -3 -5 -8 -25 -11 -1 -1 -2
1532264879620611 -1 1 2 -4 25 19 0 -2
1532264879658510 1 2 -1 1 3 21 0 -1
1532264879680451 -2 -1 -5 -14 -9 -7 -2 -2
1532264879703404 -2 -1 0 -8 -24 5 1 -1
1532264879718349 -2 0 -2 2 17 -7 2 0
1532264879755251 -1 1 4 5 4 -10 3 0
1532264879778190 0 1 0 -5 -1 13 -5 -3
1532264879867950 -4 -5 -6 -6 -3 5 0 -1
1532264879890888 0 0 -4 -21 7 2 -3 1
1532264879920808 -2 -1 -2 4 2 0 0 0
1532264879935768 -1 -1 2 6 3 -5 1 -1
1532264879950732 -2 -8 -7 -2 -6 -12 3 -1
1532264879987630 -2 -1 3 20 2 9 -8 -2
1532264880040527 -2 -3 -1 -7 -12 -58 12 -1
1532264880055449 -7 -7 -6 0 -6 -12 -3 -1
1532264880078387 -3 -1 -6 1 49 -5 -6 -7
1532264880093347 -1 -2 1 -4 -8 18 -14 -1
1532264880130248 -17 -2 -1 -2 -32 -24 3 -3
1532264880227987 5 2 2 4 5 -3 -4 2
1532264880347667 0 0 3 1 14 21 0 -5

1532264880423466 1 -1 0 1 0 5 2 1
1532264880513224 3 0 3 -1 -1 7 5 5
1532264880588024 4 -4 -2 0 4 15 -15 -1
1532264880625923 0 0 -2 1 0 0 -2 -1
1532264880715683 -1 1 0 -1 -2 -7 0 -1
1532264880737627 -2 -2 -3 -1 -3 -1 4 0
1532264880888221 -2 0 0 0 1 -4 1 0
1532264880941080 0 0 0 -1 -2 -3 -2 -1
1532264881007902 1 -2 -3 2 9 12 1 0
1532264881240280 -1 0 -1 0 10 11 -1 -1
1532264881338018 -1 -2 -3 -5 -7 -5 0 -2
1532264881397859 2 1 2 8 21 42 4 2
1532264881600317 -3 -8 -28 -10 -7 -6 -4 -3
1532264881615277 -2 17 33 -41 -4 -8 -3 1
1532264881683096 -2 -10 -33 -33 8 -4 6 1
1532264881706034 -1 6 -1 -8 -7 0 -3 -5
1532264881735954 -6 -4 -14 -6 -4 2 -12 -11
1532264881802776 -2 1 -2 3 -9 -16 3 0
1532264881825714 0 -6 -7 1 -2 -7 -6 -1
1532264881840675 0 2 -1 -1 6 -4 -1 3
1532264881878573 -5 4 -2 -5 -4 6 -2 5
1532264881923453 3 -7 -2 -2 -1 3 8 4
1532264881953373 -31 -36 -2 10 -10 15 -3 -3
1532264881990290 3 0 -5 -16 10 25 1 6
1532264882035154 -4 -4 5 22 -29 61 -16 3
1532264882073053 0 15 2 -3 -14 -10 -2 -4
1532264882170791 16 -4 -5 -1 7 1 -18 -1
1532264882192733 -15 -92 -5 -2 7 39 -3 -4
1532264882237613 -4 -6 0 0 -3 -11 -4 -5
1532264882305432 6 45 2 2 -19 13 -1 1
1532264882365272 -8 -9 0 0 30 8 2 2
1532264882485949 -2 -5 0 -1 3 10 -9 -1
1532264882537810 21 -11 -10 -4 -11 13 6 9
1532264882590678 -2 -4 -11 -3 -10 6 -6 -2
1532264882665468 -4 0 -5 -8 -16 16 -6 -1
1532264882882887 16 -4 -8 -4 -2 0 -1 1
1532264882905826 -3 7 8 -3 -5 -5 -1 0
1532264882927767 -5 0 0 -8 1 3 -2 4
1532264882942727 -40 53 1 7 14 4 0 4
1532264882987607 -11 -22 5 -2 21 -5 10 8
1532264883033484 3 -9 -4 6 19 2 0 1
1532264883078365 -7 -18 -1 5 -3 3 -7 -7
1532264883093325 -13 53 72 -1 -10 3 -1 -12
1532264883145186 -10 -41 -12 -7 0 -7 16 1
1532264883265864 0 -35 -6 -4 -4 0 -8 -1
1532264883385543 3 27 2 -4 -2 -7 3 0
1532264883400503 -5 14 -2 1 -1 -3 -8 4
1532264883423442 2 0 8 -1 -5 -3 12 -6
1532264883460343 -7 -8 14 -4 -7 -2 1 0
1532264883498242 3 -3 -12 -1 -6 -2 -6 0
1532264883513201 3 -21 -13 3 -1 -2 -6 -3
1532264883535143 -1 1 3 3 3 -1 -2 1
1532264883602962 0 -4 0 1 1 0 1 -1
1532264883625900 -1 -8 -16 -57 -5 0 -3 0
1532264883640861 6 7 99 38 -3 10 0 -7
1532264883670780 -6 -31 -24 -49 -7 -8 -3 -5
1532264883715661 8 9 37 23 4 4 6 6
1532264883753559 -4 -1 11 36 4 10 0 -2
1532264883790461 -6 -6 3 -9 -4 -7 0 1
1532264883843320 -2 2 8 2 -2 -13 -12 -2
1532264883865260 -6 0 -4 5 1 -4 4 1
1532264883880220 -2 -2 -25 -15 -16 -10 -6 -1
1532264883910140 1 1 3 21 3 31 -13 1
1532264883926098 13 -3 -13 -40 -13 21 10 1
1532264883941058 -7 -2 -2 2 11 24 9 -1
1532264883970978 4 1 -12 -3 -2 0 10 5
1532264883985938 -2 5 16 17 -1 39 2 3
1532264884015872 8 -2 -5 -15 -4 5 11 4
1532264884047772 6 -3 -3 -4 -4 -12 6 3
1532264884067719 21 5 -3 -3 16 11 -4 -13
1532264884090666 19 5 3 0 -5 8 20 21
1532264884136535 -12 -3 -3 1 -2 -10 -11 -3
1532264884195377 -26 -6 -5 -5 -3 9 -19 -9
1532264884270177 9 3 1 -3 0 6 9 22
1532264884293117 8 -4 -4 -10 0 8 -8 6
1532264884331015 -10 -1 -2 -7 -23 -39 -22 -36
1532264884345975 13 2 3 8 11 0 37 25
1532264884360935 11 2 0 2 -7 -4 -20 -12
1532264884375895 10 -2 2 -2 -21 -16 -5 -11
1532264884405815 -12 -4 -4 -3 4 -26 -13 -3
1532264884442716 62 -1 -2 0 27 8 -2 42
1532264884472639 16 1 -4 -15 42 -57 6 2
1532264884518513 -16 -7 -7 -4 1 20 -7 -29
1532264884540460 -67 -6 -6 -10 -68 -78 -34 -38
1532264884563394 -63 4 -1 18 -14 -43 19 12
1532264884585335 40 14 21 -14 -8 -29 7 24
1532264884608274 -22 32 5 -9 26 26 17 -22
1532264884653159 -15 -13 -8 -15 -3 -1 17 -19
1532264884683073 -7 20 18 -3 -2 21 20 2
1532264884720972 5 -1 -7 -9 -28 -33 -3 15
1532264884742913 -36 -13 -2 -1 5 -12 3 -32
1532264884765852 8 -12 -12 -9 -29 -42 -2 8
1532264884795772 -2 2 -2 -6 0 32 20 14
1532264884825692 7 -1 0 1 14 -5 -1 1
1532264884863591 23 1 -3 -1 -9 -14 -8 0
1532264884900492 -2 6 5 3 1 -5 -7 -2
1532264884938391 -4 1 -4 10 14 18 -5 0
1532264884975292 -2 -5 -3 4 0 -1 73 0
1532264885013191 -8 -12 -20 -20 -8 21 61 -6
1532264885066049 -1 -2 -4 -19 5 -58 -56 -4
1532264885147831 10 -10 9 43 50 26 27 7
1532264885403148 11 10 -4 6 -25 21 -1 0
1532264885522828 -27 57 7 -16 -1 30 -10 0
1532264885552753 -4 -9 -2 -5 0 -9 -14 4
1532264885583665 -8 -19 -2 -17 -37 -4 0 -9
1532264885620581 13 40 -4 -7 -4 20 -5 3
1532264885658474 -15 -20 1 5 8 -5 -1 -8
1532264885689383 8 -29 9 28 11 -6 12 14
1532264885703345 -1 -22 6 20 4 -11 8 -1
1532264885733265 17 -56 -9 -7 -14 -22 -4 0
1532264885763185 -2 -8 -7 -12 9 -23 -41 -11
1532264885808065 -3 -43 1 13 36 31 -4 -3
1532264885823025 0 -21 -11 -10 14 44 6 5
1532264885839980 -22 -9 -10 2 21 -21 -17 -14
1532264885890844 13 -13 -2 -11 -12 -29 4 4
1532264885935724 -5 -30 3 -1 21 0 -5 0
1532264885973623 5 7 -3 1 -39 -19 -4 4
1532264886025484 2 -39 2 -6 3 24 -2 -5
1532264886055403 0 6 0 -5 -48 -3 -4 -1
1532264886070364 1 6 2 0 9 -6 -22 -3
1532264886154140 -2 1 -1 -6 26 35 -10 -5
1532264886176081 -3 -4 -1 -3 -3 5 -2 -1
1532264886191042 3 4 3 8 26 -4 -3 1
1532264886220961 -1 -5 -3 -2 4 -2 -6 -1
1532264886257876 0 1 -5 -10 -7 -8 -2 -3
1532264886272822 -1 -2 2 18 3 -16 -5 -2
1532264886325681 -2 -5 8 30 -32 -2 2 1
1532264886378540 -2 5 6 1 5 -20 2 -1
1532264886408460 -2 4 -7 -14 -56 -17 -4 -1
1532264886438380 -2 -3 -8 -12 23 20 4 0
1532264886490241 -3 -9 -1 -22 16 -18 3 0
1532264886535121 -1 86 -6 -10 -25 -16 3 -1
1532264886558060 -3 -26 -4 8 3 -9 2 -4
1532264886580998 -2 -19 -2 15 14 13 1 1
1532264886677740 -4 -1 -5 -14 -39 -32 -4 -4
1532264886730600 5 33 18 11 -5 8 -3 -2
1532264886912126 -1 -24 5 27 -13 -31 -6 0
1532264887037777 2 -5 -2 -4 45 21 -5 -3
1532264887121553 1 8 -2 -5 8 -5 -2 -3
1532264887158454 1 27 9 4 11 -9 2 1
1532264887203334 1 -2 1 4 -1 1 7 3
1532264887233254 -2 -4 -3 -3 -7 -3 2 3
1532264887270156 5 -1 1 3 -5 7 -3 0
1532264887285115 2 -6 0 3 14 18 -7 -2
1532264887323014 0 -1 0 -1 -14 -3 -3 -4
1532264887360913 -2 -1 0 -2 -10 -4 -13 -3
1532264887397814 1 1 0 4 -3 6 5 4
1532264887427734 2 1 1 3 4 2 -2 -1
1532264887450673 -1 -6 -5 -15 -26 -27 -1 -3
1532264887466630 3 2 2 -4 -24 -52 -1 1
1532264887503531 3 1 11 15 18 17 15 4
1532264887518491 -1 -2 -5 -2 -28 -52 2 -2
1532264887548412 1 6 1 14 46 71 10 -1
1532264887570357 17 -2 2 -4 -10 -34 -16 -4
1532264887585313 -7 -2 0 -5 -14 2 2 -3
1532264887608266 -1 -1 1 6 11 15 0 2
1532264887638171 -3 -3 -3 -1 -13 -7 -10 -1
1532264887668091 -4 -2 0 -1 1 10 -5 0
1532264887712971 -9 2 -1 2 1 12 -1 -3
1532264887750870 -2 -1 -2 0 2 10 0 -2
1532264887825670 3 -3 -2 0 1 5 0 1
1532264887855590 -4 -4 -4 -3 -3 4 -3 -1
1532264887915430 0 -1 -1 -3 -1 5 -7 -3
1532264887953328 2 -1 -1 -2 -4 -7 10 0
1532264888028128 -4 -1 -3 -1 -4 -6 -6 1

1532264888066027 2 -1 -1 0 1 10 2 -4
1532264888102929 3 -2 -3 -2 0 2 -4 11
1532264888125867 5 -2 0 -2 0 9 4 -3
1532264888149803 -2 -1 1 -1 -1 0 1 -2
1532264888170758 2 0 -1 0 -2 0 -3 -2
1532264888200677 -7 0 -1 -2 -2 -1 4 -3
1532264888239573 -1 0 -3 -3 3 1 -5 -1
1532264888268514 24 -3 -1 -1 -1 -1 -11 -1
1532264888322352 -5 -2 0 0 1 3 -1 0
1532264888358256 -7 0 1 -2 -2 -5 -5 -2
1532264888373215 -4 -1 -1 -2 -2 1 0 -3
1532264888410117 0 0 -5 -2 1 -1 -1 0
1532264888433056 0 0 -1 1 -2 -2 -2 -2
1532264888470954 -1 -1 1 0 -3 0 3 -1
1532264888507856 -1 -2 -3 0 -2 -2 1 1
1532264888673418 -1 -3 -2 -1 -1 -1 0 -2
1532264888725274 0 1 0 -3 -2 -1 -1 -1
1532264888770155 0 -2 -1 1 -1 1 -2 0
1532264888897813 -1 -1 1 -2 -2 -1 -3 -1
1532264889048411 -1 -1 -2 -1 -2 -1 -1 0
1532264889100272 0 -2 1 1 -3 -1 -2 -3
1532264889227931 0 0 -2 0 1 3 2 0
1532264889302731 -1 0 -5 -9 -5 -8 0 -1
1532264889332657 -1 0 2 1 11 3 3 1
1532264889355589 -1 -4 -5 15 -10 -6 -1 -1
1532264889400469 0 7 2 10 -1 -1 -1 -1
1532264889430389 0 -3 -5 -4 6 5 4 1
1532264889625866 1 0 2 5 -6 -26 11 4
1532264889715626 1 1 -4 1 2 -4 -2 0
1532264889768485 -3 3 7 4 17 30 -8 -12
1532264889835306 2 23 18 4 23 40 -9 -24
1532264889880186 -23 -7 -3 -2 6 50 -13 5
1532264889933044 -1 -14 -7 -9 -24 -52 -38 -3
1532264889985903 -4 -2 5 -1 22 47 5 0
1532264890007851 -34 5 -10 -6 -5 -16 15 -2
1532264890022805 -13 -3 -3 -5 -4 -6 -23 -15
1532264890060704 1 -3 -8 -3 -11 -13 -3 -5
1532264890098602 -3 -7 1 -2 23 5 0 -2
1532264890150464 -3 -7 2 -1 6 7 5 -3
1532264890188362 5 5 -1 -1 -1 4 3 -2
1532264890240223 16 -32 -14 -12 -2 -18 -4 -6
1532264890263162 -12 10 -1 4 -3 8 5 -1
1532264890308053 22 5 -2 0 0 4 5 -1
1532264890323001 13 17 9 2 -11 -3 -14 -1
1532264890375861 -2 11 -11 -3 -5 -6 -3 -6
1532264890435701 31 -18 0 2 2 4 4 10
1532264890510501 -1 4 5 5 8 19 -16 -1
1532264890548399 -9 -20 -3 -6 -6 -4 -7 -4
1532264890570341 -9 6 7 -1 4 5 10 4
1532264890585300 -20 -1 2 0 -5 -19 8 9
1532264890630181 -17 -10 -18 2 6 3 0 -5
1532264890653119 -30 3 33 -5 -3 -2 -11 -5
1532264890712960 16 -6 -19 -8 -8 -5 -6 1
1532264890742879 4 -5 -11 -2 2 -7 2 -12
1532264890780778 -35 5 12 3 4 13 11 -26
1532264890855578 11 48 27 6 3 12 -7 4
1532264890885498 8 -46 -15 -5 -8 -14 5 13
1532264890915418 14 19 13 3 -2 -5 2 -8
1532264890968277 12 21 -6 -7 -4 -5 1 47
1532264890983236 -14 -37 -22 -3 0 -6 4 -40
1532264891043077 8 -25 -12 -3 0 1 8 10
1532264891080975 -8 -34 -17 -2 3 -5 -13 -14
1532264891095935 -5 -36 -4 -1 -3 3 -5 0
1532264891185694 -1 -2 3 0 -2 -1 -6 -9
1532264891230576 -2 13 3 -1 -1 -2 -5 -4
1532264891328314 -1 -1 11 -62 -3 -3 -20 -3
1532264891343274 -13 11 1 15 1 -12 5 1
1532264891411105 -3 7 0 -4 2 -15 2 5
1532264891433034 1 -3 2 10 2 6 2 -3
1532264891470932 1 -1 2 4 -4 6 -1 -6
1532264891485892 -1 0 6 16 13 19 1 -3
1532264891500852 -6 0 -4 -3 -8 -22 -3 -4
1532264891537754 -5 -2 1 2 5 7 -10 6
1532264891583631 7 -1 -5 -4 2 24 3 2
1532264891628511 2 1 -1 -3 -11 -10 -15 -9
1532264891673402 3 17 3 4 6 9 6 2
1532264891704326 -6 0 2 -1 -11 -2 4 6
1532264891733231 6 0 2 3 11 4 0 -3
1532264891763151 -21 7 4 3 2 6 -6 0
1532264891809028 -7 -11 -6 -3 -9 -30 3 22
1532264891830974 -2 -5 -4 -1 -3 3 12 3
1532264891920730 -20 -1 2 4 -8 -16 0 -9
1532264891942671 20 1 -3 -3 -5 -5 -5 10
1532264892025450 19 1 -1 -3 -7 14 21 4
1532264892048403 -3 1 2 4 5 2 2 -5
1532264892063348 3 -1 -1 -2 -2 0 -9 4
1532264892132164 -7 -1 2 4 8 0 -3 -6
1532264892145129 3 2 -1 -2 -5 -13 -8 0
1532264892191007 5 -5 -6 0 7 32 -21 1
1532264892212949 12 -2 -8 -3 0 30 8 3
1532264892242868 -28 0 -7 -5 -5 0 -9 -44
1532264892272788 -3 21 1 -9 -5 -2 23 -11
1532264892295727 -45 -7 -2 8 6 50 -9 6
1532264892317668 27 18 13 0 -8 -5 4 21
1532264892348585 24 17 15 -7 7 6 41 -9
1532264892378505 -52 -2 4 -4 3 6 -15 -22
1532264892423401 -13 -4 2 -2 -2 -11 -13 -26
1532264892438345 -17 -3 -2 0 3 3 5 5
1532264892468265 -6 3 -2 3 -1 -10 15 -18
1532264892520126 -4 -10 -8 -6 -6 1 8 20
1532264892543066 45 -13 -1 -1 0 -19 -6 2
1532264892566004 -4 4 1 -5 -12 -7 -1 -1
1532264892580964 1 3 3 3 14 7 3 18
1532264892617866 27 -17 -22 -1 1 18 -3 -8
1532264892640805 -21 8 6 1 -2 3 -13 -14
1532264892662746 -5 -6 -4 -3 -7 -2 -3 6
1532264892692665 -12 23 22 -7 -2 5 -4 0
1532264892745524 -3 -26 -29 -94 7 -4 8 -2
1532264892798383 -23 -24 -23 -1 -25 -9 -2 -4
1532264892813355 0 23 34 16 11 65 35 -6
1532264892858223 0 -30 -58 -34 -20 3 -54 -1
1532264892873182 -9 9 -2 -54 11 15 3 -8
1532264892895124 0 -8 -8 21 58 38 34 -2
1532264892933023 0 -11 -39 -12 45 19 6 1
1532264892992863 2 21 18 7 49 27 2 2
1532264893037743 -4 -39 -11 25 35 -26 1 0
1532264893090601 8 -31 1 -8 -63 19 5 3
1532264893135481 3 26 15 43 -38 0 -3 -2
1532264893173379 -6 -7 -15 -21 -29 -16 -7 1
1532264893263140 -12 -22 -2 -8 -6 -15 0 -10
1532264893310015 -4 -15 -11 -4 8 0 -17 -3
1532264893322980 -8 -25 -7 2 25 10 -6 -2
1532264893360878 2 -5 -6 0 16 10 26 5
1532264893382819 -3 59 -8 -15 0 -5 12 -1
1532264893442681 -2 9 -8 -18 -18 -22 -26 -6
1532264893488559 0 -23 -3 10 -22 -10 3 7
1532264893518479 -24 -15 -8 -7 -26 38 1 0
1532264893540421 5 36 46 0 18 -25 5 12
1532264893563358 6 28 -12 -30 -15 -19 -22 -13
1532264893593278 -12 -4 21 8 -26 -30 -10 3
1532264893638158 -11 4 6 49 36 16 18 -1
1532264893676057 -5 -9 4 -1 -18 3 -21 -3
1532264893697998 7 -4 -3 -1 -21 -53 -7 -2
1532264893727918 -14 -5 -5 3 -1 5 22 -1
1532264893750857 20 4 3 -1 31 94 -16 1
1532264893772798 5 -4 -4 -4 30 10 -17 -6
1532264893795737 -2 2 9 4 -32 -26 2 1
1532264893832638 -7 3 5 -2 0 11 6 -2
1532264893885497 1 -40 -40 -4 12 21 -3 1
1532264893938356 9 -26 22 25 6 36 1 4
1532264893975270 46 -1 -14 -10 23 -30 -6 9
1532264893998196 -9 42 13 -10 -28 -9 3 6
1532264894036111 -8 0 -38 -7 52 12 4 5
1532264894080975 -5 -25 4 -25 -41 -7 -11 0
1532264894110894 4 24 -4 -5 -44 -30 -1 -1
1532264894155774 -18 -25 -6 -27 -38 -11 0 -2
1532264894200655 -9 -6 -14 -14 28 -9 -3 -6
1532264894223593 -8 -1 21 26 -17 47 7 16
1532264894268473 -7 -24 28 80 21 7 7 15
1532264894283433 0 -13 -5 0 14 11 -12 -7
1532264894320334 -27 -19 0 48 32 58 9 -1
1532264894418073 -8 -17 6 -16 -25 -50 11 -6
1532264894552713 2 -8 -3 30 -32 3 -13 -6
1532264894628510 1 -8 -8 -13 11 26 -6 1
1532264894665412 -13 -3 -1 -3 -3 -7 1 -8
1532264894688350 -2 -3 -3 9 12 12 3 0
1532264894703310 -3 -1 -5 -11 -20 -1 2 2
1532264894733230 3 4 2 -5 -4 12 -3 2
1532264894770131 6 7 8 28 18 51 3 1
1532264894793071 -14 -1 0 5 11 -39 -5 -9
1532264894837950 3 4 -2 -9 -6 11 -9 -1
1532264894860889 -4 -2 -2 -6 2 21 3 0
1532264894890808 -8 0 0 -2 -25 -68 15 -5
1532264894912750 8 -1 1 -4 -14 -16 1 3
1532264894957631 -5 0 -1 -4 -2 -29 -18 -6
1532264895003508 1 0 -1 -2 -2 -5 -3 -5
1532264895025449 -2 2 0 -1 -1 2 1 -9
1532264895072324 -7 -1 -1 -1 4 5 3 -1
1532264895085289 -1 0 -4 -2 -2 10 -4 -2
1532264895139144 -5 -2 -1 -1 -8 -4 -3 -4
1532264895184026 -1 -1 -2 -3 -3 -9 -1 2

1532264895227907 1 -2 0 0 -2 -2 0 4
1532264895280347 9 0 -3 -2 -5 -10 0 2
1532264895303285 -2 -2 0 0 0 10 0 -2
1532264895340186 -2 0 0 -2 -3 -14 -2 -2
1532264895393045 -1 -3 -1 -2 8 4 0 -2
1532264895415983 -1 0 1 -2 -6 -1 -1 1
1532264895452884 -1 -2 -3 -4 -5 -10 -4 -1
1532264895497766 0 -1 0 0 2 25 4 -2
1532264895520704 -2 -2 2 2 2 -2 -3 0
1532264895573563 1 -2 -2 -2 0 0 0 0
1532264895610464 0 -1 -3 4 5 14 9 0
1532264895670304 -2 -2 -5 -5 16 26 0 -2
1532264895715184 1 -4 -5 -2 -12 -16 1 0
1532264895768043 0 -1 -1 -3 -1 -18 -5 -1
1532264896000420 1 -1 3 0 0 -5 -3 -2
1532264896151024 -2 -1 1 0 2 9 -1 -1
1532264896202880 -2 -4 -5 -5 -13 -5 -2 -3
1532264896353479 6 12 47 90 0 28 7 4
1532264896390378 -1 -9 -6 -18 -5 -34 0 0
1532264896443237 -1 -5 -5 -7 20 12 1 0
1532264896615776 1 13 8 -2 27 4 18 6
1532264896667637 -2 -4 3 6 -39 -27 -2 -5
1532264896699551 2 1 2 -9 11 -24 3 4
1532264896750415 -3 21 1 -10 -4 19 -14 2
1532264896795295 16 -12 -3 -11 48 30 -1 1
1532264896840175 -5 -9 -8 -9 7 48 7 -3
1532264896901012 13 11 -1 -8 17 -4 5 2
1532264896922954 -16 -10 -9 -8 -17 -10 -33 -13
1532264896982794 -46 -1 -5 -1 11 -3 -11 -9
1532264897027674 4 28 -22 0 -16 26 9 3
1532264897044628 -1 -18 4 1 39 16 -8 -3
1532264897073551 -1 -9 1 11 8 -5 3 2
1532264897095493 -2 -2 -2 -8 -41 3 -2 0
1532264897118431 -2 0 6 6 16 7 3 0
1532264897163311 -3 -3 4 2 -66 -14 -8 -4
1532264897185253 10 0 -6 0 -4 -5 -5 1
1532264897215173 -10 -8 3 -2 -5 -4 -3 -7
1532264897276010 4 -7 -7 -3 -8 8 5 5
1532264897290970 34 8 -5 -12 -13 -12 -1 -5
1532264897327871 8 32 -5 6 0 8 -1 -2
1532264897410650 -10 -26 -11 -2 -5 -5 -2 -3
1532264897455530 0 4 10 19 -6 -2 -5 -4
1532264897485450 5 -12 3 -4 -4 -5 -1 -5
1532264897500410 26 11 1 3 1 -10 -6 15
1532264897523375 1 -11 10 0 0 -2 -17 -22
1532264897553268 7 10 0 -4 -6 -2 -4 2
1532264897598149 -32 4 12 0 -4 -15 -8 -1
1532264897628069 7 -5 -10 -3 1 2 -7 4
1532264897643028 -33 0 -2 0 11 17 -10 -2
1532264897702869 -14 16 8 -6 -25 -20 -8 -10
1532264897717828 -4 8 -13 -4 -6 8 10 18
1532264897755727 3 -7 -2 1 4 8 21 2
1532264897770687 2 5 9 3 15 -21 -10 6
1532264897792629 17 -7 -11 1 -3 12 6 8
1532264897853466 11 0 -10 0 -5 -4 -17 -10
1532264897875407 -3 13 15 4 0 -5 10 7
1532264897920287 -7 -5 0 0 -1 16 -1 1
1532264897958186 -5 -17 -3 -1 4 11 -3 -10
1532264897981136 -3 -9 -5 -3 -4 -2 4 6
1532264898018026 -10 4 2 -2 -1 1 -2 -17
1532264898070884 -6 8 2 2 0 0 0 1
1532264898100804 1 0 1 0 0 4 1 -7
1532264898130725 9 -1 -1 -3 -16 -3 -8 -2
1532264898152666 8 7 10 -3 9 3 -18 -20
1532264898167626 -3 -1 -11 2 15 45 8 17
1532264898205524 -4 0 -2 -1 5 -6 -7 -7
1532264898243423 -5 -2 0 2 9 20 -6 1
1532264898258382 -10 -6 -4 -4 -11 -14 14 0
1532264898303263 -5 -2 -1 0 -16 -3 9 1
1532264898318223 1 3 9 7 8 0 -6 -4
1532264898340164 0 -3 -5 0 6 4 20 2
1532264898355124 -9 -4 -4 -5 1 -10 -28 -5
1532264898378062 -12 -7 -8 -4 0 -4 41 2
1532264898415962 -18 -1 -3 1 19 31 -8 -28
1532264898437902 23 -4 0 -2 -8 -9 -3 5
1532264898484778 -16 2 -1 -2 0 -23 18 -1
1532264898497743 25 2 2 3 -3 -4 45 5
1532264898520681 -15 -2 2 0 -3 -12 0 12
1532264898588500 -25 -8 -3 0 12 4 -26 -6
1532264898640361 1 -3 -4 -5 -11 -19 -42 -14
1532264898678260 -19 -1 1 2 16 29 -3 -22
1532264898700201 0 1 0 0 -3 -6 -8 4
1532264898715162 6 0 0 -1 -4 4 4 -2
1532264898761038 -33 -2 0 -2 3 2 21 4
1532264898850799 4 -1 -2 -5 -3 -10 -10 -7
1532264898917620 19 3 -4 -3 -22 -15 -14 5
1532264898978457 7 4 0 4 11 6 -16 0
1532264899047274 96 1 -1 -1 -21 -56 3 31
1532264899090159 75 -85 -81 24 21 10 31 12
1532264899143017 -15 22 14 -6 -1 22 16 9
1532264899202857 7 -1 -6 -4 -5 0 -3 -5
1532264899300596 -1 -9 -3 -2 4 13 5 2
1532264899330515 2 -4 -8 -8 -5 7 1 3
1532264899420276 -1 -19 -53 -58 -8 -25 -1 1
1532264899833172 -4 -13 -25 -40 -37 -57 -12 -8
1532264899915950 -5 -3 -3 0 -16 -47 -6 1
1532264899960830 -5 -10 -5 -5 -16 25 8 -3
1532264900020670 -4 -1 -4 -2 -7 -16 4 8
1532264900133369 -6 6 -1 -18 2 -1 -11 -14
1532264900155310 7 76 18 15 -16 32 -12 -5
1532264900275988 1 -28 -3 4 40 -36 -1 4
1532264900305907 11 4 4 -2 -44 -7 4 5
1532264900350788 -4 -20 -13 -6 6 -18 3 2
1532264900380708 -5 -5 2 3 7 -21 -1 -2
1532264900402648 4 15 7 14 -28 20 -1 0
1532264900433567 0 -8 -7 -19 -2 9 -3 -1
1532264900455508 2 3 -1 -5 -9 -23 5 2
1532264900486424 -2 12 14 15 2 -21 -4 0
1532264900515347 -1 37 -2 25 13 -36 -11 -8
1532264900530308 7 9 15 30 -39 39 3 6
1532264900575198 1 -9 3 2 3 -13 0 2
1532264900599124 1 -13 -3 -13 8 35 10 1
1532264900628046 7 35 -12 -9 13 19 7 2
1532264900657978 -16 -39 -3 -8 -4 24 3 0
1532264900687886 2 -35 19 46 -78 -14 -4 0
1532264900747726 2 -2 9 8 -15 -7 3 1
1532264900815545 3 18 -7 -20 -14 34 -4 -4
1532264900883363 -13 20 -13 10 26 -15 -4 5
1532264900958164 3 -12 1 3 4 34 3 6
1532264900996071 9 43 17 48 7 -36 0 -1
1532264901018003 15 13 3 1 28 28 -5 1
1532264901040957 -15 -41 -9 -8 -33 -14 -6 -9
1532264901070862 -10 -40 -4 -1 -6 -30 3 6
1532264901085822 1 58 8 -19 -16 8 -4 -2
1532264901122723 -3 4 14 27 53 19 -3 2
1532264901175582 14 3 -11 -12 -16 -2 0 -3
1532264901190543 -6 -48 -21 -12 -59 9 -3 1
1532264901220462 3 -11 9 -6 -45 -9 0 -1
1532264901250382 -5 15 7 25 7 0 -1 -3
1532264901295263 11 13 0 -9 -1 -4 -5 -2
1532264901340142 -6 -2 0 -7 24 5 -3 0
1532264901445859 -1 2 -3 -5 -11 -4 -2 -2
1532264901467801 -2 -9 -2 -3 3 7 -3 3
1532264901497721 6 -9 -3 5 6 2 7 6
1532264901512681 5 5 -3 -3 -3 -2 -4 1
1532264901527641 3 0 -5 1 -1 0 6 1
1532264901543598 15 0 -1 2 4 17 -9 4
1532264901565539 -7 -6 -9 -22 -21 10 -3 2
1532264901580506 -2 4 -4 -8 4 -17 -2 2
1532264901610419 -7 -9 2 -1 -3 -7 -1 -3
1532264901640339 5 -1 1 1 21 39 13 6
1532264901663278 4 1 1 3 15 6 15 4
1532264901693198 4 0 2 10 -4 79 -1 -1
1532264901708158 0 1 2 6 32 -35 14 7
1532264901738077 -5 0 -1 -4 -32 -26 3 0
1532264901782962 -12 0 -3 -2 -9 7 9 -9
1532264901850777 -1 -1 -1 1 3 0 6 -1
1532264901872718 -4 0 1 -2 -2 6 -1 1
1532264901925577 10 -3 -2 -3 1 6 6 -1
1532264901970457 1 0 -2 1 0 12 2 0
1532264901993395 -4 0 0 1 -1 -1 -1 2
1532264902008355 -1 0 -1 -1 -1 -1 -3 -2
1532264902030297 -5 -2 0 0 -2 -9 0 0
1532264902060216 7 -2 -2 -2 -1 -8 0 2
1532264902084153 -3 1 0 -1 -4 5 2 -1
1532264902113075 -1 1 0 -2 -2 8 6 -1

1532264902136014 -2 -3 -1 0 -4 -4 2 -1
1532264902150974 6 -3 0 -3 -3 -28 -5 3
1532264902180894 0 -2 -2 -1 -3 11 -3 -4
1532264902195854 1 -3 -3 0 -1 -2 -2 0
1532264902225774 3 0 -2 -1 0 10 12 3
1532264902247715 0 1 0 0 -1 -4 -5 0
1532264902262675 0 -1 -3 -2 0 0 -4 -2
1532264902292595 0 -1 -1 0 0 10 -1 -2
1532264902315534 2 0 1 1 -1 2 0 1
1532264902338472 -2 0 -1 -1 0 -5 -5 -1
1532264902353432 1 -2 -1 -2 2 -2 1 -1
1532264902368392 -1 -3 1 -1 -1 -1 -11 0
1532264902405294 -1 1 -2 -2 2 2 6 -2
1532264902428232 -1 0 -2 -3 -3 0 -3 -2
1532264902443193 -1 0 -2 -1 -2 -4 -3 -3
1532264902481091 0 1 -2 -1 -1 -2 7 1
1532264902496051 -1 -2 -3 -3 -2 0 -2 0
1532264902517992 -1 -4 -1 -1 -1 11 2 2
1532264902532952 -2 -1 2 -2 -2 -4 -1 -1
1532264902547912 0 2 2 1 -1 -2 0 -1
1532264902577832 1 -2 -2 0 -4 -4 0 -1
1532264902600771 -2 0 0 0 0 -3 -1 0
1532264902645651 -2 -2 0 -2 2 -3 -2 -3
1532264902705491 0 0 1 -2 -1 -1 0 -2
1532264902743391 -7 18 7 7 -4 -3 -3 0
1532264902773310 -2 -3 -3 -1 0 -3 0 0
1532264902818189 0 -2 1 0 0 -3 -1 0
1532264903035608 -2 -1 2 0 -1 -1 -1 0
1532264903200168 0 6 -32 72 15 2 3 4
1532264903215128 -4 19 23 3 -5 -12 -11 -7
1532264903282947 0 -17 -2 17 -9 -2 -5 -2
1532264903365725 -1 -2 -13 -13 0 6 3 -1
1532264903455485 -3 1 4 -2 -15 5 -11 -3
1532264903478424 2 8 0 -8 4 -16 -14 0
1532264903508344 -5 3 -5 -3 17 14 13 9
1532264903575166 1 14 9 7 -10 -32 -16 1
1532264903657950 -8 26 -9 -3 10 2 -7 -8
1532264903717784 -4 -10 8 2 16 21 -4 -1
1532264903793582 -18 -15 -4 -10 9 39 38 9
1532264903838461 7 -13 -5 1 -6 -1 -19 -13
1532264903935202 -1 -3 1 -10 7 14 -7 2
1532264903958141 20 -12 -4 1 -3 -2 13 11
1532264904032941 -29 -21 -2 -15 22 25 -31 -9
1532264904273298 -29 -9 29 1 -1 0 -2 0
1532264904318179 -38 6 3 0 8 -4 -3 7
1532264904407939 -19 1 10 12 4 -11 -18 21
1532264904467778 15 -14 -30 -5 -4 5 9 -6
1532264904490718 65 16 18 -4 -4 13 7 18
1532264904580477 -1 -2 -7 -2 -3 -57 2 0
1532264904595437 0 -18 -26 -4 -2 4 -14 -13
1532264904618376 -11 20 21 2 4 10 -16 -1
1532264904693176 0 -39 -28 0 3 17 15 10
1532264904715116 4 2 12 0 2 2 5 4
1532264904753016 24 -29 -28 0 -5 -1 0 5
1532264904782936 14 12 6 -1 -2 -8 3 8
1532264904805880 -14 -28 -14 -5 -9 -11 10 9
1532264904857737 6 13 7 -1 -1 7 6 27
1532264904955491 -4 6 4 1 0 -2 -3 -2
1532264905075155 8 -4 -3 1 -2 8 1 0
1532264905106072 -2 -6 2 -4 -6 5 3 9
1532264905135992 -4 -3 -1 0 2 13 -11 -18
1532264905157933 -2 0 -3 -1 8 17 3 0
1532264905187853 -4 -3 -2 -1 -2 6 5 -2
1532264905202813 -7 0 -3 -5 -3 -8 -14 -8
1532264905225752 0 1 0 0 3 -1 5 1
1532264905247693 11 2 -2 0 -7 -6 -7 -7
1532264905270631 3 -1 -1 -6 -9 -13 -9 -5
1532264905293570 -18 -6 -4 -5 -12 12 5 5
1532264905315511 31 0 -3 -4 1 13 9 12
1532264905369368 32 -2 -1 -5 -8 14 16 0
1532264905390317 -13 -1 -2 -1 -5 -6 -37 -7
1532264905405271 -8 -6 -1 1 5 14 5 9
1532264905428210 -17 4 0 0 -3 1 -13 -5
1532264905450152 1 3 2 2 3 -3 10 9
1532264905465111 0 -1 0 0 -1 -1 4 -1
1532264905503010 -40 -2 1 4 11 15 -5 -39
1532264905555869 -41 -6 -3 -4 2 11 43 11
1532264905577810 6 -1 -1 1 -3 -7 7 2
1532264905645628 -3 1 2 -3 -7 -2 -14 -4
1532264905675549 2 1 -1 -2 -3 -11 9 2
1532264905690508 2 -2 -2 2 11 -8 5 0
1532264905728408 -27 -6 1 -1 1 -4 5 -1
1532264905750349 35 3 4 1 -2 21 -13 -5
1532264905803207 -42 16 8 0 18 67 0 2
1532264905856066 -29 -20 -48 6 -8 -17 33 -38
1532264905915906 -31 12 2 3 -5 14 -18 11
1532264905930866 21 31 35 8 21 15 12 -2
1532264905976743 -15 -6 0 -1 -20 -12 -7 -28
1532264905997688 5 2 5 -2 -4 5 26 -18
1532264906027607 -20 9 2 4 5 2 8 16
1532264906065506 16 12 3 2 -1 4 2 0
1532264906080466 12 -7 -1 -5 -19 -9 -19 -24
1532264906103405 -39 -13 -3 -3 5 -3 -1 -9
1532264906140306 0 -7 -3 -3 -3 -1 5 -5
1532264906178205 3 -3 -1 -3 5 3 5 -4
1532264906200146 1 2 2 4 2 5 3 -1
1532264906223085 0 -4 -5 -4 -8 -16 0 0
1532264906253005 0 -8 -1 -2 0 13 -2 -4
1532264906267965 3 -5 -5 -2 -3 2 -7 -6
1532264906299882 -1 -14 -32 -1 -1 28 1 1
1532264906320823 3 29 32 12 14 21 14 2
1532264906342765 0 3 4 40 5 8 -6 -2
1532264906372684 -15 -15 -36 -60 -27 -1 15 -8
1532264906538242 -9 -17 10 -88 -21 56 -64 -5
1532264906598082 2 3 -81 8 104 49 64 2
1532264906702802 -3 -24 22 55 -105 -46 -84 -8
1532264906747682 6 28 -4 -25 9 -3 -15 -2
1532264906808519 -3 7 3 10 13 19 -10 -2
1532264906845420 3 21 10 -8 0 -16 1 1
1532264906875341 1 -13 0 -7 -13 -14 6 1
1532264906899277 1 -10 -5 2 9 29 -22 -16
1532264906935181 1 0 1 4 9 9 -5 -7
1532264906958120 -6 -14 -4 10 13 -12 11 4
1532264907025937 1 3 -2 7 -1 23 -2 0
1532264907062839 1 -8 -3 -5 -17 -28 16 12
1532264907077803 0 -1 12 20 -26 1 9 2
1532264907122679 1 -10 -10 -1 36 -10 2 -5
1532264907160578 4 -13 9 3 -2 -11 8 1
1532264907183517 1 -5 8 14 0 6 1 2
1532264907213436 1 -7 -5 -4 1 7 1 1
1532264907265298 -7 -5 2 0 -2 38 -4 -6
1532264907303196 0 -43 -4 1 -23 24 -3 0
1532264907341095 -1 5 0 3 -40 -24 3 -4
1532264907363036 -2 -10 -6 -13 -19 -5 -3 -3
1532264907415895 2 -3 -5 -3 10 -10 5 -1
1532264907445815 -3 -3 -2 -7 -12 -46 4 -3
1532264907475735 1 -14 -5 -9 -36 -28 -13 -4
1532264907490694 -3 -7 -5 -11 -84 -9 -15 -6
1532264907535575 0 -6 -16 -53 30 -1 3 -3
1532264907565495 4 -7 14 12 0 9 -1 2
1532264907595415 0 -7 -11 -41 -1 -12 3 1
1532264907618354 -7 17 7 38 43 -46 -8 0
1532264907655255 9 14 -1 9 -26 19 -7 -5
1532264907746012 -7 17 2 17 10 -16 -18 -7
1532264907805851 -4 6 7 -4 -43 5 -3 0
1532264907872673 2 5 3 41 92 27 -2 0
1532264908023271 9 -4 3 17 15 7 -2 -1
1532264908135969 9 -7 -5 -17 14 -9 0 -1
1532264908172871 2 -7 -4 -6 -4 5 -9 -8
1532264908285569 8 -8 -3 -9 -2 18 -7 -5
1532264908398268 0 1 -1 -13 -11 -10 -1 -1
1532264908458125 0 -3 -2 0 13 19 12 5
1532264908488028 -2 -2 0 -1 -2 -3 1 -1
1532264908502988 -1 0 1 -4 -10 -7 -2 -1
1532264908517948 1 3 -1 0 -3 -14 -1 1
1532264908540902 -1 -1 -4 -6 -1 -4 11 0
1532264908562828 -1 -3 -2 0 -11 -14 -5 -3
1532264908585767 1 0 -1 1 41 81 5 -3
1532264908600726 2 5 2 12 14 -12 -3 2
1532264908622668 -3 1 8 -6 2 40 29 1
1532264908646604 7 3 -1 -2 -10 -13 -2 3
1532264908675527 -1 -2 -1 1 -1 -24 -6 -2
1532264908728385 -9 0 -2 -5 -8 -17 -4 -5
1532264908765286 -4 -2 -1 6 39 16 -2 -5
1532264908915883 -1 -3 -1 -3 -6 6 4 1

1532264908983703 -1 1 -2 0 -5 -18 -6 -1
1532264909117591 -3 -1 -2 0 6 13 2 -2
1532264909245261 0 0 -4 -2 1 12 -1 1
1532264909336007 1 0 -1 -4 -9 -2 1 0
1532264909410807 1 -1 -1 -2 -2 6 1 0
1532264909545447 -1 0 -2 -6 -12 9 3 0
1532264909696044 -2 1 -3 -9 -8 -1 -2 0
1532264909755883 -1 3 -1 -2 1 2 -6 -2
1532264909913463 -1 0 0 -2 -4 5 -1 0
1532264909980284 -4 -7 -17 -13 -12 -6 7 -2
1532264910056080 0 -3 -29 -68 -9 -8 -3 -1
1532264910122902 1 -32 5 33 10 -11 -1 0
1532264910161799 0 -2 17 23 19 -11 2 0
1532264910197702 -2 -52 -9 23 -17 12 4 1
1532264910243580 0 11 1 15 29 0 -8 -4
1532264910265521 0 15 11 7 -54 -23 7 3
1532264910303420 0 6 -9 -13 0 -15 7 4
1532264910325360 -1 7 2 -5 13 16 -13 -1
1532264910378220 -7 -15 9 -9 -9 -14 -2 2
1532264910423100 0 33 4 -8 18 23 2 -7
1532264910446038 -3 24 -2 6 44 22 12 5
1532264910497899 -2 -6 -14 -43 -30 -9 8 2
1532264910602620 2 0 7 29 29 8 0 -4
1532264910723297 0 3 0 3 -13 -22 -1 -5
1532264910910796 0 11 0 -3 -1 -9 1 0
1532264911135195 -8 36 19 5 7 2 5 -6
1532264911173094 -5 -5 -6 -4 -14 -2 -3 -31
1532264911262854 -24 18 1 -3 1 4 20 11
1532264911300753 15 30 -9 0 -4 -17 -19 9
1532264911352613 3 45 29 5 1 9 -6 2
1532264911367575 17 -26 18 0 3 10 10 7
1532264911428412 -18 16 9 -2 -1 -1 -6 5
1532264911488252 -17 -19 -19 -3 -1 1 4 7
1532264911503211 32 27 -13 0 0 3 -3 11
1532264911541115 -6 -22 -5 1 -3 3 -6 -17
1532264911571030 6 -25 7 -5 -8 -3 5 12
1532264911592971 -2 -1 -8 -4 -4 -1 -2 -2
1532264911637866 1 1 1 -1 1 7 14 -8
1532264911652811 1 -5 0 -2 0 -2 9 4
1532264911727611 -5 -8 -12 -5 -5 -9 -5 1
1532264911743569 9 26 18 1 1 3 1 -4
1532264911780470 15 -29 -1 -1 -8 -4 -8 -4
1532264911803408 -4 19 2 0 3 1 0 5
1532264911818385 -10 -35 -12 -2 -2 1 -1 -3
1532264911840321 21 -2 -2 -2 1 3 0 36
1532264911863248 -17 9 7 9 -1 0 -1 -28
1532264911885190 1 13 9 -3 1 -1 1 2
1532264911908129 -6 15 11 4 -3 -13 -4 12
1532264911946027 -6 -7 -11 -1 -7 -30 -4 -14
1532264911967968 -3 5 1 5 4 28 5 2
1532264911990907 -5 -3 -6 -6 -6 26 -11 -13
1532264912012849 -16 -1 -4 0 6 -20 -10 -7
1532264912027809 -2 3 1 -1 -2 -20 0 -5
1532264912042769 1 -3 -2 -3 6 13 2 2
1532264912065707 2 3 0 0 3 5 -16 -7
1532264912088646 -2 -3 -3 0 4 6 11 -1
1532264912103606 -5 -2 1 -3 1 34 -8 -2
1532264912125547 13 4 1 0 6 -14 7 -6
1532264912148485 -2 -2 -2 -5 -11 -9 -11 -2
1532264912170427 1 3 6 6 16 -1 4 1
1532264912208326 -50 -11 -4 -5 -19 -14 2 6
1532264912253206 21 4 3 1 -13 -5 12 3
1532264912276144 10 -2 1 0 3 20 -7 7
1532264912313046 36 -4 -7 -5 -2 1 -3 5
1532264912402806 -4 -2 -2 -4 -12 -14 -43 7
1532264912417766 -2 -1 -3 -3 -7 -3 21 6
1532264912523483 -9 -1 -3 0 34 26 8 4
1532264912560384 -5 -2 -1 3 -11 -3 16 4
1532264912605264 25 1 1 -1 4 -13 1 6
1532264912620224 36 8 0 -2 -23 -18 -9 -29
1532264912673083 -44 -23 -18 -7 -17 -16 -9 -25
1532264912697019 -7 48 -9 1 0 29 9 -1
1532264912719958 3 -13 -8 -7 -3 -42 -68 -15
1532264912740917 -29 6 7 5 2 -12 29 5
1532264912777803 33 -1 -7 -7 -1 -31 2 -10
1532264912800742 1 -7 -13 5 0 -3 11 -11
1532264912822683 -20 -9 -6 1 -9 -39 -20 -10
1532264912853610 -1 -6 -3 -2 -6 -5 5 2
1532264912890501 -10 -5 -6 -3 -2 -27 -2 7
1532264912922416 16 -11 -9 -3 -4 -12 4 -8
1532264912973280 -1 41 24 10 8 -2 2 6
1532264912988240 -4 6 4 30 -6 -9 3 -1
1532264913056059 -3 -15 -4 6 8 -14 4 -2
1532264913092960 4 8 13 -7 43 73 57 1
1532264913145827 -6 -6 -10 54 -30 -62 12 -6
1532264913205659 -4 -31 -25 -19 -3 58 5 2
1532264913288437 -26 -39 -15 12 -79 -24 -10 -5
1532264913318357 1 0 -4 -45 -13 45 7 2
1532264913348278 -5 20 -2 -36 -33 -15 0 -4
1532264913423077 4 10 0 -3 -1 -55 4 1
1532264913467958 -2 -19 4 24 -21 -7 -2 -1
1532264913505856 4 -9 -1 24 4 23 -2 -2
1532264913535776 2 35 -2 13 -15 -11 3 4
1532264913558714 -3 -39 -4 -9 -27 -26 16 16
1532264913633520 -2 -14 -5 -2 3 -12 -21 -2
1532264913648475 2 -17 1 -14 2 5 -50 -25
1532264913700336 9 -62 -13 -17 -5 -14 22 2
1532264913715296 1 -16 -13 -8 3 23 3 0
1532264913775136 -7 3 0 -26 -16 12 -6 -2
1532264913807051 -3 -11 -8 0 65 -9 0 -1
1532264913821013 8 -24 -6 -17 12 17 -2 -3
1532264913857915 0 10 -4 -7 4 -27 2 -2
1532264913872875 -7 -13 -5 -12 10 19 -2 -2
1532264913917755 -19 -34 7 18 -40 -28 -10 -7
1532264913947675 -12 -6 3 48 -26 -7 -3 1
1532264914008513 -9 6 -10 35 -87 -23 -5 0
1532264914039429 -2 -4 -2 0 -40 -32 -1 4
1532264914075333 4 -1 1 -14 -13 -27 -1 0
1532264914105253 -11 47 16 4 -25 -7 2 -5
1532264914136171 11 -33 1 21 22 6 1 2
1532264914166091 4 -37 17 54 19 5 3 1
1532264914188032 -16 -15 -2 -16 -40 -37 -6 -3
1532264914248869 -1 -30 -15 -19 10 -23 3 5
1532264914315690 -11 18 7 44 12 50 0 -2
1532264914353588 -21 14 17 8 -31 -1 -2 1
1532264914405451 1 -17 -9 -1 19 5 1 11
1532264914443349 -9 38 -12 -19 39 -24 -6 -8
1532264914503189 5 -19 -1 14 14 -2 0 4
1532264914556047 4 2 2 13 51 5 9 2
1532264914592949 -12 -7 -1 -17 -40 -2 2 -3
1532264914667748 1 -6 5 34 -11 -9 -6 -4
1532264914720608 -5 -12 -9 -23 -25 -13 7 1
1532264914780448 -4 -10 -7 -10 25 -1 14 7
1532264914811366 1 -7 -8 -7 -3 1 8 8
1532264914855248 -2 -5 -1 -4 -18 -8 1 2
1532264914878186 -5 -3 -2 -1 -1 -1 5 3
1532264914908108 -5 -5 -2 -5 -3 -3 0 -4
1532264914938026 4 4 -1 -10 -47 15 0 4
1532264914960964 -2 0 2 0 16 14 2 -1
1532264914997866 -1 0 6 1 -24 -68 -4 -1
1532264915020805 0 1 -4 -8 -17 -51 -2 0
1532264915050725 1 -3 -3 -10 -46 15 -4 0
1532264915065685 1 1 -4 -3 -16 27 5 2
1532264915087626 2 2 0 0 5 -8 9 4
1532264915133504 2 -3 -4 -1 5 10 0 1
1532264915163424 18 -5 0 -1 -4 -14 -11 -3
1532264915276123 -5 0 -2 -2 -1 -3 0 -1
1532264915291088 -4 -4 -1 0 1 1 0 -3

1532264915365882 0 1 0 0 1 -1 -3 -2
1532264915462646 -1 -1 -1 -1 0 1 1 -2
1532264915486582 -1 -1 -1 -1 -2 -4 2 0
1532264915515504 -1 -1 -1 -1 -1 -2 -2 -2
1532264915530464 -2 -3 0 0 2 1 1 -1
1532264915569369 -1 -3 -3 -2 -2 -1 3 0
1532264915583323 -2 -3 -1 1 -1 -5 -3 -1
1532264915605264 -1 -1 1 -1 0 -2 2 0
1532264915620224 0 0 -1 0 -1 0 1 0
1532264915650144 0 -1 0 1 -1 -7 -9 0
1532264915666101 0 2 -1 -1 -5 -12 1 -1
1532264915696022 1 -1 -2 1 0 2 1 -1
1532264915725941 -1 -2 -2 -1 0 2 3 -2
1532264915740902 0 1 -2 -1 -1 -4 -1 -2
1532264915792763 -2 -4 -2 -3 -1 -9 -2 0
1532264915845621 -1 0 -1 -1 -1 -3 0 -2
1532264915890532 -1 -1 -2 -1 -1 -2 -2 0
1532264915928400 -2 -1 -1 -1 -1 1 -1 -2
1532264915980261 -2 -2 2 -2 0 -3 1 0
1532264916085979 1 -1 -2 0 -3 0 -1 -3
1532264916130859 -2 0 -2 -2 -1 0 0 -1
1532264916182720 0 0 -1 -2 -2 0 -2 -1
1532264916303397 0 -3 -2 0 0 0 -1 -1
1532264916355259 -2 -3 0 1 -4 1 -4 1
1532264916452997 -1 4 3 -8 -7 -1 -1 2
1532264916475936 -1 -9 66 47 7 -10 -3 -1
1532264916505856 -1 -27 -47 -27 2 4 0 -3
1532264916527798 2 24 -9 -30 -19 -2 1 -1
1532264916587637 -1 -2 -11 -2 9 -2 -1 1
1532264916618555 -3 -6 -17 -10 3 2 -9 -3
1532264916648474 3 7 -2 -17 -20 -21 -5 -2
1532264916693355 -2 -4 -5 -3 12 28 4 0
1532264916717297 1 3 1 2 -1 -6 1 1
1532264916738235 2 -7 -3 -1 0 -23 -3 1
1532264916753194 -4 10 2 0 -1 11 13 0
1532264916798075 1 13 4 4 -14 24 -26 -4
1532264916821014 -2 -17 -16 -4 2 25 -1 -11
1532264916865893 -3 -25 -5 -4 -4 -6 -3 4
1532264916919749 -3 -13 -7 -8 22 -3 5 11
1532264917008512 -1 48 16 2 8 -12 -2 -2
1532264917053392 6 -5 3 -6 6 4 15 -2
1532264917098272 0 4 0 7 -44 -20 -54 -10
1532264917113232 14 -4 -3 -4 -4 5 11 5
1532264917158115 0 7 -4 -3 -18 -7 -9 3
1532264917174077 -3 0 -5 -4 -9 -1 -3 -7
1532264917322672 0 -18 -11 -3 3 9 0 -4
1532264917345610 -37 -9 -7 2 6 -2 3 2
1532264917368549 3 27 4 6 5 1 5 14
1532264917390491 -3 -12 0 -3 0 5 -3 10
1532264917443349 0 3 2 -3 -3 8 10 -15
1532264917480250 7 8 9 -3 -13 -1 8 7
1532264917503189 -4 5 3 0 6 -1 3 -5
1532264917571007 11 16 13 -7 -11 0 -5 -1
1532264917592949 15 -8 -7 -3 -6 5 5 18
1532264917668747 -39 0 14 -3 -11 0 15 30
1532264917795408 -2 -3 0 -3 -1 10 -4 -45
1532264917840288 -9 -11 -31 -3 -4 2 -2 38
1532264917870208 -18 10 13 0 1 0 7 -4
1532264917893145 -6 -6 2 -4 -8 -23 -2 -5
1532264917946005 49 -26 -29 -1 -2 5 5 28
1532264917975925 -4 -8 3 0 -2 3 0 -6
1532264918065685 -8 5 16 3 -1 -2 -4 -1
1532264918140486 -7 2 2 -1 1 -12 -4 -1
1532264918178383 -4 1 -1 -1 -2 1 0 3
1532264918208314 -1 1 2 -6 -9 -1 -1 13
1532264918230245 6 -7 2 0 1 0 -2 -10
1532264918291099 -7 4 -5 -1 6 25 8 -4
1532264918313023 11 -1 0 -1 -9 -13 -9 32
1532264918350928 -4 -3 -4 -3 -4 3 1 -2
1532264918365881 8 0 -1 -1 6 13 2 -4
1532264918387823 10 -1 -1 -3 -11 -11 -6 10
1532264918417743 2 0 -4 -1 -6 -31 -13 -6
1532264918440682 -7 0 0 -2 5 24 21 0
1532264918470602 -2 -2 0 2 -4 22 5 -1
1532264918493541 -5 -3 1 0 2 -2 2 0
1532264918508518 0 3 1 2 -8 -7 -4 0
1532264918562356 1 -4 -2 0 -1 14 12 6
1532264918583301 24 2 -1 1 16 12 8 17
1532264918613221 -7 -4 -6 -3 -2 0 -15 5
1532264918635162 23 -8 -1 -1 -15 -14 -11 -9
1532264918681040 -1 2 -1 -2 -4 -13 11 6
1532264918710959 -26 -5 -2 -1 2 -4 9 -6
1532264918725919 -4 1 -2 -1 -1 3 -3 9
1532264918777781 -6 -2 -3 -6 -11 -1 0 7
1532264918837621 -4 -3 -2 -2 -12 -17 14 2
1532264918853578 37 -4 -6 -2 -7 -16 11 -5
1532264918905439 -6 -1 -1 -1 10 19 -4 -6
1532264918920399 6 -3 -2 2 11 13 13 5
1532264918995199 33 5 1 5 11 -14 -7 45
1532264919033098 24 8 2 1 4 -6 12 -13
1532264919056037 -7 -5 -7 -5 -21 -21 -3 -17
1532264919107898 -14 -8 -19 4 -8 -14 -12 25
1532264919175716 20 0 10 -6 -13 22 -39 9
1532264919197658 -13 -2 11 1 -1 27 29 7
1532264919220596 8 -12 10 4 7 -9 7 12
1532264919235557 8 0 -3 -6 -8 -9 -13 0
1532264919250517 20 1 7 3 5 11 18 13
1532264919295397 -9 1 2 1 -2 4 -4 -3
1532264919325317 -13 0 0 -2 -8 -7 -9 -5
1532264919355236 15 7 3 2 -2 -3 -5 -2
1532264919378175 -1 -1 -4 -2 -4 -2 -1 -1
1532264919401137 -4 7 17 -1 -2 -2 -8 -2
1532264919445994 -3 0 -4 -3 5 -13 4 1
1532264919512815 -3 -3 -2 -7 -17 -8 -6 0
1532264919535754 -3 -2 10 19 9 31 116 -2
1532264919565674 -1 7 8 19 63 2 -13 -2
1532264919587615 4 10 8 2 19 7 5 0
1532264919618532 -2 -6 -12 -50 -46 28 -3 -6
1532264919640474 10 27 5 -5 63 -3 -4 5
1532264919685354 -3 25 -9 -26 -58 -32 -10 -3
1532264919700314 3 -6 7 0 98 26 10 3
1532264919753172 -1 -9 -14 -1 38 73 -6 -8
1532264919798052 3 7 5 33 4 12 -3 4
1532264919865871 2 3 0 -1 25 -28 -4 -1
1532264919978570 4 -9 0 13 -32 -11 -1 4
1532264920045391 5 -1 5 -1 9 -8 5 3
1532264920068330 4 3 -4 -8 0 -17 -20 8
1532264920105231 15 -2 2 1 -2 21 0 -3
1532264920128170 -3 -12 -3 -1 -22 -8 -14 -6
1532264920181028 -9 9 8 5 -78 -3 14 0
1532264920217929 2 0 4 -4 5 -5 -3 -8
1532264920255828 2 8 0 -6 11 3 -4 -5
1532264920285748 2 -2 -3 1 1 -16 8 3
1532264920323646 -6 -12 -2 -4 6 19 5 -8
1532264920368527 6 11 0 2 2 -44 13 4
1532264920390469 -5 -2 -5 -9 11 55 19 6
1532264920413407 1 -5 -4 1 -45 -64 -9 1
1532264920443327 2 -1 -4 -5 51 72 6 -4
1532264920458298 -3 1 6 5 -17 22 -8 0
1532264920495188 0 5 4 -3 -9 0 3 2
1532264920525108 -4 0 -2 2 6 19 12 0
1532264920541066 12 1 -2 -2 -30 -4 -10 3
1532264920563007 4 -2 0 0 9 18 -6 -7
1532264920577967 -2 -5 2 9 29 -12 -11 -3
1532264920607904 5 0 -6 -10 -53 -40 8 2
1532264920622847 9 -1 -14 -4 -10 -46 -2 -1
1532264920645785 -3 -3 -2 -2 -17 -9 -5 -3
1532264920667727 0 -2 -6 -8 11 5 -1 1
1532264920720586 -1 -1 0 -8 -2 22 -2 1
1532264920743524 2 5 7 9 -2 -7 1 0
1532264920758484 8 -21 -5 -3 1 1 5 3
1532264920788403 -7 6 -3 -1 9 9 5 0
1532264920825306 -3 -2 -10 -16 -2 -8 2 1
1532264920840266 -2 -5 7 15 -13 -1 2 1
1532264920878164 -11 9 -1 5 50 31 -3 -3
1532264920901102 -3 -8 2 22 23 3 -2 5
1532264920923044 5 1 1 16 -54 16 -7 -3
1532264921005823 -2 -4 -3 1 11 4 7 -3
1532264921072644 -4 1 1 -7 48 75 -3 -5
1532264921140476 5 9 3 13 25 5 -2 0
1532264921178361 6 2 4 10 -11 16 0 -2
1532264921200303 -1 9 2 2 21 -1 3 0
1532264921291065 -2 4 -4 2 -9 -27 -5 -2
1532264921335940 -2 -3 -2 -16 -27 10 -4 0
1532264921402760 -16 -2 -4 -19 -72 -2 -9 -2
1532264921583279 3 -2 0 2 -2 9 -4 -3
1532264921598238 0 -2 0 1 1 0 -2 -2
1532264921620180 1 -1 -3 2 -1 3 6 3
1532264921635140 -1 -2 -3 0 6 14 1 0
1532264921658079 -5 -2 -4 -5 -11 -35 -9 -5
1532264921673038 -3 -1 0 -1 -9 -50 -5 -9
1532264921710986 2 1 -1 -8 -38 -1 -3 -2
1532264921732927 -3 -3 -2 0 -12 -5 1 -2
1532264921762847 -2 -1 3 4 -7 25 3 4
1532264921777807 0 -2 0 -1 -17 -45 -8 1
1532264921815706 -10 6 2 0 22 24 7 -8
1532264921830666 4 -3 -1 -4 -26 -5 -2 3
1532264921845626 0 -3 0 0 3 -16 -4 -1
1532264921890512 -7 -1 -1 -1 -7 -4 2 -1
1532264921905479 -7 -1 1 -1 11 17 -4 -1
1532264921950345 -2 2 -3 2 3 4 -2 -4
1532264921980266 2 -2 -2 -3 7 30 6 -1
1532264922010185 -13 0 0 -2 -9 -5 1 -3
1532264922025146 -3 1 -1 0 -1 -10 -2 -2
1532264922057069 -1 -2 -1 -1 3 7 3 -1

1532264922071023 -4 -3 0 -1 -1 -2 -4 -1
1532264922100942 12 1 0 0 6 6 -4 -2
1532264922137844 0 0 0 0 13 30 1 -3
1532264922161780 -4 -2 -3 -5 -10 -16 -2 1
1532264922175742 0 2 1 1 -2 2 12 6
1532264922197684 2 -2 -1 -2 -3 -10 -5 -5
1532264922229610 -6 -3 -2 -2 -4 -34 -4 -4
1532264922243561 -1 -2 0 -1 0 9 -3 -2
1532264922258523 -3 -3 -2 1 5 29 -1 0
1532264922280463 3 -1 -1 0 -1 -2 -2 2
1532264922303402 -4 -1 -1 -1 -1 2 -1 0
1532264922325343 1 -1 -3 -2 -4 -9 -2 -4
1532264922363242 1 1 -2 -2 -3 6 0 0
1532264922378202 3 0 0 1 3 -3 -2 3
1532264922400143 -1 -4 -6 0 5 6 0 6
1532264922416100 0 0 -1 0 -2 -5 -2 -5
1532264922438041 -1 0 0 -1 -1 -3 0 0
1532264922460980 -1 -1 -2 -3 0 6 -1 -2
1532264922475940 0 -1 -1 -2 -3 -6 -3 0
1532264922497882 -1 -3 -3 -1 -5 0 -4 0
1532264922527801 1 -1 0 1 -1 -2 -2 -2
1532264922587645 1 -2 0 0 0 1 -2 -1
1532264922610580 -2 -2 -3 1 -1 0 -8 -2
1532264922663439 -1 -1 2 -2 1 -2 1 2
1532264922685379 -1 -2 -2 1 -1 -1 0 -1
1532264922738239 -1 -2 0 0 -2 0 1 -2
1532264922768159 -1 0 -1 0 0 1 -2 -2
1532264922806057 0 -1 -4 -2 -2 -2 -1 0
1532264922865897 0 0 0 -1 4 1 1 -2
1532264922955658 -2 0 3 12 0 -5 -3 0
1532264922993556 1 -1 -2 -9 -5 2 -1 0
1532264923053396 -5 1 -2 -14 4 13 8 -6
1532264923090307 2 5 8 10 7 -2 5 1
1532264923128196 0 4 7 -3 11 1 -2 -3
1532264923143156 -1 0 15 14 0 -1 0 0
1532264923165097 -3 -1 -8 -10 -41 9 -3 -3
1532264923232915 0 -3 -6 -9 20 -23 -5 -1
1532264923285775 -3 -1 0 2 -5 -21 -1 -2
1532264923330654 18 -2 -2 -2 -6 5 2 -1
1532264923390494 -4 16 3 5 6 2 3 0
1532264923413433 -4 -2 -4 -5 17 -8 -8 -2
1532264923443353 -1 -7 -2 -3 10 -3 -1 3
1532264923525134 3 -6 -7 -2 -2 -30 -4 -7
1532264923577994 21 9 4 3 31 66 0 -10
1532264923622873 -21 -5 -2 0 -10 -4 -2 -5
1532264923675732 -10 -4 0 -5 -45 14 1 6
1532264923848270 6 -1 5 4 28 9 -5 4
1532264923901129 0 -4 -9 4 31 12 1 2
1532264923946019 5 2 3 0 -18 -10 -3 -1
1532264923990889 0 -5 -4 4 -51 -40 0 4
1532264924103587 11 -40 -24 -2 3 2 -3 -1
1532264924230249 -48 -6 5 1 -4 1 2 0
1532264924327987 -10 18 5 4 2 -12 1 5
1532264924575326 8 -8 -16 1 -3 3 -4 1
1532264924725923 -11 15 1 -5 2 6 -16 -5
1532264924822664 -12 3 3 2 2 2 0 2
1532264924973262 7 3 -1 1 -1 -7 -4 -9
1532264925107901 1 0 1 -3 -3 -4 2 -1
1532264925175721 -6 -4 -3 -3 -6 -5 0 -4
1532264925235561 -1 -4 -3 -7 -12 -16 -15 -7
1532264925303379 8 3 0 -1 2 -6 -11 -4
1532264925340281 71 5 2 4 5 0 10 1
1532264925363219 -21 1 1 3 1 -15 -15 -19
1532264925557699 12 1 -4 0 9 -3 -12 2
1532264925655438 -21 -5 -7 -5 -7 -2 -21 -25
1532264925685358 -4 -18 0 -2 24 9 7 -6
1532264925730237 2 -9 0 2 5 26 -6 -14
1532264925776115 -44 16 3 -3 -23 -7 -11 -7
1532264925813017 18 39 -9 -5 0 37 11 57
1532264925842936 44 32 22 5 26 13 -10 -7
1532264925910755 -30 -11 -11 -10 -16 21 40 -20
1532264925932696 -2 15 4 2 -10 -4 23 -9
1532264925985555 7 10 -4 -1 4 2 7 -7
1532264926008493 -4 1 -4 -1 -1 4 -5 -53
1532264926045395 2 -17 -3 -2 -3 0 -6 7
1532264926075315 -4 -17 7 1 2 -24 -4 -3
1532264926098254 3 2 -3 -4 -4 15 1 -1
1532264926120194 -2 9 -7 -1 1 9 -1 0
1532264926135155 3 39 7 -12 24 6 -1 1
1532264926188014 0 52 20 -16 -21 64 113 -3
1532264926217934 -5 -13 -15 -5 -63 -18 -80 -2
1532264926232893 7 8 16 46 39 3 -51 3
1532264926338611 -8 -6 0 2 24 -6 16 -3
1532264926360552 2 7 -4 -41 22 50 25 5
1532264926398451 6 18 16 14 41 -28 3 3
1532264926465272 -35 -53 5 26 -30 29 7 0
1532264926503171 -9 -14 -30 -53 -23 -20 0 -2
1532264926563011 17 -9 12 33 60 -7 -3 4
1532264926577971 -5 -12 -8 -13 0 2 4 -2
1532264926637811 -10 -4 -5 -20 -34 -32 -5 2
1532264926682691 -7 2 -11 -21 -15 8 2 -1
1532264926713620 0 5 6 12 9 -10 -3 8
1532264926765469 -2 -7 -7 -14 12 -12 2 1
1532264926810349 -2 2 -1 1 7 1 -3 -1
1532264926833287 -6 -1 -1 -7 -4 20 -13 -5
1532264926893128 -22 -63 -10 -11 -6 -19 27 14
1532264926938008 18 33 0 -4 -14 -15 -3 0
1532264927036744 13 -6 -3 -9 -41 -26 4 2
1532264927050707 -20 0 1 -3 -4 -6 7 -6
1532264927096584 7 8 0 -7 -14 -44 -10 -8
1532264927140467 7 7 -10 -14 18 34 15 3
1532264927163405 3 -2 -2 -1 -33 -10 -16 -1
1532264927178365 -14 -17 -2 4 -28 -17 4 4
1532264927215267 22 -2 -22 -46 26 41 -2 15
1532264927230227 -22 1 14 1 21 1 3 -13
1532264927253165 -9 1 -4 -4 -4 -3 -11 7
1532264927283085 3 0 6 14 -11 -39 3 -5
1532264927335944 -22 7 -4 -21 -18 31 3 -11
1532264927380823 23 -1 -4 -13 14 48 0 -1
1532264927410744 26 -6 -6 -5 33 -14 -3 -4
1532264927447652 -7 30 13 11 8 63 -2 2
1532264927485543 7 3 4 6 34 20 8 3
1532264927508483 7 -10 -11 -6 -29 4 0 1
1532264927523449 1 -13 -2 10 -36 6 6 0
1532264927553362 0 -5 8 32 22 8 5 2
1532264927575304 9 -3 7 22 55 36 5 8
1532264927606221 -22 -8 -5 2 35 -16 -14 -8
1532264927628163 33 33 7 -3 -18 8 8 12
1532264927666061 -7 -27 -9 -14 -4 2 7 8
1532264927681021 -17 -5 7 -12 -75 -13 -5 0
1532264927710941 8 1 5 -4 22 21 8 5
1532264927732882 -12 19 6 -16 8 -9 2 -2
1532264927762802 -9 7 5 2 18 -6 -7 -9
1532264927777762 3 -38 -16 -11 -25 -37 -5 1
1532264927792722 16 3 -2 17 -9 -9 2 5
1532264927822642 7 -13 -1 6 -6 -6 9 1
1532264927838600 -16 -5 -3 -11 9 16 7 0
1532264927853560 1 -9 -10 -7 16 2 10 4
1532264927875501 15 -2 0 5 41 -5 3 6
1532264927890461 -9 13 -6 -10 -24 -32 -8 -1
1532264927935341 0 24 -1 18 32 6 0 0
1532264927980221 -3 2 -5 -20 -31 -18 2 0
1532264927995181 -23 -10 -2 -3 5 5 -5 -4
1532264928048040 -4 -4 -5 -7 -7 15 -3 1
1532264928063000 13 -4 0 2 5 4 4 -2
1532264928137800 -10 -2 0 1 -11 -16 -1 -4
1532264928167720 0 -1 -3 -3 -3 -28 3 -1
1532264928243517 -3 -3 -5 1 -1 -1 -18 -24
1532264928265458 -8 23 4 -9 -15 -4 6 -2
1532264928280418 -7 2 3 13 -3 -32 8 0
1532264928303357 36 -4 7 10 -20 57 4 13
1532264928334285 -15 -2 -2 -2 -16 -106 -34 -8
1532264928355218 -17 -6 -9 -13 -4 -31 -14 -20
1532264928408077 -14 0 -4 -6 -3 -40 -9 -9
1532264928452957 -3 -1 0 2 5 11 6 2
1532264928512796 -2 -1 -2 -4 -1 6 -5 2
1532264928633474 7 1 1 0 -3 8 3 7
1532264928678354 -12 -4 -1 1 -1 -4 10 9

1532264928768114 -3 1 0 -1 0 10 -2 -2
1532264928842915 4 -1 1 -1 2 21 -4 0
1532264928880813 0 0 -2 -1 0 -6 2 -5
1532264928902754 21 -2 -3 -2 -2 -5 -3 1
1532264928932675 -4 -3 0 2 11 14 3 3
1532264928970573 -2 0 -2 -2 3 4 1 -1
1532264928993511 2 3 0 2 2 1 -2 0
1532264929053351 1 0 1 6 20 23 3 -1
1532264929098231 1 0 -5 -2 -2 -5 0 -1
1532264929120172 2 1 -1 -3 -5 -1 -2 0
1532264929210929 -4 -3 -7 -4 -22 -48 -4 0
1532264929262792 -5 -6 -4 -8 -15 -13 -5 -2
1532264929300690 0 1 2 6 32 64 7 1
1532264929398429 -2 -1 1 -3 -6 10 -1 -1
1532264929503156 -3 0 -1 -2 -4 -1 1 0
1532264929577955 -1 1 -1 1 0 -1 -2 0
1532264929652756 1 -3 0 3 0 4 -1 -1
1532264929675695 0 -2 -1 -1 -1 -4 -2 -3
1532264929690656 1 -1 -2 12 5 4 5 4
1532264929735535 -1 -6 7 -9 -53 -27 -4 -2
1532264929758474 0 0 0 -10 -1 -4 -1 1
1532264929780414 -2 -3 -27 -28 -10 8 -3 -4
1532264929803357 0 9 -9 -21 13 5 -3 -5
1532264929848233 0 -8 -5 -4 9 -8 -6 0
1532264929893113 -2 -11 -15 -20 -15 -8 -2 -1
1532264929923033 -4 11 6 -12 -14 -14 -7 -4
1532264929945972 -2 1 -5 -16 -30 -1 3 1
1532264930020772 0 1 -1 -5 19 4 5 3
1532264930042713 -2 -4 -6 -16 5 0 2 -2
1532264930057673 -2 2 -4 -12 -2 25 -3 -5
1532264930110531 1 2 2 4 2 2 -25 -9
1532264930155412 -5 -5 -3 -3 22 13 14 -6
1532264930170372 15 -1 0 2 27 28 11 2
1532264930215252 -5 -4 -2 -4 17 14 0 0
1532264930238190 5 1 -5 -13 22 -31 5 -1
1532264930298030 -4 0 2 2 9 -8 -17 -4
1532264930327951 1 14 0 -1 -8 1 -1 1
1532264930380808 -1 8 9 1 -26 -8 9 0
1532264930410729 4 9 13 3 -17 -17 1 -1
1532264930425689 -3 2 -10 2 -20 -38 -13 -2
1532264930448627 2 -5 -1 -1 5 5 -12 -4
1532264930462590 -4 6 -4 0 13 33 7 -5
1532264930485529 -6 3 7 1 -9 -12 -7 -3
1532264930515449 -4 0 -3 -1 -1 21 4 -3
1532264930530409 -3 -8 1 -1 -22 -4 -8 -2
1532264930575289 1 -3 0 1 -8 -3 -1 2
1532264930590249 2 22 11 -1 7 4 3 0
1532264930613188 -11 -3 -2 -2 10 11 7 -3
1532264930651086 -8 -28 -8 -2 2 -7 -3 -5
1532264930687987 27 1 -2 -1 -1 2 -2 -4
1532264930740846 -8 4 8 -2 -4 -4 3 -5
1532264930800686 13 5 -14 -3 0 -1 -4 4
1532264930965246 -8 7 3 1 -12 -10 -7 -7
1532264931056003 -1 -10 -12 -3 3 -2 4 6
1532264931070963 -6 6 -7 -3 -4 -5 3 2
1532264931092905 0 -5 12 0 -2 -5 19 1
1532264931115843 -5 -14 -15 0 -1 5 -9 -7
1532264931130804 5 -9 -11 -7 -3 7 1 10
1532264931205603 -5 -9 -14 1 0 0 -2 -1
1532264931220563 -18 14 18 1 1 3 -8 -15
1532264931280403 -12 3 2 0 0 3 3 2
1532264931370164 11 -1 -2 -2 1 1 4 -2
1532264931467902 -5 -8 -4 -1 -2 -4 -15 -5
1532264931535721 -2 11 8 -3 -1 0 0 -4
1532264931550680 17 -5 -2 -3 -2 0 -2 1
1532264931603539 0 0 -1 0 0 0 -7 -1
1532264931640441 -5 -2 -2 -1 -16 -9 11 1
1532264931685320 -5 -3 -4 -4 -18 -30 -5 -8
1532264931723219 1 1 3 4 7 11 6 3
1532264931812979 2 -2 -5 -2 -2 -5 -13 -4
1532264931844894 1 0 -4 -5 -9 -18 -10 0
1532264931872819 2 -2 -1 0 -1 11 -17 4
1532264931925678 15 -1 -2 -2 -1 8 33 7
1532264931978536 28 2 -2 -3 -6 -2 -6 13
1532264931994494 9 2 -3 2 3 2 3 -24
1532264932023430 -2 -2 -2 0 17 20 -11 -1
1532264932083256 -6 -1 1 -4 -4 11 -22 4
1532264932120158 -1 2 0 2 11 2 27 -5
1532264932166036 -9 0 -2 -5 -18 -58 -15 0
1532264932210915 -15 -1 -3 3 3 -13 -15 -9
1532264932262776 -2 -4 -6 -7 28 61 24 -3
1532264932360518 -20 2 4 5 9 40 8 31
1532264932488173 27 -2 -8 6 -2 -10 -1 -5
1532264932585912 7 12 -3 -1 -10 -6 -6 -2
1532264932615832 -19 -3 0 -1 -2 -3 -9 -13
1532264932637774 11 -1 -4 -7 -7 -7 -5 -6
1532264932676670 -1 0 4 5 3 -7 -2 -3
1532264932713571 -6 -11 -5 -6 -5 -31 -8 -6
1532264932833251 1 7 -1 26 -8 40 31 -2
1532264932855192 2 1 6 5 4 -5 -110 1
1532264932885112 -3 -16 -18 -11 -24 55 93 -3
1532264932960909 4 6 5 21 -96 -5 -7 1
1532264933035709 1 3 -8 2 75 27 0 -1
1532264933118488 1 -31 -18 -11 12 29 0 0
1532264933238168 -2 1 -5 -23 -8 -11 2 0
1532264933268088 2 -1 -1 -20 -50 -9 0 2
1532264933402728 23 2 0 1 -11 -5 -5 1
1532264933417688 -5 8 1 2 10 11 -1 -4
1532264933440630 18 3 0 -8 -1 -11 16 10
1532264933463565 -52 -36 -9 0 -1 -4 -8 -3
1532264933523410 -10 -6 0 1 10 -16 -18 -5
1532264933538365 8 7 1 -4 -6 -27 5 -1
1532264933598205 1 -12 -9 1 -11 -12 4 3
1532264933628125 -12 0 -6 -9 -3 -6 -5 -3
1532264933651064 -9 -12 5 1 -16 -8 -6 6
1532264933666024 -19 2 0 5 34 15 -4 -7
1532264933680984 2 9 3 6 31 -24 9 3
1532264933702925 -9 1 -5 -1 31 34 0 -2
1532264933732844 5 -4 -2 1 -4 7 -1 -1
1532264933747805 12 1 -3 -3 -8 -20 -7 0
1532264933777725 -39 -5 -3 -2 -15 -11 -1 -5
1532264933815624 -5 -7 -5 -6 3 34 -4 -7
1532264933830584 -9 0 0 1 -8 -4 3 -2
1532264933876462 3 4 -7 3 7 11 1 6
1532264933905384 -4 1 8 -3 8 -45 -5 -3
1532264933958243 6 -14 5 -2 8 -22 0 8
1532264934003122 -4 -4 5 0 13 38 0 -1
1532264934062962 -4 -6 6 -11 18 21 1 0
1532264934092882 -16 -1 -8 -5 -21 -28 -2 0
1532264934130781 -9 2 -2 -6 53 86 -1 0
1532264934152722 10 -12 2 24 -13 -20 -1 -2
1532264934175661 10 2 -1 -6 -74 -14 -9 1
1532264934220541 -6 -24 1 -1 16 18 3 1
1532264934243480 11 1 -3 9 14 22 5 4
1532264934265421 19 20 -7 -17 -33 -18 1 8
1532264934333240 -25 28 8 8 3 -14 -4 -5
1532264934370145 14 -35 -5 -16 -54 19 0 -4
1532264934401058 -8 2 2 5 -12 -25 -3 -4
1532264934416018 17 -5 -1 3 37 14 3 -3
1532264934445938 -66 -6 -8 -2 20 8 -6 -8
1532264934490819 7 13 -2 -4 -3 5 2 0
1532264934512760 10 54 11 3 28 5 -2 0
1532264934550658 18 21 -8 -17 7 2 5 3
1532264934573597 -3 -8 -1 0 -21 -16 -1 -3
1532264934648423 -10 -6 -3 -1 -6 -6 -3 -2
1532264934730205 33 5 1 -1 0 -1 2 2
1532264934762119 11 -1 1 2 1 -3 2 -2
1532264934783063 -6 -5 -3 -2 -1 1 0 -1
1532264934798023 1 2 -3 -5 -3 0 -2 -1
1532264934812983 -2 0 -1 -7 -3 -3 -2 -3
1532264934857873 -4 -3 -6 -10 -6 9 0 -5
1532264934881799 1 0 -4 -1 -9 -26 -4 2
1532264934932663 -1 -1 -2 -4 -5 44 2 0
1532264934994498 -13 -1 3 2 -10 -50 -8 0
1532264935045362 -12 -1 -3 -1 -56 38 2 4
1532264935090242 -10 -2 -3 -1 -5 -4 2 3
1532264935137117 -1 3 2 3 4 -2 0 -2
1532264935160055 5 -2 -2 -3 1 8 -1 1
1532264935180999 -3 -1 -2 0 -1 -1 1 0
1532264935195959 -4 1 -1 -1 -5 -5 -1 0
1532264935232860 -3 -3 1 2 1 -1 -2 -1

1532264935292705 -7 1 0 -1 -1 0 0 1
1532264935315651 -6 -2 -3 -3 -1 0 -3 0
1532264935345565 1 0 -3 -3 -4 -15 -5 -8
1532264935398423 -4 -2 -3 -1 0 3 1 -5
1532264935436322 -4 -3 0 -1 -3 1 1 4
1532264935458263 -3 -2 -3 -2 0 -1 3 -4
1532264935503143 -4 0 -1 -3 -3 1 0 -2
1532264935541042 -1 -2 -2 -1 1 -2 0 -3
1532264935607863 0 0 -2 -1 -1 -2 0 -1
1532264935630803 -1 1 0 -2 -2 -2 -2 0
1532264935683661 -1 0 -1 -1 -1 -2 0 0
1532264935728541 0 -1 -1 -3 -2 -4 -2 -1
1532264935780401 0 0 -3 -1 -1 -1 -4 0
1532264935810322 0 -1 1 0 0 1 -1 0
1532264935908060 7 4 -13 -1 1 0 1 -1
1532264935930999 -9 -12 5 0 -1 1 0 -2
1532264935982870 -2 4 1 -1 0 -1 -1 -1
1532264936072620 -1 -2 -1 0 -2 1 1 -1
1532264936200279 3 7 4 -5 -6 -11 5 5
1532264936238178 5 21 -8 6 -6 1 3 3
1532264936335916 -3 -11 25 -6 -2 -3 0 0
1532264936357873 -4 3 -25 -13 0 -3 6 2
1532264936380796 -3 -4 -9 12 2 -8 1 -1
1532264936470556 3 -3 -8 -2 5 -7 7 2
1532264936500476 -1 -5 -2 2 3 17 -3 -2
1532264936530396 -5 3 6 2 -2 -17 1 -4
1532264936590236 15 3 -6 -2 21 47 -5 -12
1532264936613175 -2 13 5 3 -9 -45 -4 7
1532264936687975 -21 -17 -10 3 -17 10 0 -2
1532264936710914 2 6 -4 3 -10 -9 3 3
1532264936732854 -4 -25 -3 -15 -27 -31 -1 2
1532264936777735 -28 -34 -11 -9 -13 -10 6 -11
1532264936890448 11 14 -3 -4 55 64 -8 -7
1532264936958252 -19 12 5 2 1 12 1 10
1532264936980195 3 -1 -2 -2 -1 -17 0 -1
1532264936995154 10 -1 -11 -3 -7 -9 2 -1
1532264937041031 1 -4 -14 -5 -5 7 9 6
1532264937115831 17 -33 -19 -4 -3 -5 2 6
1532264937220551 -9 -19 -19 -2 1 1 -6 -11
1532264937250470 -48 -4 -14 7 -2 -14 6 -1
1532264937273410 24 24 16 -2 -3 11 0 12
1532264937325271 -3 -23 -27 -5 12 -1 -28 -1
1532264937340230 18 16 9 -3 0 11 -11 3
1532264937363169 42 23 17 -5 -8 4 -34 -28
1532264937393089 -24 19 3 4 1 1 29 -13
1532264937445948 15 -31 -19 -3 -9 -11 7 35
1532264937512770 -16 -21 -7 2 -1 -19 -5 1
1532264937574604 11 -12 -9 0 0 8 -8 -43
1532264937678327 -17 -4 15 -4 -2 -12 -7 -6
1532264937715228 -12 -7 -1 3 -2 -7 1 -12
1532264937753126 -2 -5 1 1 1 0 -4 -1
1532264937812967 -10 -4 -5 -8 -8 -11 2 -3
1532264937850865 -4 -1 -7 -2 5 6 -5 -17
1532264937880785 30 7 4 2 1 10 -1 15
1532264937925665 2 -7 -2 3 0 3 -4 -4
1532264937963564 50 -1 -17 -29 -5 -4 -4 -1
1532264938000464 -15 1 -5 -17 -1 0 -6 -10
1532264938045345 -8 -1 -2 -6 -9 -17 5 -5
1532264938105185 -21 -1 -3 -12 -12 30 -15 -22
1532264938143084 6 -1 -1 -11 21 -30 -2 3
1532264938158044 -1 3 0 5 13 31 9 -1
1532264938202924 -10 1 -1 6 4 -14 2 5
1532264938225877 28 4 3 3 10 26 -7 5
1532264938270742 35 2 3 1 -12 -11 -7 6
1532264938292684 -29 1 -3 -6 -2 0 6 -20
1532264938330583 34 2 1 1 5 7 -16 13
1532264938362497 13 -4 -2 -2 -2 3 -17 5
1532264938390423 11 -2 -1 -2 -3 -3 50 22
1532264938444278 0 -10 -1 -1 -7 6 -18 -1
1532264938473201 14 12 -6 -2 14 31 -3 14
1532264938533041 -4 6 -1 -2 8 24 -13 -4
1532264938585899 -2 3 -2 -11 -3 1 -29 22
1532264938607852 -40 0 5 39 -37 45 -1 -32
1532264938690620 -53 30 -10 5 -20 -17 -5 17
1532264938743478 -24 2 -1 -3 9 -8 9 -1
1532264938765420 0 -9 -1 -7 -15 6 14 7
1532264938825260 27 6 -8 -5 -6 -4 -11 -9
1532264938855180 0 0 3 4 14 4 -3 6
1532264938901057 1 -15 -23 -5 15 -34 5 -3
1532264938960897 -2 15 7 9 34 24 -27 -1
1532264939365814 -9 -3 13 -30 8 32 19 -2
1532264939441611 -25 -14 -31 -6 3 30 -25 -15
1532264939478513 -10 6 -1 -14 17 7 1 -3
1532264939501452 1 3 -1 -35 -12 -3 -17 -10
1532264939562289 9 3 0 2 23 14 -30 -18
1532264939643073 0 1 -3 -4 -20 -27 16 6
1532264939702912 -15 -22 1 0 -63 -43 8 -9
1532264939755772 -4 -1 -5 1 -20 -22 1 0
1532264939807632 18 -34 -2 2 15 25 3 4
1532264939845531 5 32 4 1 -1 14 -3 -7
1532264939899388 -6 1 6 8 -47 -41 11 8
1532264939920332 -2 4 -2 -3 12 12 21 -1
1532264939952246 6 -2 -3 4 73 -43 0 0
1532264939995132 -1 -4 1 -4 -33 40 0 -6
1532264940041009 -9 4 1 0 1 9 0 1
1532264940055969 0 3 2 1 4 8 5 5
1532264940160689 -19 -16 -7 -3 10 6 9 -2
1532264940198587 -8 -6 -8 -19 44 26 8 -4
1532264940265409 7 -13 4 38 58 8 -1 2
1532264940303307 9 10 2 -16 -39 -24 -4 -2
1532264940318281 -1 -4 -4 -9 20 -21 1 -13
1532264940348193 -4 -15 -3 -4 -49 -8 3 1
1532264940370128 -5 -12 -8 -2 -67 19 -2 -3
1532264940401045 18 1 2 8 14 -2 1 5
1532264940454902 0 -37 -5 4 16 -20 4 9
1532264940490806 3 16 -3 -7 4 -12 -11 -7
1532264940512747 -8 2 2 -2 2 -6 2 -3
1532264940580565 -13 2 1 -3 12 5 -3 -5
1532264940627440 -10 0 8 6 8 -10 -3 -6
1532264940655366 5 0 0 -13 -11 -11 -3 1
1532264940678304 1 -6 -3 0 -8 7 3 0
1532264940700246 -1 5 -1 -1 -20 -13 -11 -3
1532264940715206 -2 0 -2 -4 20 51 4 -4
1532264940761083 0 -2 -6 -5 -13 -8 1 -1
1532264940783024 -2 -3 -2 -1 0 5 -3 -3
1532264940820923 1 1 0 -2 -6 6 -2 1
1532264940895723 7 -2 -3 -2 -2 -2 -2 -1
1532264940919659 0 -1 1 -6 1 2 7 -2
1532264940955563 -1 3 1 -4 -3 -1 6 5
1532264940970523 -15 1 -1 -1 8 -5 -5 -5
1532264940993462 -5 -1 -3 0 -8 -5 1 1
1532264941024393 0 -6 2 6 14 -41 4 -1
1532264941038342 -4 2 -3 -7 -29 -42 -9 -5
1532264941068262 -7 -2 0 -12 -14 -28 -7 -8
1532264941090203 -34 2 -1 -1 -4 41 6 -7
1532264941122121 1 -5 9 5 -5 7 -4 3
1532264941136080 5 -1 0 5 16 -9 -3 -5
1532264941158037 11 -2 -2 -3 5 -10 2 3
1532264941180959 -22 0 -1 1 8 -6 -2 -1
1532264941217861 -4 0 0 -1 10 -1 -2 -9
1532264941232822 -2 -4 -1 1 7 9 -1 3
1532264941285680 0 -2 0 1 3 -6 -2 -1
1532264941345520 -3 0 -2 -1 1 0 0 -4
1532264941398379 -1 -2 -4 -4 -4 -4 -5 -2

1532264941435280 -1 -1 -1 -1 1 5 0 1
1532264941482154 4 -1 -3 -1 -3 -9 4 6
1532264941496117 0 0 -1 -4 -2 4 -11 -4
1532264941527035 3 -1 -2 -2 -2 -5 -1 -4
1532264941541004 -3 2 0 1 0 9 12 -3
1532264941555958 1 1 -1 0 -1 -1 -1 1
1532264941585878 2 1 1 -2 0 1 -1 -3
1532264941607819 2 1 0 0 3 -2 0 4
1532264941630758 2 -3 -1 -1 1 0 -2 -4
1532264941653696 -6 -5 1 1 -4 -3 -5 -1
1532264941667659 2 -1 -4 -3 -2 -2 -2 0
1532264941690598 0 -1 -2 -2 2 0 0 -2
1532264941713535 -1 0 -1 -2 -3 -1 -3 -3
1532264941735477 -2 -1 -3 -4 -4 1 5 3
1532264941750437 -4 -1 -1 0 12 0 2 -2
1532264941773418 0 -1 0 -1 -3 -3 -3 1
1532264941795317 -1 1 0 -1 2 0 -1 0
1532264941825238 -2 -4 -4 -2 1 0 -1 0
1532264941863136 -3 0 2 1 1 1 -1 0
1532264941886075 1 0 0 1 1 1 3 -1
1532264941952896 -6 -4 0 -1 -3 -4 -2 -1
1532264941982816 1 -3 -1 -1 -1 1 4 0
1532264942035681 0 2 0 -1 -1 -4 0 0
1532264942103500 -1 -1 -1 0 0 -1 -1 0
1532264942163340 0 0 0 -2 -1 0 1 -1
1532264942230161 -1 -2 -2 -1 -3 -3 -2 -3
1532264942335878 -5 -5 -13 -7 -11 -11 -5 -4
1532264942350838 -2 -2 -2 -5 9 28 -2 -1
1532264942395718 -3 -4 -3 -19 0 -8 -6 -7
1532264942410678 2 0 14 -11 -36 9 0 1
1532264942440629 0 -3 -6 -19 -6 14 4 2
1532264942478497 1 -5 28 32 -4 -2 2 2
1532264942523418 0 28 -26 -37 3 -1 -3 -1
1532264942553297 -2 -1 20 10 11 -2 -2 -3
1532264942598177 -2 2 6 4 6 20 2 -1
1532264942621115 -2 -3 6 -1 -8 3 2 -2
1532264942658025 -9 5 2 -2 -6 -32 9 -7
1532264942710875 2 -12 -3 0 -5 8 -3 -4
1532264942734812 0 0 5 3 2 28 6 7
1532264942756753 2 -11 1 14 3 46 0 -5
1532264942777697 1 -10 -2 1 -5 -10 0 1
1532264942792657 -3 -8 -12 -15 -14 10 -2 4
1532264942815596 -1 5 0 -16 21 -10 -1 2
1532264942838534 -3 7 3 11 57 -22 17 7
1532264942868454 8 12 8 7 8 20 18 -13
1532264942920315 -8 -2 -5 -13 -13 16 -2 7
1532264942965196 -6 -16 8 -3 0 -14 5 -1
1532264942988134 -4 15 5 2 5 -4 -1 -2
1532264943018054 -2 -1 -4 3 -3 -18 -12 -3
1532264943055953 -16 4 -1 -2 -29 -20 -1 0
1532264943077894 1 0 0 -6 9 11 -8 -3
1532264943092854 12 0 -1 -1 9 5 1 -3
1532264943115793 -5 4 -1 14 12 7 -2 0
1532264943152694 5 11 -2 -2 -10 -13 4 3
1532264943175633 -9 -14 -6 -1 -2 5 7 1
1532264943199569 -7 -10 1 -2 -6 -6 1 -4
1532264943213542 -7 -12 -1 -2 -1 -4 0 -3
1532264943258412 -2 -12 -7 -4 -1 -3 -5 -5
1532264943273371 13 7 -7 0 4 -2 -1 3
1532264943303291 -21 -35 -14 -2 -3 0 -3 -1
1532264943325233 6 1 1 -2 -2 -2 -1 0
1532264943378091 20 -10 -6 -3 8 3 -10 -8
1532264943422971 -57 7 18 1 10 7 1 -22
1532264943437931 29 9 0 -5 -15 -4 -43 -42
1532264943452891 10 -4 -15 -5 -17 -42 -6 -19
1532264943467851 -39 -6 -7 -7 -7 5 -7 -44
1532264943527692 4 21 1 -1 3 9 10 -12
1532264943542651 -14 -11 -2 2 11 -4 -15 -6
1532264943588529 1 -21 -34 -9 -10 6 -3 2
1532264943610470 -38 -8 -9 -1 1 17 -4 -2
1532264943648369 -9 -8 -2 3 7 5 11 15
1532264943670310 -33 4 2 1 0 -1 -3 -10
1532264943708209 22 29 20 1 -4 -13 -16 13
1532264943730150 2 10 4 -1 -1 -5 -5 -17
1532264943768049 0 9 10 0 -2 -3 0 2
1532264943827888 -29 -19 -7 3 4 2 12 23
1532264943880747 11 -13 -6 -3 -7 -4 5 -12
1532264943918645 -13 -4 -3 -1 -3 1 5 -1
1532264943948566 -11 1 0 0 -2 -1 -2 -2
1532264943985467 -10 -4 -2 5 1 -1 1 8
1532264944030347 -3 6 4 -6 -4 8 0 -16
1532264944068246 39 0 -4 -2 -5 9 5 17
1532264944113126 -3 -3 -2 -7 -5 22 0 -1
1532264944143046 16 1 0 -1 3 -11 8 8
1532264944187926 10 5 2 2 -4 14 0 -2
1532264944202886 9 -2 1 -2 -19 -15 -9 2
1532264944225825 1 -2 -2 -2 7 -2 9 3
1532264944270704 -1 -1 -3 2 9 14 2 -2
1532264944292646 -4 0 -2 2 9 11 8 1
1532264944330544 -13 -3 -2 -3 -4 3 -10 1
1532264944369441 6 -2 0 -3 3 4 -2 -2
1532264944383403 24 2 -1 -3 -6 -33 -22 -6
1532264944420305 22 4 3 3 0 10 21 -2
1532264944443250 -18 -3 -2 -4 -2 -1 13 -1
1532264944480152 -56 -9 -6 -3 -4 -25 6 -21
1532264944540989 -3 0 -3 -3 0 -3 -4 -17
1532264944592850 34 0 0 2 0 9 2 18
1532264944615789 -23 -2 -1 0 -3 -6 -17 -7
1532264944660669 -10 2 1 5 14 12 7 26
1532264944698567 16 5 -2 -2 -1 -9 -3 2
1532264944728487 13 -3 -2 -5 -2 -2 -5 17
1532264944788328 -36 -2 21 -11 -17 -55 -8 -16
1532264944810268 -2 -8 -25 -6 -19 -80 4 28
1532264944840189 64 19 15 3 6 -17 -6 21
1532264944893047 -28 0 -16 -4 -8 12 -24 30
1532264944915986 -38 -111 -112 16 8 -20 56 8
1532264944975826 9 9 6 -6 -17 -39 -60 8
1532264945095506 -5 4 -4 -4 -1 -4 -2 -7
1532264945312925 -2 1 6 5 -5 -46 -2 -3
1532264945621101 15 42 3 8 -7 9 -5 0
1532264945665980 -1 -2 3 2 -13 -5 -21 -5
1532264945695901 -2 -2 5 1 17 20 29 8
1532264945717842 -8 -5 -1 5 -4 -2 -10 -11
1532264945741779 1 0 -1 5 -9 2 -8 -1
1532264945762722 6 -7 -3 -11 7 11 0 0
1532264945800620 -4 16 1 -4 -3 4 -3 -9
1532264945860460 8 -2 -7 9 9 2 5 1
1532264945913332 -5 -13 -9 4 27 6 -7 -5
1532264945980140 10 15 -1 -6 9 6 -35 -5
1532264946047960 6 -3 -4 -7 -27 50 2 -1
1532264946085867 -53 -1 0 7 15 -3 5 9
1532264946100818 57 6 4 2 -46 -17 10 -13
1532264946160658 2 -9 -4 -4 -11 -63 -8 -37
1532264946220498 -2 -5 -4 -1 32 23 -6 10
1532264946273357 -11 -27 -22 -15 -5 -20 -6 -8
1532264946325218 6 4 -9 -9 27 4 3 -5
1532264946378077 -19 1 0 8 9 -5 -4 -6
1532264946424963 -30 0 6 28 4 9 9 3
1532264946445895 5 0 4 -4 -86 -9 -13 -2
1532264946482797 19 -57 -18 -12 21 -43 4 33
1532264946522690 36 11 7 -13 6 20 6 11
1532264946558594 17 9 1 -10 2 -8 -5 -2
1532264946603473 -27 5 5 -4 36 -1 -10 -17
1532264946633394 7 -4 7 10 -46 -6 8 3
1532264946664312 19 13 1 -4 41 28 -1 2
1532264946693234 -13 -16 -16 -16 -1 -5 2 3
1532264946708195 6 7 -9 -21 16 -27 -12 -24
1532264946753074 17 -12 -3 2 -17 -11 2 8
1532264946797953 10 -15 -16 -11 -29 -8 2 -7
1532264946850812 -7 -3 -2 -13 76 17 -2 1
1532264946895693 10 -43 -16 11 31 57 9 5
1532264946925612 -25 -8 0 10 -8 15 0 1
1532264946970492 -2 13 -2 -9 -44 -1 -7 -3
1532264947008391 10 9 4 -2 0 16 -3 -6
1532264947038311 0 7 1 -2 -33 -17 -6 -2
1532264947174961 6 4 0 -1 -3 -11 -2 0
1532264947204865 1 8 4 -1 -7 -4 -4 -1
1532264947225810 1 -3 -1 1 2 6 -3 -1
1532264947247751 -2 -2 4 20 -11 -33 -3 0
1532264947285650 2 3 -6 0 7 4 5 -1
1532264947308596 -6 -2 -1 -5 3 55 -4 -9
1532264947330529 6 2 1 1 -17 -7 -3 0
1532264947345490 7 -2 -2 -7 6 43 2 -4
1532264947391379 -4 -2 0 0 4 5 -1 -3
1532264947413308 -6 1 -2 -1 -9 -18 -3 -4
1532264947450209 -5 0 -1 -2 -8 -11 -3 -1
1532264947473148 1 -1 -2 -1 0 -9 -5 1
1532264947526006 0 -4 -1 0 0 -1 1 1
1532264947547948 -6 0 2 0 1 -6 -10 -2
1532264947586844 9 -2 -3 -2 -3 -3 -2 -3
1532264947615767 8 -2 -1 1 2 1 0 5

1532264947660647 14 -2 -4 -1 -2 -3 -2 -2
1532264947713506 -2 0 1 -1 0 -6 -2 -4
1532264947750407 5 -1 -1 0 -1 2 -2 0
1532264947795286 -1 -1 -3 -2 -2 -6 -3 -3
1532264947818573 -1 0 1 0 1 3 0 2
1532264947848493 -2 -2 -1 -2 -3 1 0 2
1532264947908339 0 -2 -2 -1 -1 6 0 -1
1532264947923293 -4 -1 -2 -1 -2 -6 1 -1
1532264947975155 -2 -2 1 -2 -3 -8 0 -2
1532264948028013 1 -1 -1 -1 -1 -4 -3 -3
1532264948170632 -2 -1 0 0 -1 0 -2 -4
1532264948335192 -1 0 -1 -1 -1 1 -1 -1
1532264948381069 0 -1 -2 0 -3 -3 -2 -1
1532264948447890 -2 -2 -1 -1 1 -2 0 -1
1532264948492770 0 3 0 0 -2 0 1 -1
1532264948553624 -3 -4 1 -1 1 -3 -2 -1
1532264948635389 3 5 5 -6 35 19 2 1
1532264948680269 5 3 -1 -26 -57 -17 3 6
1532264948807928 -3 -8 -13 -27 -49 3 -8 -6
1532264948852810 -3 1 3 -9 11 -22 -1 -4
1532264948943565 -1 6 2 -3 1 -4 -6 0
1532264948959522 -2 1 1 -1 -24 6 -7 -2
1532264948973485 0 52 21 -9 -5 -33 0 -2
1532264948988445 -2 -26 -21 -5 -3 -16 -8 -4
1532264949010397 -3 -9 -1 -6 -5 -45 5 3
1532264949057260 -1 15 6 5 2 23 -2 0
1532264949085186 1 8 4 5 15 39 -19 -21
1532264949146024 -7 -37 -15 1 -6 -31 -6 -7
1532264949160983 -31 6 -3 -2 -13 4 -4 2
1532264949182924 8 10 1 -1 2 6 -5 2
1532264949205863 4 4 6 11 -2 17 -16 -11
1532264949227805 -3 -20 -17 -7 -33 -21 -6 -1
1532264949257742 -4 -4 7 23 -17 -9 7 1
1532264949280663 -2 -37 -7 21 3 -3 3 -2
1532264949333534 3 4 13 5 -9 16 16 -4
1532264949349480 -5 -10 3 7 -6 4 -7 -3
1532264949385383 6 13 -4 -9 -5 7 2 -2
1532264949408322 -10 15 5 -8 -14 -14 12 -2
1532264949453201 -37 -13 -9 2 7 -15 4 8
1532264949468162 7 -9 -2 -4 2 2 4 8
1532264949506060 -5 -1 2 11 -27 1 5 -1
1532264949521024 2 -16 3 6 7 -6 -11 -1
1532264949572881 -12 -12 -1 4 3 4 5 -7
1532264949587842 -10 10 1 0 10 3 2 -1
1532264949625741 -20 1 7 2 8 -16 7 -2
1532264949663649 6 -3 3 2 1 -4 9 9
1532264949693559 -18 2 8 -1 0 2 1 -24
1532264949723479 -13 -25 7 -3 -5 -6 -8 -38
1532264949768359 -4 6 5 0 1 -2 0 17
1532264949835180 9 8 24 2 -1 1 2 8
1532264949873079 13 5 -6 -3 -4 -1 0 3
1532264949910978 -12 3 -5 4 -1 -2 4 -19
1532264949947879 29 1 11 -5 -3 -11 7 14
1532264950030658 -66 -28 -10 -1 -9 -1 -48 50
1532264950060578 10 9 31 3 1 11 -2 -17
1532264950083517 -33 19 10 5 12 26 38 24
1532264950098476 18 21 -3 -1 2 -16 46 8
1532264950150337 -7 9 14 -2 -2 6 -19 -21
1532264950210178 28 21 15 2 5 0 -57 -27
1532264950248076 31 -8 -6 -1 -4 -10 13 7
1532264950277996 -14 4 4 -4 -3 19 -4 4
1532264950315895 13 12 9 -2 -6 -30 -26 -14
1532264950337836 32 -8 -25 -5 -2 3 -13 7
1532264950473473 -5 26 6 3 -4 -6 -1 -9
1532264950503394 -5 -57 -32 -6 -4 -2 4 6
1532264950593154 1 6 16 -2 -1 -2 -1 -5
1532264950616092 -6 -7 -7 2 1 -1 -7 -2
1532264950660972 -1 0 5 -3 -6 -4 2 2
1532264950682914 11 2 3 -1 -1 22 1 1
1532264950705852 -2 -5 -4 -2 3 -5 17 4
1532264950757731 -3 0 0 2 11 -16 0 -2
1532264950788631 3 2 5 2 -5 -9 11 -1
1532264950810572 -9 -1 -5 -5 -1 -5 -14 5
1532264950833511 5 1 0 1 2 -3 -15 3
1532264950855452 20 -3 -2 -3 -2 -7 3 2
1532264950870412 -11 3 -3 0 9 27 6 7
1532264950908311 -74 -18 -11 -7 -11 -20 -41 -60
1532264950930251 31 17 15 -6 5 20 -7 24
1532264950953191 -36 2 8 -1 -7 -29 1 10
1532264951007047 19 -2 -9 -5 -9 -30 11 -19
1532264951035969 -102 -12 -8 -6 0 15 -11 -22
1532264951057911 11 -1 -3 3 -1 15 21 2
1532264951126727 -48 -9 -6 -3 -2 -12 -5 -18
1532264951148672 22 -1 -2 -1 -1 17 -4 17
1532264951223470 -15 -1 1 1 -6 -6 2 7
1532264951238428 -8 -6 -3 0 5 14 18 9
1532264951260370 -9 -1 1 -2 -10 9 -12 5
1532264951275330 0 -1 1 -1 -3 -20 21 2
1532264951290289 7 -3 -4 -2 1 -6 7 -4
1532264951313228 7 3 5 3 7 13 17 8
1532264951350130 15 20 17 3 -14 -10 4 9
1532264951373068 2 -5 -3 -3 -3 11 13 17
1532264951432908 -5 15 6 -3 15 -21 2 -19
1532264951500727 0 -3 4 -6 -11 37 -56 14
1532264951530647 39 -3 -14 4 2 -6 6 24
1532264951575527 -20 16 14 0 3 1 12 -7
1532264951590487 -4 6 -4 1 2 -8 -4 17
1532264951620406 -23 -14 -4 2 4 -26 2 -3
1532264951643345 -16 1 1 0 4 15 0 -6
1532264951695207 -8 -4 -1 -2 -7 7 -11 -3
1532264951718145 -6 -4 -5 -1 -3 -4 2 0
1532264951741084 -2 -2 1 7 -4 -6 -2 -1
1532264951763025 -3 -2 -6 13 -8 -71 -5 -1
1532264951830844 -3 -15 -16 -17 -5 65 -18 -3
1532264951867785 4 10 24 76 8 -31 -54 6
1532264951920648 2 30 20 3 3 13 27 1
1532264951995444 -5 2 -4 -37 83 35 8 -8
1532264952070244 -5 8 0 5 -8 -1 -5 -2
1532264952242783 5 7 -8 -25 3 -11 -1 -2
1532264952295641 3 16 -1 -15 -4 -16 10 -3
1532264952318579 -8 -29 -4 -19 -22 -10 -2 4
1532264952364457 -13 -34 -6 4 -9 -17 -9 -3
1532264952415321 5 -21 16 17 11 -4 -1 4
1532264952438260 9 46 5 18 43 -2 -14 3
1532264952460201 -3 17 5 3 -9 -4 2 0
1532264952483146 3 10 4 5 -53 43 5 -3
1532264952535998 -1 6 -1 -2 -5 -18 -5 0
1532264952610798 11 -29 4 11 18 25 -4 1
1532264952632740 1 -11 11 -5 -7 -14 11 0
1532264952663657 -4 -2 -5 -13 -50 -5 -11 0
1532264952678617 4 4 2 8 57 27 4 2
1532264952708536 2 -15 -2 -3 2 -36 3 1
1532264952738457 -15 -30 -22 -9 -23 -28 -10 -4
1532264952805278 -4 28 8 -3 -21 22 4 0
1532264952820238 1 4 -14 -12 13 -20 -4 -6
1532264952881076 -10 5 6 3 -59 -7 -5 1
1532264952925955 7 -12 7 -22 -58 -19 -10 -7
1532264952977826 -6 -7 -1 -17 25 10 13 -2
1532264953045635 -5 -19 -8 -9 -20 -105 -3 -2
1532264953090515 20 -21 0 16 18 25 1 -4
1532264953113454 -7 -1 -14 -36 -1 7 2 -5
1532264953188254 -10 2 -3 -7 -20 -16 -5 2
1532264953242111 -16 53 -2 -20 -34 -37 -8 -5
1532264953322894 -9 -15 -6 -2 1 -1 -4 -3
1532264953412654 -27 -17 -8 -24 -41 27 -8 -6
1532264953465513 19 -6 1 -12 -1 -4 -5 -6
1532264953495432 6 -2 3 1 -47 -10 2 1
1532264953518372 -2 9 17 4 -6 -18 -8 -7
1532264953555273 -7 -7 -13 -17 -15 -16 -1 -2
1532264953660990 -9 -6 -9 -13 -9 -2 1 -2
1532264953735790 3 0 -5 -9 19 15 2 1
1532264953757732 1 1 1 7 -21 5 3 2
1532264953810590 0 -2 1 4 8 3 -2 2
1532264953855470 0 1 -2 6 13 74 12 0
1532264953870429 0 1 -9 0 34 42 6 -3
1532264953923289 -2 -5 -7 -4 -4 19 -1 6
1532264953960190 -2 0 5 -1 -38 -34 -3 3
1532264954035999 5 6 6 2 -4 -8 2 2
1532264954057938 2 -8 -4 -4 -6 -8 -5 6
