1532256958396355 0 -1 0 -1 0 -3 -2 0
1532256958464173 -2 -2 -1 -1 0 0 0 1
1532256958531992 2 -2 0 -2 0 1 2 -2
1532256958568893 -1 0 -1 0 -1 1 -2 2
1532256958613773 -1 0 0 -1 -3 0 0 -2
1532256958658653 -1 0 -1 -1 1 -1 -6 -3
1532256958696552 2 -1 -1 -1 0 0 3 -1
1532256958711512 -1 -1 -1 0 -2 1 6 -1
1532256958734450 -2 -2 -1 -2 0 -2 -1 -5
1532256958786312 -2 -2 -2 -1 -4 1 3 -3
1532256958824211 1 -1 0 -1 -1 0 0 -1
1532256958854130 -5 -2 -2 -4 -2 -4 -9 5
1532256958891032 -2 -2 1 -1 1 -2 -6 -2
1532256958913970 -1 -2 -1 -2 -2 -3 -5 0
1532256958936909 -3 0 0 -2 0 -1 -4 -1
1532256958958850 -1 -1 0 -1 -1 -2 -1 0
1532256959049611 4 0 0 0 0 -2 -2 -4
1532256959079528 2 -2 -1 -2 -1 -2 -3 0
1532256959124407 -4 -1 0 -1 0 1 0 -3
1532256959169297 2 -2 -1 0 -1 0 -3 1
1532256959199207 -2 1 -2 -1 -3 -4 -5 -1
1532256959251069 -7 -3 -1 1 -1 0 -2 1
1532256959318888 0 0 -1 0 -1 -3 -3 0
1532256959386713 5 0 0 0 0 2 3 0
1532256959416633 -3 -2 -1 -1 -1 -1 -5 -3
1532256959499412 1 -1 0 -1 -2 -1 -2 2
1532256959544291 -17 -2 -1 -2 -2 0 -2 -2
1532256959589171 -3 -1 -2 0 0 -1 1 -2
1532256959628068 0 -2 -1 -2 -1 0 -2 -1
1532256959656990 -3 0 -1 -1 1 -3 0 3
1532256959693892 -2 0 -1 -2 -2 0 4 0
1532256959731790 1 -3 -1 1 -2 -2 -1 0
1532256959768692 -1 -2 0 -3 -2 -3 -6 -3
1532256959814582 1 -3 -3 -2 0 1 -1 1
1532256959851470 1 0 0 0 -1 -2 -8 -5
1532256959883385 -8 0 -1 -3 -3 0 -1 -3
1532256959919289 1 1 -2 0 0 -1 4 -1
1532256959956190 3 -2 -1 1 -1 0 0 -2
1532256960024009 1 -1 -1 -3 -3 -2 -5 1
1532256960046947 0 -2 0 -1 -2 -1 0 -3
1532256960121782 -6 -1 0 2 1 0 0 -1
1532256960143723 -3 -1 -1 0 0 -2 4 1
1532256960181622 -1 -1 -2 0 -1 -3 -2 1
1532256960226502 7 -1 -2 -2 0 -2 3 1
1532256960279360 -3 -2 -2 0 -1 -2 -3 3
1532256960331221 1 2 0 0 -1 0 -5 -1
1532256960361142 -1 -1 -2 -1 -2 -1 -5 1
1532256960399053 -2 0 -1 -2 1 0 2 -1
1532256960473852 0 -1 -1 -3 -1 -2 4 -1
1532256960586551 0 -1 -2 0 -1 -1 0 0
1532256960646392 -2 -2 -1 -2 -4 -4 -2 -1
1532256960729170 3 3 -3 -11 -6 -2 -2 2
1532256960752109 7 3 8 33 16 1 3 2
1532256960774050 -3 0 -3 -4 4 0 1 -9
1532256960796989 11 4 -2 -5 -5 -9 0 11
1532256960826908 1 3 -3 -7 -2 6 4 -3
1532256960841869 -32 -23 -6 -1 0 9 2 -11
1532256960863810 -7 -3 -5 0 17 7 -2 -25
1532256960901710 5 8 -2 -3 4 1 2 -9
1532256960969527 -40 -51 -10 -7 1 9 -6 -18
1532256961006428 20 18 2 -5 -2 -9 -11 5
1532256961134087 -63 -41 -7 1 32 27 9 -10
1532256961306625 25 53 0 -5 -2 -4 -17 -5
1532256961509101 -2 6 1 -3 -15 9 28 2
1532256961636760 -17 -7 -4 -5 8 15 -6 -9
1532256961801319 -3 -6 0 5 13 -2 3 -3
1532256962011757 -11 -19 -3 -5 -6 -2 10 -3
1532256962116476 7 26 -1 -1 -6 1 13 1
1532256962393735 -26 -28 -3 -4 3 -1 -14 -5
1532256962559292 0 7 -1 -1 -3 12 5 1
1532256962776710 13 20 0 -6 -9 2 2 0
1532256962911351 1 -4 -2 -2 -3 -61 -4 -6
1532256962964209 -9 -5 -4 -2 -23 -4 -16 -5
1532256963002109 1 0 -2 0 3 4 3 -9
1532256963016071 1 -4 -1 -8 -13 -2 1 20
1532256963068930 3 -1 -1 2 -29 4 11 18
1532256963106828 -1 0 2 12 -11 -9 -40 -8
1532256963136748 -1 0 -1 -3 30 36 18 16
1532256963158698 5 0 -1 -3 -1 6 47 36
1532256963249455 39 10 0 -8 -7 2 50 79
1532256963286356 -26 -43 -2 -1 -50 -39 -58 -19
1532256963316276 -12 16 12 30 35 -10 -11 -14
1532256963363151 54 19 0 19 -33 27 -26 87
1532256963392074 -24 -11 -9 -31 -21 -25 -5 -20
1532256963414049 41 41 -2 3 -4 0 100 73
1532256963436988 -66 -14 -8 -12 -10 -4 -25 -128
1532256963496828 16 -2 7 16 42 -6 -12 40
1532256963511788 -19 -53 -18 -8 0 -8 -64 62
1532256963563650 26 27 -3 -5 37 18 -4 -18
1532256963601560 8 -9 -9 -6 -5 1 57 15
1532256963639447 20 46 14 8 -10 -30 -10 -34
1532256963669367 -25 -12 7 -4 10 -5 -38 -28
1532256963744167 0 -35 -35 3 16 -2 11 9
1532256963804006 -13 -43 -23 -23 12 29 65 -22
1532256963856865 22 -24 -13 -12 23 9 71 44
1532256964021425 -26 -27 -8 9 59 11 -119 -43
1532256964149083 22 65 101 29 -21 9 6 -20
1532256964208923 10 -60 -24 -2 -24 -19 53 57
1532256964261783 11 -4 2 -7 -15 8 11 7
1532256964276742 -11 -20 -12 0 -6 -7 18 -12
1532256964381462 7 -4 8 3 0 9 41 10
1532256964404401 -8 1 11 3 8 18 36 2
1532256964464242 1 0 1 -2 -3 -9 0 -2
1532256964509121 2 -1 -1 -1 2 22 13 2
1532256964547020 -1 0 1 0 -2 14 10 -1
1532256964667697 2 3 -3 -3 -9 24 1 3
1532256964681659 2 -1 -1 1 -7 -5 7 4
1532256964703601 -3 -4 10 0 5 -18 -8 -5
1532256964726540 -2 -4 1 3 15 5 3 -3
1532256964794357 2 1 2 1 0 -43 3 3
1532256964892097 1 0 -1 0 10 15 1 -3
1532256964966897 -1 0 -1 -1 5 -14 -18 -1
1532256965041696 -1 -1 0 2 6 15 -6 -2

1532256965056658 -1 -3 -1 -1 -1 -4 -2 -1
1532256965079595 -2 0 1 -2 -4 -6 -6 -3
1532256965124475 0 -2 -1 0 -1 7 -1 0
1532256965146416 -2 -2 -1 -1 -1 15 -4 -1
1532256965176337 -2 0 -3 -2 -4 -6 -4 1
1532256965206257 -1 -2 -4 -2 -3 5 -1 -3
1532256965244162 2 2 0 0 0 -10 6 0
1532256965333921 -1 -3 -1 0 -2 0 0 -2
1532256965393761 -1 -1 -1 -1 0 5 0 1
1532256965446620 -1 0 -1 -2 -1 0 0 -3
1532256965485516 -1 -1 -2 0 0 -2 0 0
1532256965529399 -1 -2 -1 0 1 5 2 0
1532256965611180 1 -1 0 -1 0 -1 0 -2
1532256965634119 -2 -1 -1 0 -1 0 0 -1
1532256965656060 -2 0 1 -1 1 -2 0 -2
1532256965671503 -2 0 -1 -2 0 1 6 -3
1532256965761263 0 -1 0 0 -1 0 -1 -1
1532256965799162 0 -1 -1 0 0 -2 -7 -4
1532256965859002 -1 -1 -2 0 -3 0 -3 0
1532256965933802 -2 1 -2 -1 1 -2 -6 0
1532256965993642 -3 -3 0 0 0 1 0 0
1532256966031540 -2 -1 0 -1 -3 -1 2 -4
1532256966114319 -1 -2 0 0 0 -2 -4 -2
1532256966219042 -2 1 -2 -1 -1 -2 0 1
1532256966323759 -1 -2 0 1 -1 -1 -1 -1
1532256966361657 -1 -1 -1 -1 -5 -1 -3 -1
1532256966429477 -2 0 -2 0 -2 -1 1 -1
1532256966489316 -1 -1 0 -1 0 1 4 1
1532256966526218 0 -1 -1 0 -4 -1 -2 -1
1532256966653876 0 0 -1 1 -1 -2 0 1
1532256966736655 -3 -2 0 1 -1 0 -1 -6
1532256966781535 -1 -1 0 -1 0 -1 -2 -1
1532256966804474 0 -1 -1 0 -2 0 1 1
1532256966826415 -1 0 -3 -1 -1 -2 0 1
1532256966841375 -2 0 -1 2 0 0 1 0
1532256966871295 -1 -1 -2 -1 -3 -1 -2 0
1532256966901215 -1 -1 -1 -1 -2 -4 0 3
1532256966939114 -2 -1 0 -1 0 0 2 -4
1532256966961055 1 -1 0 0 -1 0 -2 0
1532256966991973 -1 -1 -1 0 -2 -3 -4 -2
1532256967021892 -2 0 1 0 -1 -1 -4 -4
1532256967036852 0 -2 -2 -3 -2 -3 0 0
1532256967058793 0 -2 -1 -1 -2 -2 -8 2
1532256967088713 -2 -1 -3 0 -1 -3 -2 0
1532256967118634 -2 1 0 -2 -1 1 0 -3
1532256967149552 0 -1 0 -1 -1 -3 -6 2
1532256967171492 -1 -1 0 0 -2 -2 -2 -1
1532256967194431 -1 -2 -1 -3 -2 -3 -4 -2
1532256967216372 -2 0 1 -2 -2 1 0 -2
1532256967263247 1 0 -2 -1 1 -3 -6 -1
1532256967308127 -2 -1 1 -1 2 4 6 -4
1532256967321093 -2 0 -3 -4 0 -2 -3 0
1532256967366969 4 -5 0 0 -2 1 -4 -3
1532256967381930 -1 0 -1 -1 0 0 -5 0
1532256967412847 -4 -1 0 -1 -3 -1 1 0
1532256967458724 -1 1 -1 -2 1 1 5 4
1532256967472686 4 -3 -3 -1 -1 1 -1 0
1532256967524552 -2 -1 -2 -2 0 -3 -4 0
1532256967546489 -1 0 -2 -2 -3 -2 -3 0
1532256967563444 3 -1 -1 0 0 -1 2 3
1532256967591369 -1 -2 -1 -1 0 -1 -3 -1
1532256967606328 -2 -1 -1 -3 -2 -2 -4 -1
1532256967636249 -1 0 0 -1 1 -2 -6 -2
1532256967651223 0 -1 -3 -2 0 -3 -3 0
1532256967689113 -1 -1 0 -1 1 -2 -1 -2
1532256967727007 -6 -3 -2 -1 -2 1 0 -2
1532256967778867 -1 -1 -1 -1 0 0 0 0
1532256967801807 -2 -1 -1 -1 -1 -1 -5 -3
1532256967816766 0 -1 0 0 -1 -1 -4 0
1532256967838708 -1 -1 -1 -1 -2 -2 0 -1
1532256967853667 0 -2 -1 -1 -1 0 1 2
1532256967891566 -3 -1 -1 0 0 -1 -2 -3
1532256967914505 0 -1 -1 -3 -2 0 8 -1
1532256967929465 -1 -1 -2 0 -2 -1 -1 0
1532256967989305 1 -1 -2 -3 -3 -4 -6 0
1532256968019225 -2 -1 -1 3 0 0 7 0
1532256968041167 0 -1 -1 -1 1 2 1 0
1532256968056126 1 -1 -1 1 0 -2 -2 -1
1532256968079065 -1 -1 0 1 1 2 7 -7
1532256968094025 2 -3 -1 0 0 -2 -1 0
1532256968108985 -5 0 -1 1 0 3 7 0
1532256968131924 0 -2 -1 -2 -3 -4 -2 0
1532256968153865 -2 0 0 -1 -1 -2 -5 0
1532256968191764 0 -1 0 -2 -3 -8 -1 1
1532256968213704 1 -1 -2 0 1 1 -2 -1
1532256968243625 -2 -2 -1 0 -1 1 3 -2
1532256968289502 0 -1 0 0 -1 -2 -6 -1
1532256968319423 -3 0 1 -3 1 1 -3 -2
1532256968371284 -7 -1 -3 1 -2 -4 -4 -4
1532256968431124 -2 -2 -1 0 -1 0 0 3
1532256968469023 -2 -2 -3 -2 -2 -2 -3 0
1532256968483982 1 0 0 -1 -2 -2 -5 -1
1532256968506921 -2 -1 0 -1 1 1 1 -3
1532256968536841 -2 -1 -1 -1 -1 3 2 -5
1532256968558782 1 0 -1 0 0 0 2 1
1532256968596681 -1 -3 -2 -1 -1 1 -1 1
1532256968664499 4 -4 -1 -2 -1 -1 -2 1
1532256968709380 -2 -1 -2 -2 0 -1 -3 -3
1532256968724340 -1 1 0 0 -2 -1 -3 1
1532256968746281 0 -1 -2 0 0 -2 -9 -1
1532256968778195 0 -2 -1 -1 -2 -3 -1 -2
1532256968814099 -1 -1 1 -1 0 2 0 -2
1532256968837038 -2 -2 -1 -2 -2 0 -1 -2
1532256968866959 0 0 -2 -1 1 -2 1 -1
1532256968888899 -1 -1 -3 0 -1 -16 -8 -2
1532256968903860 -1 -2 -2 -1 2 5 1 -1
1532256968926798 1 -3 2 8 -3 0 -2 0
1532256968941758 -3 -1 -2 3 10 14 3 -2
1532256968963700 -1 0 1 1 -4 -1 0 -2
1532256969009577 -1 -1 -1 1 -8 -72 -8 1
1532256969054457 -1 -1 -3 -7 -7 -17 5 1
1532256969106318 -1 -2 -5 -19 -16 12 1 -1
1532256969129264 -2 -1 -2 -10 -8 -18 -7 -3
1532256969174144 -5 -4 -2 -9 -20 16 2 -3
1532256969241962 0 -3 -5 -4 -7 -3 12 11
1532256969271882 13 7 1 -2 -3 2 8 -7
1532256969293824 -25 -13 -3 -9 -4 10 -7 4
1532256969316762 33 12 0 -5 3 -12 -7 -9
1532256969346682 -3 -1 -6 -5 5 22 -6 -4
1532256969376602 1 19 -9 -10 -2 -30 -21 -8
1532256969414501 9 -12 0 5 3 33 23 14
1532256969444421 6 -16 3 1 -41 -31 -12 9
1532256969481322 -28 -19 -4 1 5 -9 10 -5
1532256969519221 29 -48 -4 0 24 32 49 6
1532256969572080 -2 -18 1 -3 -38 34 -32 -3
1532256969683780 12 31 0 3 -1 -18 -1 2
1532256969728660 40 74 16 9 19 -16 -17 7
1532256969879257 18 32 -2 -1 2 2 7 3
1532256969901200 -21 -57 -12 -8 -25 -22 -26 -13
1532256969939098 -39 -76 -14 -12 -40 -39 -61 -15
1532256970021876 16 45 9 0 3 10 33 12
1532256970126597 -1 5 2 -1 18 13 -30 -4
1532256970216372 12 20 4 6 7 15 14 4
1532256970321092 -8 -15 -5 -4 -4 -11 -22 -6
1532256970336052 -9 12 1 0 10 26 25 -1
1532256970373950 -2 3 6 -1 -6 -6 1 1
1532256970388910 5 -1 -2 -5 -7 0 -4 3
1532256970426808 -5 21 4 1 -4 -21 -72 -12
1532256970516568 -1 10 -1 1 12 -2 36 4
1532256970733987 0 18 -3 -4 -1 -12 -46 -6
1532256970831726 -6 1 2 2 0 -35 9 -1
1532256970883588 2 24 2 -1 5 9 -12 -1
1532256970929465 0 6 2 6 -4 -2 -8 0
1532256971041166 8 3 -25 0 12 15 10 2
1532256971094025 -12 -8 2 7 15 -29 -55 -9
1532256971236643 9 2 0 -2 -8 12 1 2
1532256971297480 1 -24 -2 4 13 -13 -77 -10
1532256971552798 -1 1 0 1 8 44 13 9
1532256971603662 -4 -4 -8 -4 -13 79 32 -2
1532256971716361 -4 -4 -2 -4 -6 2 -4 -3
1532256971799139 2 0 1 10 14 31 24 2
1532256971852009 -9 -3 -1 -5 -17 -8 -31 -46
1532256971918833 10 21 10 13 21 28 10 77
1532256971963706 14 30 15 29 10 28 -16 24
1532256972054464 -11 -14 -11 -9 -21 28 71 -68
1532256972136245 16 7 -2 7 9 -19 4 54
1532256972181125 3 43 15 24 16 1 16 30
1532256972219024 9 -8 -26 -14 -20 -6 -51 -20
1532256972263904 -5 16 -13 1 -47 5 -29 -83
1532256972278864 25 -4 -8 -15 67 25 60 14
1532256972407538 -26 1 15 -15 -26 -11 70 -52
1532256972459381 8 -4 -19 28 37 -13 -5 31
1532256972602000 -11 17 19 -9 4 -26 25 -28
1532256972774538 6 16 8 1 14 1 -20 3
1532256972962037 4 5 0 -2 -8 -35 127 0
1532256973013898 -3 0 1 -1 -3 -31 -123 -1
1532256973073738 1 0 -3 2 15 8 4 0
1532256973149535 -1 1 4 4 3 -14 21 3
1532256973284176 -2 -4 -3 1 9 -73 -15 -4
1532256973314095 -1 -3 -2 0 -4 16 -3 1
1532256973396874 -2 -1 0 -1 23 29 6 -1
1532256973433776 2 1 1 -2 -1 -3 10 0
1532256973456714 -1 -1 -1 0 0 10 16 1
1532256973493615 -2 -1 -1 0 -5 -8 -6 1

1532256973554453 0 -1 -2 -2 -9 -18 -8 1
1532256973576394 -2 1 0 -1 0 5 -11 -2
1532256973614293 0 -1 0 -1 0 -13 3 -2
1532256973697071 -2 0 -2 -2 -3 -15 0 -1
1532256973733973 -1 -2 0 -2 0 14 6 0
1532256973786831 -1 0 0 -1 -4 -3 2 2
1532256973868612 -2 -1 -1 -2 -8 -2 0 -1
1532256973974342 -3 0 -3 -2 -2 9 -1 0
1532256974034182 1 -1 -2 -2 -6 -10 -2 1
1532256974071084 -2 0 0 0 -5 -9 9 -1
1532256974102001 -5 -1 0 -1 -8 -5 3 -3
1532256974139900 -2 -2 -2 -3 -5 -6 -6 -1
1532256974161841 2 1 -2 1 -1 -4 -4 1
1532256974191760 -3 -4 -1 -2 3 2 5 -2
1532256974213702 -2 -1 -2 -2 -1 -2 -1 1
1532256974251602 1 -2 -2 -2 -6 -3 -1 0
1532256974289500 1 1 -1 -3 -1 -2 -2 0
1532256974311441 0 -1 -1 -1 1 -1 -2 -3
1532256974349340 -1 -1 -1 -2 0 0 -5 0
1532256974371282 0 0 -2 0 -3 -1 1 -1
1532256974401201 -1 -1 -1 -1 2 0 -1 -1
1532256974424139 0 -1 0 0 -2 -1 1 0
1532256974454060 -2 0 -1 -1 0 0 0 -3
1532256974483979 1 -1 -3 0 -3 1 5 0
1532256974521878 0 -2 -1 1 -3 -4 -6 0
1532256974551808 -1 0 -2 -1 -1 -1 -4 0
1532256974573739 -3 -4 1 -1 -5 -2 0 -1
1532256974596677 -1 -2 0 -1 -1 -4 -6 1
1532256974618620 -1 -1 -1 0 -1 -2 -4 -1
1532256974641564 0 -1 -3 -1 1 0 -1 -2
1532256974656518 -1 -2 0 -1 -1 0 4 -3
1532256974701411 -1 -1 0 -1 -2 1 -1 -3
1532256974739296 -1 -1 0 0 1 -1 -2 -2
1532256974769217 1 -2 -3 -3 -2 -1 3 2
1532256974814097 2 -2 0 1 0 -1 -4 1
1532256974858977 0 -1 -1 -1 -2 -3 0 1
1532256974903857 -2 0 -2 -2 -3 -1 0 -3
1532256974941757 1 -2 -1 -2 0 0 -3 -2
1532256974993619 0 -2 -1 -1 0 0 -2 1
1532256975039494 -2 -2 -1 0 -3 -1 -3 -2
1532256975099333 -2 -1 -1 -2 -1 0 -5 0
1532256975160172 0 -1 -2 0 -2 -1 -2 -6
1532256975181115 -2 -2 0 -1 -1 -3 -3 0
1532256975248934 -1 1 -2 -1 1 0 -2 -1
1532256975271873 0 -1 -2 -1 -1 1 10 -1
1532256975308774 -2 1 -2 -2 -2 -3 -1 -2
1532256975361633 0 0 0 1 1 -2 0 0
1532256975376593 -1 -2 -3 -2 -1 -2 -2 1
1532256975406512 -2 -1 -1 -2 -3 -1 0 -1
1532256975421473 0 0 0 0 1 0 -1 -2
1532256975474337 -2 -2 -2 0 -2 2 5 -1
1532256975511233 -1 -1 0 -1 -2 -1 3 -1
1532256975587030 0 0 -1 -1 1 -2 0 1
1532256975623931 0 -2 0 0 -3 -2 -2 1
1532256975638891 0 -1 0 0 1 0 -1 0
1532256975668811 0 -1 -3 -1 -1 -4 -5 2
1532256975700738 -1 -1 1 0 1 0 0 1
1532256975736630 0 -1 0 0 2 0 -1 -3
1532256975766549 2 -1 0 -1 1 -2 -7 -2
1532256975789489 -1 -1 -1 1 -1 1 -1 -1
1532256975804449 2 -1 -2 -1 -1 0 8 1
1532256975819409 -3 0 -1 -2 0 -2 -3 -4
1532256975841350 -3 -2 -2 -2 -1 -1 -3 0
1532256975864288 -1 -2 -2 -4 -4 -2 0 4
1532256975879248 -1 0 0 -3 -3 -2 -5 0
1532256975916149 -2 -1 0 1 0 -1 -5 -2
1532256975954049 -1 -3 -2 -1 -2 0 -2 -2
1532256975983968 -3 -1 0 0 2 1 0 0
1532256976043808 1 -1 0 0 -1 -2 -3 0
1532256976103649 0 0 -1 -2 0 -1 -1 3
1532256976194406 -1 -2 0 1 -1 -2 0 -1
1532256976216347 0 -1 0 1 1 1 -5 0
1532256976314086 -3 0 -3 -1 0 -2 2 -2
1532256976381904 -2 -2 -3 0 -3 -1 -4 -1
1532256976418811 1 -2 -1 -3 1 -2 1 0
1532256976433766 -2 -1 -2 0 -2 -3 -5 1
1532256976493606 -2 -3 -2 -1 0 3 4 -4
1532256976524523 -2 -3 0 -1 -1 0 1 -2
1532256976569403 -1 0 0 -1 0 0 0 0
1532256976593339 -1 0 -2 0 -3 -1 -2 -1
1532256976621265 -1 -1 -2 -3 -1 2 5 -1
1532256976651184 -2 0 -2 -1 -1 -1 -4 -1
1532256976681105 -1 1 -1 -3 0 3 4 -4
1532256976704043 1 0 -3 -3 -1 0 -2 0
1532256976741942 -1 -3 -1 -3 -1 -1 -4 -1
1532256976756902 0 -2 0 1 0 1 13 1
1532256976778843 0 -2 -1 -2 -1 0 0 0
1532256976793803 -1 -2 -1 0 -2 -1 -5 1
1532256976823723 -3 0 -3 -2 1 -2 1 0
1532256976838683 -1 0 -1 -2 -1 -1 1 -1
1532256976891542 1 0 -1 -3 -2 -1 -1 1
1532256976921461 -1 -2 -3 -1 -2 -1 -2 -2
1532256976959362 0 2 -1 -1 -1 0 -1 -1
1532256976974320 -1 -1 -1 1 1 0 -8 1
1532256977004241 1 -2 -2 0 0 -2 -1 1
1532256977034160 -2 -1 -2 -2 -1 0 -1 -1
1532256977072059 0 -1 0 -3 -2 -2 -2 0
1532256977094000 -1 -2 -1 -3 -3 -2 0 0
1532256977138880 -1 -1 1 -2 -2 1 -2 -4
1532256977198720 -1 0 -1 -1 -1 1 3 0
1532256977236619 0 0 -2 0 0 -1 -1 0
1532256977326379 1 -1 -2 0 0 -2 0 1
1532256977364277 -1 2 -2 1 0 0 -2 -4
1532256977380235 -1 -2 -1 -1 -2 -1 -5 0
1532256977439077 -2 -3 -1 -2 -3 -2 -3 -4
1532256977469002 -1 -2 -2 0 -1 -1 -2 1
1532256977528837 0 -2 0 0 0 -1 1 -2
1532256977543797 1 -1 -3 -2 -2 1 -1 -2
1532256977566735 -1 -2 -1 -1 0 0 0 -1
1532256977588677 -1 1 -2 1 -1 -8 2 0
1532256977620592 -1 -1 0 0 0 -3 -1 -3
1532256977641536 0 2 0 -1 -2 -2 6 -1
1532256977657494 -2 -2 -2 -1 0 0 0 0
1532256977686416 1 0 0 7 11 5 -2 -1
1532256977709355 -1 -2 -1 -5 -2 11 -2 0
1532256977724315 1 -3 -5 -11 2 8 3 0
1532256977746272 0 4 15 41 18 -7 4 2
1532256977769195 1 -2 -2 2 27 21 4 2
1532256977799114 -3 -6 -10 -13 11 -10 -5 -4
1532256977821056 -1 0 0 5 16 0 0 -1
1532256977866933 -2 -3 -1 6 -21 -32 -10 -5
1532256977896854 32 12 3 2 5 21 -2 -1
1532256977941748 -7 -3 -1 -4 -10 0 -9 3
1532256977956693 2 3 0 5 -7 -13 1 12
1532256977978634 16 11 1 1 2 -2 -4 0
1532256978024512 -22 -14 -8 -14 -17 6 -3 -8
1532256978054432 1 -13 0 4 -11 0 5 6
1532256978076373 16 -9 -4 -3 4 16 0 -5
1532256978106294 21 12 4 0 0 5 6 8
1532256978144195 -13 -9 -3 -2 -3 -17 -1 -7
1532256978159152 13 -29 -12 -7 -12 -17 -6 -3
1532256978212027 -18 -101 -19 -18 -8 -25 -5 -11
1532256978248912 11 49 3 -5 -10 -29 -36 -7
1532256978278848 -3 -13 -6 6 -37 -7 -5 0
1532256978323711 -1 15 7 -9 -3 -13 4 0
1532256978338672 2 -10 -3 -2 -15 -17 -4 1
1532256978451376 12 -13 -6 1 -3 8 -2 0
1532256978489269 7 -18 -5 -3 -9 -7 -12 1
1532256978579029 2 -6 -5 -3 1 2 -15 1
1532256978601967 -6 -1 -3 -3 7 -12 -3 -5
1532256978661808 9 0 5 -6 -7 -4 -4 -3
1532256978766528 0 -14 1 3 0 -5 5 4
1532256978826368 4 -4 0 0 14 6 -3 -4
1532256978901169 5 6 7 3 13 16 7 4
1532256979261205 7 -9 3 -1 -8 -22 -1 1
1532256979441722 -1 6 -4 -3 -1 -3 -10 -3
1532256979493583 4 -9 -22 -1 9 5 -5 1
1532256979539460 -2 -1 1 3 -6 2 1 0
1532256979621242 -7 -27 -6 -4 7 0 -13 1
1532256979726959 -9 -6 0 -3 -2 -3 -8 -4
1532256979989258 -1 -4 0 -2 0 -80 -1 -1
1532256980093978 5 3 7 2 5 -18 0 1
1532256980153818 -5 -4 -4 -10 -17 -5 14 -9
1532256980191717 -15 -4 -1 -4 -14 -19 -23 -34
1532256980228618 3 1 2 1 15 2 -2 -1
1532256980251556 -7 -6 -1 -1 1 0 -2 5
1532256980281477 -2 8 3 0 1 -4 -32 -6
1532256980356276 5 2 -5 -5 8 -1 -17 8
1532256980379215 -8 -8 -3 -1 -1 12 73 -25
1532256980433071 -4 18 -4 -7 -30 -9 -36 52
1532256980454015 6 -4 10 18 23 2 -33 11
1532256980485930 -14 2 2 18 -7 -5 5 -39
1532256980528815 4 -5 1 -1 34 14 11 7
1532256980558735 1 8 4 -7 -14 -3 -58 -18
1532256980603615 -4 -10 -1 7 12 9 5 -9
1532256980641514 -18 4 -10 10 21 -6 -22 -93
1532256980664452 5 -11 -18 -7 7 9 -42 27
1532256980754212 14 14 18 -5 0 4 10 13
1532256980858932 8 -7 -1 -12 -8 1 3 58
1532256980941716 2 -55 -53 6 -29 2 58 17
1532256980978612 -12 -26 -47 -18 -18 -3 -1 -31
1532256981009530 -7 -14 -36 1 6 8 17 6
1532256981039450 3 -3 20 4 22 2 47 15
1532256981114250 -5 14 15 4 23 13 -4 -34
1532256981144170 -2 -17 -19 -12 -17 -3 -9 -14
1532256981384526 -4 -5 0 -4 -3 8 9 0
1532256981429406 -2 0 2 -1 -5 40 -14 -4
1532256981489247 -1 1 3 -2 -15 7 12 -2
1532256981511188 -2 0 3 4 -1 29 37 1
1532256981579007 1 2 -2 -3 -1 14 -1 0
1532256981601946 1 -1 1 -2 6 2 1 0
1532256981616905 0 1 -2 -4 -7 -16 0 -1
1532256981713646 0 -2 -1 -8 9 -1 3 0
1532256981751554 -1 0 1 0 -5 1 -2 1
1532256981834324 0 -2 0 7 -2 -5 -4 3
1532256981991903 0 -1 -1 -1 0 -2 -3 -1
1532256982006863 -3 -1 0 -2 -2 3 5 -7
1532256982058724 -1 -1 -2 -2 -1 -2 -1 2
1532256982088643 -1 -1 -2 -2 -1 -3 -4 -1

1532256982149481 -1 0 0 1 -1 0 -2 0
1532256982171422 -1 1 -1 -4 2 -1 -1 -1
1532256982366899 0 2 1 1 1 0 2 2
1532256982418762 -9 -6 -3 2 -5 -8 -16 -37
1532256982539454 -1 -1 -1 4 -1 0 -1 -2
1532256982576352 -1 1 -2 0 -5 0 -1 -1
1532256982606267 1 -1 -2 2 0 -3 -2 0
1532256982651147 -2 -1 -3 -1 -1 -2 -3 -1
1532256982697024 0 0 1 0 4 -2 -1 -1
1532256982718969 0 0 -1 -2 -2 -3 -2 -2
1532256982808726 -2 0 -2 2 -1 0 -3 0
1532256982838646 -1 0 -1 1 4 0 -1 0
1532256982868566 -2 -2 -2 -5 -2 -1 0 -2
1532256982891505 0 -1 -2 -3 4 0 1 1
1532256982974284 -1 -2 0 -3 5 -3 -1 -2
1532256982996224 -2 0 1 -1 -5 0 -3 -1
1532256983019164 -1 1 0 -2 -1 -2 -2 -3
1532256983049114 -2 -2 -1 -3 0 -3 -2 -3
1532256983087013 -2 -2 -3 -3 -3 1 0 -1
1532256983116933 -4 -1 -1 -2 -7 0 -3 -1
1532256983153835 -2 -1 -1 2 -2 0 1 -2
1532256983168798 0 -2 -1 -2 6 0 0 0
1532256983213674 -2 -1 1 2 10 -1 -1 1
1532256983244591 -1 -1 0 -1 0 -2 -1 -2
1532256983266532 0 -1 -1 0 -7 0 1 -1
1532256983289471 -2 -2 -2 -3 -3 -2 -3 -1
1532256983311412 0 -4 0 0 -2 0 0 -1
1532256983334351 -1 1 1 6 -3 0 -1 -1
1532256983364278 -2 -2 -1 -2 -1 -2 -1 1
1532256983394196 1 -1 -3 -2 1 -1 0 -1
1532256983417133 -2 1 -1 -2 0 0 -2 -3
1532256983431092 -1 -3 -1 -2 -5 0 -1 0
1532256983454031 -1 -2 0 -1 -2 0 -1 -2
1532256983468991 0 -2 -1 3 2 -1 -1 -1
1532256983491930 -2 -1 -1 0 1 -1 0 1
1532256983513871 0 -1 -2 -5 -7 -1 -3 1
1532256983528831 -1 -2 0 1 -2 -2 0 0
1532256983566730 -3 -1 -2 -1 -1 0 -1 2
1532256983596649 -1 -1 -1 0 4 -1 -1 0
1532256983619600 -1 -2 0 1 -1 -1 -2 -1
1532256983641529 0 -1 0 0 0 -1 -1 -1
1532256983671450 -2 0 -1 -4 -13 4 -1 -1
1532256983694389 -1 -1 0 0 3 -1 1 -1
1532256983746249 -3 0 -1 -2 1 -1 -3 1
1532256983784148 1 -1 0 -1 0 -2 -3 -1
1532256983851966 1 0 -1 -2 -3 -1 0 0
1532256983903828 0 -1 0 0 -4 0 -1 0
1532256983918789 0 -2 0 -1 1 -2 -3 2
1532256983963668 0 -1 -1 -3 -2 -2 0 -3
1532256984024506 -4 -2 -2 -1 -1 -1 0 -2
1532256984054426 -2 0 0 -1 -1 0 -3 -2
1532256984076367 -3 -1 -2 1 6 -2 -2 0
1532256984114266 1 -1 -2 -2 -5 0 0 -1
1532256984129225 -1 -1 1 -1 -3 -4 1 -1
1532256984159146 -1 0 -3 -2 -5 0 -1 0
1532256984182084 1 -2 -1 -1 -5 -2 -1 3
1532256984227962 1 -1 0 -2 -3 2 -2 -1
1532256984248905 -2 -1 -1 1 -2 1 1 -2
1532256984340661 -1 -2 -2 -4 -5 -2 -6 0
1532256984391524 -1 -2 0 -1 -3 -2 0 -1
1532256984414463 -1 0 -1 3 0 -2 -1 1
1532256984511204 -2 -1 0 -2 -6 0 -2 1
1532256984526164 -3 0 -2 2 6 0 -2 -2
1532256984581018 1 -1 -1 -4 -5 0 -1 0
1532256984616922 -4 0 -1 3 2 -1 1 -3
1532256984668789 1 -2 -3 -3 -4 -1 0 1
1532256984728623 0 -2 -2 -2 2 1 -1 0
1532256984759540 -2 -2 -1 4 -5 -2 -1 -1
1532256984805417 1 -1 0 -1 -1 -1 2 0
1532256984834340 -1 -2 -2 -2 -1 -2 0 3
1532256984864260 -1 -1 0 -3 -2 0 -1 -1
1532256984894179 -2 0 0 1 2 -2 1 0
1532256984916122 -2 0 -2 1 -1 0 -3 1
1532256984939060 0 -3 0 -2 -3 -2 -2 1
1532256984954020 -2 -1 -2 -3 -6 0 1 -3
1532256984991923 -2 -2 -3 -2 -4 -2 -2 -1
1532256985013860 -1 0 -1 -2 -1 -2 0 1
1532256985028819 -2 -1 0 -1 -11 -2 -1 -1
1532256985058740 -1 0 -2 -4 -4 1 0 -1
1532256985118580 -4 -1 -2 -3 0 1 -1 -2
1532256985150495 0 -2 -2 -2 -2 -2 -2 -1
1532256985224297 0 0 -3 -1 -1 -1 -1 -1
1532256985254217 -1 -2 -3 -2 -1 0 1 0
1532256985276159 -1 -1 0 0 2 0 0 0
1532256985299097 1 0 0 0 -2 -1 -1 0
1532256985336996 1 -1 0 1 -1 -4 -1 -1
1532256985366916 -1 -2 0 0 1 -1 -1 -1
1532256985411796 0 -2 0 -1 -3 -2 -2 -1
1532256985426756 0 -1 -1 -2 0 -2 -4 -3
1532256985456676 -1 -1 -1 0 -2 0 2 -1
1532256985478617 -2 0 -1 -3 0 -1 0 0
1532256985516516 -1 -3 -2 2 -1 0 -1 -2
1532256985576356 -2 -1 -1 -5 0 0 -2 -2
1532256985682076 0 -1 -1 -5 -6 -3 -2 -1
1532256985711993 -1 0 -2 -5 -7 -2 1 0
1532256985756873 -2 -1 0 11 -16 -5 -2 -2
1532256985786793 7 2 1 -2 2 8 0 -1
1532256985808734 4 0 -2 -7 -8 3 0 -1
1532256985838655 -2 -1 -3 -1 4 4 1 1
1532256985914452 -2 1 -1 -3 -11 -4 -2 -1
1532256985936393 2 1 1 -3 -1 -1 -6 -2
1532256985981273 0 7 3 -3 0 17 6 4
1532256986079012 -18 -1 1 2 8 10 1 -8
1532256986161790 -7 12 2 -3 8 16 0 -2
1532256986371230 -5 -14 -2 -5 3 19 25 2
1532256986588649 -2 -6 -11 -2 -11 -5 3 0
1532256986641507 -5 16 9 3 -4 -1 4 1
1532256986694366 3 30 6 6 9 -7 1 2
1532256986836984 -5 -10 4 1 10 7 -2 -5
1532256987151145 3 -2 -3 -3 -3 2 2 0
1532256987384520 -5 -2 3 -3 -2 -10 -5 -4
1532256987444361 -4 7 -1 -3 -14 -5 -6 -5
1532256987721619 -1 -2 0 -1 -6 -12 0 -12
1532256987781467 -1 -1 0 1 -2 -12 -3 -6
1532256987931059 -9 0 0 2 27 -21 -21 -38
1532256987983917 -14 -5 0 2 -7 -5 -4 -30
1532256988073678 10 28 5 3 -26 -31 -62 -24
1532256988135514 3 13 -3 0 5 -7 21 -26
1532256988156456 -12 4 -7 -7 -5 3 5 -2
1532256988194355 -9 -34 -24 -4 -9 -12 3 -6
1532256988261176 7 12 3 1 31 10 38 -2
1532256988351934 -7 36 5 4 17 -7 6 -25
1532256988411775 -15 11 -17 -9 -17 -10 -9 -10
1532256988442691 -2 5 13 -1 10 4 29 14
1532256988516494 0 0 1 -15 -1 -6 -8 -59
1532256988591294 -26 13 43 6 -13 -4 -27 -16
1532256988667091 1 41 -25 -19 2 6 64 3
1532256988756851 -2 -23 -10 16 -42 -6 19 25
1532256988936371 -6 -15 3 0 1 12 6 -8
1532256988959309 -4 -19 -5 0 6 4 -5 3
1532256989034109 -2 -1 -2 1 -9 -29 16 2
1532256989110904 -2 -1 2 1 -3 -28 -9 -2
1532256989206648 -1 -1 1 0 1 6 -1 3
1532256989296408 -1 -1 0 0 3 1 -1 -2
1532256989311368 2 2 3 3 0 1 -2 -1
1532256989349267 -1 -2 -2 -3 5 -4 -1 0
1532256989371208 1 0 -1 0 -10 -5 0 -1
1532256989394147 1 1 -2 -5 -2 -4 -1 0
1532256989461974 -1 -1 0 -6 -9 2 0 -1
1532256989476925 -1 0 -4 -6 2 -2 -1 0
1532256989506845 -2 -1 -1 1 3 -2 0 -1
1532256989528787 -1 -2 0 -1 -4 0 0 0

1532256989551726 -1 -1 -2 2 10 -4 -3 -1
1532256989573667 -1 0 2 1 -4 -1 0 -1
1532256989596605 -3 -2 -2 2 -8 -2 0 -1
1532256989649464 -1 1 -1 3 0 1 -1 0
1532256989679384 -1 -1 -1 1 -2 -1 0 -2
1532256989724264 -1 -1 -3 -9 -6 -1 2 0
1532256989739223 -3 -1 0 -3 -5 -1 -2 -1
1532256989761165 0 -1 -2 0 -1 -2 0 -1
1532256989784103 0 -1 0 -2 -1 -1 -1 0
1532256989807043 -1 -2 0 3 -24 -3 -5 -2
1532256989836962 -1 -3 -1 -3 5 0 -1 -1
1532256989858904 0 -1 -1 -3 -5 -2 -1 0
1532256989881842 -1 0 0 -2 -1 -2 -2 -3
1532256989903784 -1 -2 -2 3 1 0 -1 -2
1532256989918745 -2 0 0 -7 5 2 0 0
1532256989933704 -1 -2 -2 -3 -4 -2 0 -2
1532256989948664 -1 -1 0 1 1 -1 0 -3
1532256989971603 -1 0 -1 -2 -1 -1 -2 -1
1532256990001538 -2 0 -1 -3 -3 -4 -1 0
1532256990016512 -1 -2 0 2 0 -3 -2 -2
1532256990046419 -2 -1 -1 -4 -3 -1 -2 -1
1532256990076338 -1 1 0 0 -3 -1 -3 0
1532256990091298 -2 -1 0 3 -6 -2 -4 -3
1532256990129197 0 -2 -2 -3 -4 -2 0 1
1532256990151146 1 -2 -2 -2 -1 -1 0 -1
1532256990166098 0 -2 -2 -1 0 -4 -1 0
1532256990203997 -1 -2 1 1 -12 1 -2 -1
1532256990218957 0 -1 1 1 5 -1 0 0
1532256990256856 -2 -1 -2 0 -1 -1 1 -3
1532256990286776 -1 -1 0 1 1 -2 -1 -2
1532256990353597 0 -2 -2 -2 -4 0 -1 -2
1532256990391496 -1 0 -1 -1 -3 0 -2 -1
1532256990414434 0 -1 0 0 -8 0 0 0
1532256990444354 -2 -1 0 0 4 -1 -3 0
1532256990466295 -1 -1 -2 -4 -9 0 -2 -3
1532256990481256 -1 1 1 0 3 0 0 1
1532256990519155 -1 -2 -1 1 -1 -3 -2 0
1532256990534115 0 -1 -2 -4 -3 -1 -1 -1
1532256990557053 -1 -2 -3 -3 1 -2 -1 -1
1532256990572013 -1 1 -1 -1 1 1 -1 0
1532256990586973 -2 -1 -1 -1 0 -1 -1 -1
1532256990608914 0 -2 -1 -2 3 -2 -1 -1
1532256990631853 -1 -1 1 5 -4 -1 0 -1
1532256990653794 -1 0 -2 -1 -4 -2 -1 -2
1532256990676733 -1 -1 -1 -4 1 -1 -1 -2
1532256990691693 -1 0 -1 0 -4 0 -1 -1
1532256990706653 -1 -1 0 -2 1 0 -1 -1
1532256990736573 0 -1 -1 -2 0 -1 -1 -1
1532256990751542 -1 -2 -2 -3 2 -2 1 0
1532256990796413 -2 0 -1 0 -1 0 0 -3
1532256990834327 1 -1 0 -3 -1 -2 0 -2
1532256990886173 -1 -1 -2 -1 0 -1 0 -2
1532256990909111 -1 -2 -3 -3 -6 0 -1 0
1532256990953991 -1 -1 0 2 0 0 2 1
1532256990968951 -1 -1 -1 2 0 0 -2 0
1532256991013831 0 0 -2 -3 -4 0 -1 -2
1532256991051730 0 -1 -2 -2 2 -1 -2 -1
1532256991073671 -1 -1 0 0 -1 1 -2 -2
1532256991126530 -1 -1 -2 0 -1 0 0 -1
1532256991164429 -1 -1 -1 1 0 0 -3 -1
1532256991186371 0 -1 -2 0 -1 0 0 -2
1532256991231250 0 1 -1 0 -1 -1 -1 0
1532256991278125 -1 0 -1 0 0 -2 -2 0
1532256991299068 -2 -2 -1 -1 -3 -3 -2 -1
1532256991336968 -2 -1 -2 -2 0 0 -1 -2
1532256991366887 0 0 -2 -1 -2 -1 -3 -1
1532256991411767 -4 -1 -1 -1 -2 -3 0 -2
1532256991441687 0 -1 -1 -1 -1 -1 0 -2
1532256991471607 0 0 0 -1 -1 -2 -1 0
1532256991509506 0 0 1 0 -1 1 -1 0
1532256991539426 0 -2 -3 -3 -1 -1 0 0
1532256991561367 -2 -2 -1 -2 0 -1 1 -2
1532256991584307 -2 1 -1 -2 -1 -1 -1 -1
1532256991599266 -3 -1 0 0 1 0 -1 -1
1532256991629186 1 -1 0 1 -1 -2 0 0
1532256991644146 -3 0 0 0 -2 0 -3 -1
1532256991674066 1 -1 -1 -1 -3 -2 1 0
1532256991697004 -2 -3 0 -1 -1 1 -1 -1
1532256991795741 -1 -1 -1 0 0 -2 0 -3
1532256991823666 -1 -1 -3 -2 -1 -2 1 0
1532256991891484 0 0 -1 0 -1 -3 -2 -1
1532256991914423 -1 0 -1 -1 -1 0 0 -2
1532256991936365 0 -2 -3 -1 -4 -1 -2 -1
1532256991951325 0 -1 0 0 0 -1 -3 0
1532256991966285 -1 -1 0 -3 -3 -2 -2 -1
1532256992011165 -2 0 0 -1 0 -1 -2 -1
1532256992034103 0 -1 -2 -1 -2 0 -1 -1
1532256992101922 -2 0 1 4 -1 -1 -3 -3
1532256992131841 0 -1 -1 -1 1 -2 -2 -2
1532256992183703 -2 -1 -2 -1 1 -1 -4 0
1532256992206642 -3 -1 -1 -4 -4 -1 1 2
1532256992228583 -1 -2 -2 -3 -4 -1 -2 -1
1532256992244540 0 1 0 -2 -1 -1 -3 -1
1532256992281442 -2 -1 -2 -1 -3 -2 2 1
1532256992304380 -1 -2 -1 1 0 -2 -2 1
1532256992326322 0 -3 -2 -1 -3 -1 -3 0
1532256992364220 -1 -2 -2 -2 -1 -1 -2 -1
1532256992386162 -1 -1 0 -3 0 1 3 -2
1532256992409100 0 -2 -1 -2 -1 -1 -2 -1
1532256992453980 1 1 -3 -2 -3 -2 -2 1
1532256992476919 -1 0 -2 0 -1 -2 -1 -3
1532256992521806 0 -1 -2 -3 -3 0 0 -3
1532256992566678 -2 -2 -1 -1 2 1 -2 -4
1532256992634499 0 -1 -1 -2 -1 -2 -1 -1
1532256992664418 1 0 -1 1 -2 -1 -1 0
1532256992694337 -2 -1 -1 -1 -1 -1 -1 -4
1532256992731239 -31 -4 0 -6 -13 2 -14 -10
1532256992761159 12 -2 3 12 11 5 -16 -4
1532256992799057 39 32 6 1 11 -25 -23 -16
1532256992828978 -29 -30 -3 -2 -4 2 4 11
1532256992858898 -23 16 -3 0 6 -12 -13 1
1532256992918738 26 39 9 4 -4 -9 -34 -3
1532256992941676 -4 -3 -3 -2 2 21 -7 -5
1532256992978578 19 0 -2 -2 -4 -2 4 8
1532256993024454 2 21 -4 -4 -1 2 -1 -1
1532256993069335 9 13 -1 -5 -8 -10 1 2
1532256993106236 -13 -7 -5 -5 2 2 0 -1
1532256993151121 19 -9 -3 -2 -8 -8 7 4
1532256993211953 -2 -29 -5 -7 -10 -9 -1 -5
1532256993256834 -18 -33 1 -1 1 28 0 -1
1532256993308695 -2 15 4 2 -1 -14 10 1
1532256993338615 4 -6 -7 1 11 7 1 0
1532256993429372 7 -17 -2 -1 -1 -4 2 2
1532256993444332 -9 3 -4 -5 -29 -27 -7 -4
1532256993466273 -3 -12 -3 8 14 17 2 5
1532256993489212 -5 -14 -4 -6 4 7 -5 -2
1532256993504172 7 6 -3 -2 -3 -23 2 -1
1532256993549051 -2 -5 1 3 6 -12 -7 -2
1532256993564012 -6 -15 1 4 -12 7 1 -2
1532256993646791 -3 -3 3 2 -4 0 0 1
1532256993713611 -8 -28 -6 -1 3 -10 -3 -4
1532256993841271 -4 0 0 4 21 -3 -1 0
1532256993886150 3 -12 -1 -4 -26 3 2 2
1532256993909092 -1 12 0 -1 8 -1 7 -1
1532256993939009 -2 -8 -4 1 4 -6 -3 -3
1532256993953969 6 -8 -1 1 -24 -6 -2 2
1532256993976908 -4 -2 -6 -3 6 -11 -1 0
1532256994021788 0 10 1 3 2 17 3 2
1532256994089607 2 2 2 -1 -3 6 1 -1
1532256994149446 -6 -49 -4 -4 -5 -1 2 -4
1532256994201309 -4 6 -1 -3 -6 -16 -17 -3
1532256994388821 0 -7 -10 2 4 0 -2 -2
1532256994441665 -3 -6 0 -1 0 -9 -6 -4
1532256994478566 4 15 4 -2 -2 -11 -7 -4
1532256994606225 -3 -4 -2 -2 -3 2 -7 -4
1532256994682022 -3 1 1 2 10 21 3 5
1532256994748844 0 -2 -3 -7 0 2 9 6
1532256994771782 -6 -4 -4 -2 6 -6 9 22
1532256994823649 -4 5 0 0 12 -7 2 13
1532256994884481 -5 0 -2 -10 -20 -7 -16 27
1532256994959281 0 -11 0 0 22 -6 4 24
1532256994989200 2 17 -2 -3 -1 -5 -15 7
1532256995011142 -21 6 -6 -16 -11 1 -4 -35
1532256995034082 0 -5 -4 -3 11 5 -5 -60
1532256995049041 -4 44 5 -5 -8 -1 2 7
1532256995093920 7 -12 -4 -6 10 9 28 9
1532256995131819 -18 -17 -8 -7 -2 9 4 -26
1532256995176700 6 8 -3 -3 -28 -4 16 19
1532256995191660 4 18 34 -3 -12 7 11 12
1532256995289406 12 21 -31 -8 -3 -6 6 36
1532256995311339 -28 2 -10 -16 -26 -3 -26 -58
1532256995491857 9 -40 -4 6 -15 -3 20 -14
1532256995551696 4 -42 -14 -16 -26 6 14 60
1532256995634476 0 -14 -22 -11 -9 -6 13 -13
1532256995739195 6 26 5 6 12 7 4 33
1532256995866854 -1 19 15 -1 -3 1 3 -1
1532256996024433 1 8 13 -3 -3 -2 28 -4
1532256996151095 2 1 -5 0 13 19 11 1
1532256996248832 1 1 -2 -2 4 -3 7 2
1532256996316650 0 -3 2 2 -18 -7 -2 -2
1532256996414390 -2 -3 -2 -5 -7 -1 -3 -2
1532256996490187 -2 -3 -2 0 9 0 -1 -7
1532256996571979 -1 -1 -1 -1 -1 -1 -1 -2

1532256996608870 -1 -2 0 6 4 0 0 -3
1532256996624045 -1 0 -5 -11 -42 -2 -3 0
1532256996661944 -2 -2 0 1 10 -2 -2 -2
1532256996683884 0 -1 1 4 15 3 0 1
1532256996706824 0 -1 -1 -3 -14 -4 -1 0
1532256996751704 0 -3 -3 -8 -16 -1 0 -1
1532256996781623 0 -1 -3 -1 -6 0 -2 2
1532256996796583 -1 -2 -2 -6 -4 -2 1 -3
1532256996834482 1 -1 -2 0 -9 1 -1 1
1532256996864403 0 -1 -2 -2 -12 -2 -2 -2
1532256996909282 -2 0 2 2 -3 -1 -1 -2
1532256996954162 -1 -1 -2 -8 -6 0 -2 1
1532256996999041 0 -1 -1 -3 5 0 0 -1
1532256997021980 0 -1 -2 -3 -11 0 0 -1
1532256997058882 -1 0 1 4 3 0 -1 -1
1532256997096781 -1 -1 -2 -3 1 0 -1 -1
1532256997118722 -2 -1 -3 -2 2 1 -2 -2
1532256997141661 -1 -1 -1 -1 3 -1 0 -1
1532256997171581 -1 -1 -1 -2 1 -1 -1 -1
1532256997194519 0 0 -1 -1 0 -3 -2 0
1532256997224439 -1 -1 -1 -1 1 0 2 -2
1532256997239399 0 -1 0 1 -1 -2 -2 -2
1532256997291260 -2 -1 -2 -3 -1 0 0 0
1532256997344119 1 -1 0 -3 3 -2 -1 0
1532256997382018 -1 -1 2 13 3 0 -3 -1
1532256997411938 -1 -2 0 0 -7 -2 0 -3
1532256997456818 -2 0 -1 -1 -4 0 1 0
1532256997486738 -1 -1 -2 -5 -5 -3 -1 1
1532256997508679 -1 -2 0 -1 -2 -2 1 -2
1532256997546578 -1 -1 0 2 -1 -2 -2 -2
1532256997599436 -2 -1 -2 -1 0 0 -2 -1
1532256997621377 0 -1 0 1 -1 -3 0 0
1532256997636338 0 -1 1 -1 -4 0 -3 0
1532256997711138 -1 -2 -1 -2 -1 -2 1 1
1532256997771975 -1 0 -1 -2 0 0 -1 -2
1532256997786935 -1 -2 -2 -2 -1 0 0 2
1532256997936535 0 -2 -2 -3 -3 2 -1 -2
1532256997974445 0 0 0 0 2 -2 0 -2
1532256998011334 0 -1 -2 -1 -13 -2 -2 0
1532256998146972 -1 -2 -1 -1 -3 -2 -2 0
1532256998266653 -2 -1 -3 -1 0 -1 1 -1
1532256998326492 -2 -1 -1 2 0 -1 0 0
1532256998364390 -2 -2 0 1 0 -2 0 -1
1532256998431212 -2 -1 -2 -10 -7 -2 0 -2
1532256998469111 0 0 -1 -2 -4 -3 -1 0
1532256998521970 1 -1 -2 1 5 -1 -2 0
1532256998596770 -2 0 -2 -3 -4 0 0 -1
1532256998641650 0 -1 0 1 1 -1 -2 0
1532256998694508 -1 -1 -1 1 0 -2 -2 0
1532256998746369 -1 -2 -1 -1 -16 -1 -1 -2
1532256998799228 -1 -1 -3 -3 -1 -2 0 -2
1532256998821170 -2 -2 -2 -1 -3 -2 -2 -2
1532256998844115 0 -2 -2 -1 1 1 -1 -2
1532256998896973 -1 0 -2 -4 -3 -1 -1 -2
1532256998948834 -2 1 0 -3 -11 -1 -1 -1
1532256998971773 0 0 -1 2 0 -1 -1 -3
1532256999031613 -1 -1 0 -1 -1 -1 -1 0
1532256999054570 -1 0 -2 0 3 -1 -2 -1
1532256999076493 -1 -2 -1 -1 -2 -1 0 -3
1532256999136334 -1 -2 -1 1 4 1 -1 -1
1532256999166254 -1 0 -1 2 1 0 -1 -2
1532256999212145 0 -1 -1 -3 -2 -1 0 -2
1532256999226101 -1 -2 1 8 4 0 0 1
1532256999249032 0 -2 -2 -5 0 -1 0 -1
1532256999293912 -2 0 0 -2 -3 -2 -2 -1
1532256999324829 -3 1 -1 -2 0 2 -1 -2
1532256999353752 -1 -1 -3 -2 -4 -1 -1 -1
1532256999383672 -1 -1 0 -3 1 0 0 1
1532256999398632 1 -1 0 1 1 -1 -2 -1
1532256999414590 0 -3 0 -1 1 0 0 -2
1532256999444509 -1 -1 -1 0 -4 -3 1 -1
1532256999466451 -2 0 -3 -3 -11 0 0 -2
1532256999489389 -1 -2 0 -1 -3 -1 -2 0
1532256999527291 0 -1 1 -1 2 0 0 0
1532256999564188 -1 1 -3 -2 0 -2 -2 -2
1532256999617057 -2 -1 -1 1 6 0 -2 -1
1532256999632008 1 0 -1 -1 -3 -1 -2 -1
1532256999653949 -2 -1 -1 2 -5 -2 0 -1
1532256999713789 -4 0 -1 0 5 -1 -1 -1
1532256999736727 -1 -1 -2 -3 -2 -2 0 -1
1532256999826488 -3 -1 -2 -4 14 -2 -1 -1
1532256999879346 -3 -1 -2 -1 -4 -3 -2 -1
1532256999916248 0 -2 -2 -6 -9 -3 1 1
1532256999969106 0 -1 -1 -2 -1 -1 0 2
1532257000021965 -2 -2 -2 -2 6 2 0 -1
1532257000043907 -1 -3 -2 -4 -2 -2 -1 0
1532257000081805 -2 -2 -2 -2 -1 -1 -1 -2
1532257000103746 -2 0 -3 -5 -2 0 0 2
1532257000133666 1 0 -1 0 -3 0 -1 -2
1532257000156605 0 1 0 -2 -5 -1 -1 0
1532257000186525 -2 -2 -2 -3 1 1 0 1
1532257000216445 -1 -1 -2 -1 0 1 -1 -3
1532257000246365 -1 0 -1 1 1 0 0 0
1532257000306205 1 -1 -1 0 0 0 -1 1
1532257000329143 -2 0 -1 0 -2 -2 -2 -5
1532257000359063 -1 1 -1 -1 0 -1 -3 -3
1532257000396962 -2 0 1 -2 -3 -3 -1 0
1532257000448823 -2 -1 -1 -3 -11 -2 -2 0
1532257000471763 -1 -1 -1 -3 -3 -1 -1 -1
1532257000516642 -3 0 1 -2 -2 -1 -3 -3
1532257000554541 0 -1 -1 1 4 2 0 -1
1532257000591453 1 0 0 1 -6 -2 0 0
1532257000606402 -1 -3 -3 -6 -4 -1 -2 -1
1532257000621362 -1 -2 0 -3 -10 0 -2 2
1532257000659261 -1 0 -2 4 8 -2 -2 2
1532257000696162 -1 -1 -2 -6 6 0 -1 -1
1532257000741042 -2 -3 0 -3 -6 1 -1 -2
1532257000778940 0 -1 -5 -8 6 -1 -1 -4
1532257000793900 0 -1 -3 0 -16 -5 -1 -5
1532257000823821 -2 -1 1 2 13 2 -2 -2
1532257000838780 0 0 1 1 -10 -5 -6 -2
1532257000876679 8 10 5 5 0 3 0 -1
1532257000921559 -5 -15 -5 0 -2 -1 -7 5
1532257000966439 19 2 -1 2 -2 -7 -1 0
1532257001011319 13 2 -2 -2 3 17 -3 8
1532257001041239 4 -13 -1 16 1 -10 -12 0
1532257001153938 4 23 6 -4 5 -20 5 2
1532257001371356 16 11 3 -4 4 -6 -7 -2
1532257001513974 -2 -1 0 -3 -18 4 3 0
1532257001558855 -4 -3 1 2 8 1 15 1
1532257001581794 14 12 -2 -7 -12 5 3 2
1532257001634669 -2 -13 1 -1 -17 -1 6 -3
1532257001663575 -6 11 2 2 4 -1 -4 0
1532257001724412 8 -17 -5 -7 -2 2 -1 2
1532257001739372 0 2 2 0 -17 6 15 3
1532257001761314 -2 -9 2 5 11 17 19 6
1532257001933852 -4 -9 -1 -3 -4 3 7 -2
1532257002136311 15 -2 0 3 1 0 4 0
1532257002159249 5 11 -1 -1 5 4 -4 2
1532257002234073 -1 -2 0 -4 7 -2 -4 -2
1532257002278930 -4 -2 -5 -5 -2 -8 -23 -5
1532257002414567 2 -13 -6 1 14 1 0 2
1532257002556188 0 -1 1 -2 -2 -2 -2 -1
1532257002766647 7 1 0 0 0 2 4 13
1532257002819506 -6 -1 -5 -3 1 17 -8 -13
1532257002931207 -5 -1 1 1 2 1 -7 -7
1532257003246365 -2 0 -1 -2 -2 6 -4 -12
1532257003291245 -2 -2 -5 4 36 2 0 7
1532257003344117 0 2 1 3 21 14 27 29
1532257003374022 3 3 0 -4 -14 -16 -8 1
1532257003411922 0 5 1 2 -1 -6 7 -11
1532257003449821 -3 3 -2 1 3 27 6 -17
1532257003463783 1 -1 2 2 4 11 -24 10
1532257003486722 -1 -15 -11 -3 -9 -5 -9 -22
1532257003508663 1 8 4 -2 6 -7 -1 14
1532257003524628 -9 -6 -8 -9 10 -10 -54 -5
1532257003561522 10 11 4 4 -16 -2 -6 18
1532257003591442 0 -7 -3 8 7 9 26 -32
1532257003629352 15 -32 0 4 -4 4 43 29
1532257003651282 -4 7 -2 2 -1 1 -9 -3
1532257003683196 -14 -33 -3 -1 -9 -7 2 11
1532257003727096 -29 -23 -8 -3 -16 -4 -8 -33
1532257003749020 5 17 5 2 23 5 -28 39
1532257003778940 5 5 1 -4 -8 2 5 17
1532257003808860 6 12 5 6 23 6 5 -46
1532257003853740 -17 -1 5 0 5 -7 -5 -18
1532257003891640 -1 8 -14 -16 -15 4 -16 -11
1532257003914578 -2 -16 -3 -6 12 -8 -63 9
1532257003944498 -23 -4 4 -3 5 11 -63 -22
1532257003966439 -14 -33 -10 -4 15 4 12 4
1532257004005335 19 47 28 -7 2 10 24 21
1532257004041239 -3 -6 -31 -9 8 7 16 -34
1532257004117036 -6 25 35 -18 -33 -7 -30 -50
1532257004153938 7 -13 11 -2 69 5 48 1
1532257004288578 3 -29 -51 7 4 -15 -9 -15
1532257004349415 -4 9 63 6 -4 9 -7 -11
1532257004536913 6 31 -6 -11 -2 7 15 -14
1532257004648615 -3 0 -17 3 1 0 -50 4
1532257004701474 1 -1 -4 -3 -7 -7 -44 -2
1532257004739372 1 2 -2 -1 -4 -28 -2 -3
1532257004761313 -3 -1 -3 -2 -1 5 31 -2
1532257004784252 -2 -3 -2 -1 1 2 -47 0
1532257004799212 1 -6 -3 -4 -2 -1 -24 -3
1532257004814172 -2 -4 -3 7 3 -5 -9 -1
1532257004836113 2 2 -1 2 4 -16 5 1
1532257004852071 1 -2 1 -3 -4 2 -2 1
1532257004911911 -1 1 -1 11 1 0 3 -2
1532257004933852 0 -1 -7 -20 -12 13 0 3
1532257004963772 -4 -4 -2 -9 -3 -12 9 -2
1532257005016631 -2 -3 -3 -8 -6 -17 -5 -1
1532257005031591 -2 3 -3 2 0 -4 23 0
1532257005061510 0 -4 -4 -6 -6 8 -5 -6
1532257005091430 2 3 1 7 15 -3 0 2
1532257005136311 -1 0 3 2 12 11 7 4
1532257005181191 -3 -3 -1 1 3 0 -2 -3
1532257005204129 1 -1 0 2 1 -11 -6 -2
1532257005242028 -1 -3 -2 -2 -2 -3 -5 0
1532257005286908 -1 1 -2 -1 -2 -1 -1 0
1532257005354727 -2 -4 -1 -1 -4 0 0 0

1532257005414579 0 -1 -1 0 1 -1 1 0
1532257005429527 0 -1 0 -4 2 1 3 -2
1532257005459446 0 -1 0 -6 0 -3 1 0
1532257005474407 0 0 0 -3 -4 0 -1 0
1532257005511308 -2 -2 -1 2 1 2 1 -2
1532257005541228 -3 -3 -3 -3 -1 0 -1 -2
1532257005564167 -1 -1 -2 -1 -1 -2 -1 -3
1532257005617024 -1 -1 -2 -2 -1 0 0 -2
1532257005668887 0 0 -2 -1 -2 -1 -2 -2
1532257005683858 -1 -2 -3 -1 0 -1 -1 -1
1532257005721745 0 0 -1 1 -1 -2 -2 0
1532257005736705 -1 -2 -2 -1 -2 -1 -1 1
1532257005766625 -3 -1 -2 0 0 -1 -2 0
1532257005804523 0 -2 -1 -1 -1 -2 0 -2
1532257005819484 -1 -2 -1 -3 -2 -2 -1 -1
1532257005864363 -2 0 -1 -2 -1 -1 -2 -2
1532257005901265 1 -2 -2 0 -1 -2 -2 1
1532257005946152 -2 -2 0 -1 -1 0 -2 2
1532257005984050 -1 -1 0 0 -2 -1 -2 -1
1532257006036909 0 -1 0 0 -2 -1 -2 0
1532257006058850 -1 -1 0 -1 -2 -3 -2 -2
1532257006133650 1 1 0 1 -2 -1 -1 -1
1532257006171549 -2 -1 -2 -1 -2 0 -2 -1
1532257006239368 2 -2 0 1 -2 0 0 -1
1532257006254328 -1 -1 0 -1 -2 -1 -1 -1
1532257006344094 -2 0 -1 -1 -3 -1 0 -1
1532257006426873 -2 -1 1 -1 -1 -1 0 -1
1532257006539555 0 1 0 0 0 0 -1 -1
1532257006569475 -1 -3 -2 -1 -1 -2 1 0
1532257006591417 0 -1 0 -1 -2 -1 -1 0
1532257006636296 1 -1 0 0 -2 0 -3 -1
1532257006651256 -1 -1 -1 -1 -3 -1 -1 -2
1532257006704115 1 -1 -1 0 0 -3 -1 1
1532257006756974 -1 0 -1 0 -1 1 -1 -2
1532257006793875 -2 -2 -3 -2 -3 -1 0 1
1532257006838755 -1 0 -2 0 -1 -2 -2 0
1532257006853715 -2 0 -2 -1 -2 -2 -2 -2
1532257006884633 0 -1 -2 -1 0 0 -1 -1
1532257006921534 1 0 -2 -3 -2 -1 0 -1
1532257006944473 0 -2 0 -1 -2 -3 -1 0
1532257006974393 0 0 -2 0 -1 -1 0 -1
1532257006996334 -2 -2 1 0 -2 -1 0 0
1532257007011294 0 -2 1 -2 -1 -2 0 -1
1532257007034233 0 -1 1 -1 -1 -1 -1 -1
1532257007049192 -1 0 -1 -1 0 0 -2 -3
1532257007079113 -1 -2 -1 -2 -1 -1 -1 1
1532257007109033 0 -1 -2 -1 -1 -1 -1 -2
1532257007123992 -1 -2 1 -2 -1 0 -2 -1
1532257007153913 -1 -1 -2 -1 0 -4 -1 1
1532257007183832 -1 0 0 -2 -1 -1 -2 1
1532257007243672 0 -1 -1 -1 -1 0 -2 -2
1532257007258632 -2 -1 0 -1 0 -2 -1 0
1532257007311491 -1 -2 -1 1 0 0 -3 -1
1532257007349390 -2 -1 1 -2 -1 -2 -4 -2
1532257007386291 -1 0 -3 1 -2 -1 0 -2
1532257007409230 -1 -1 -3 -1 -2 -1 -2 -1
1532257007431171 0 0 -2 0 -1 -3 -2 -1
1532257007446131 0 -1 -1 0 -3 1 -1 0
1532257007492008 -3 0 0 1 0 0 0 -2
1532257007521928 -3 0 -3 -1 -3 0 -2 -1
1532257007573789 0 -2 0 -1 0 0 -1 0
1532257007612695 0 -1 0 -2 0 -1 -1 0
1532257007656568 1 -1 -2 1 -2 0 -3 0
1532257007679507 1 -1 -2 -2 1 -2 -2 1
1532257007694470 -1 -1 0 0 0 0 2 -1
1532257007724386 -1 -2 0 0 -1 1 -1 -1
1532257007769273 -1 -1 0 -1 0 -1 -2 -1
1532257007799187 -1 0 -2 -1 -1 -2 0 -1
1532257007852046 -1 -1 1 1 1 -2 -3 -5
1532257007903907 -2 -2 -1 -3 0 -3 0 0
1532257007926846 -2 -1 -3 -2 -3 -2 -1 -3
1532257007986685 -3 0 -1 -2 0 -2 0 -1
1532257008031565 -1 0 -1 -2 -1 1 -2 -3
1532257008061486 -1 1 0 0 -1 -2 1 -1
1532257008138280 -1 -1 -1 -1 -2 -1 -2 0
1532257008168200 0 -2 -1 -1 0 0 2 0
1532257008181166 2 0 -3 1 -1 0 3 0
1532257008263944 0 -2 -1 -3 -1 0 -2 1
1532257008278904 1 -1 -2 2 -1 -1 -3 -2
1532257008331763 -1 -1 -1 0 -3 -2 -1 -3
1532257008361683 0 0 -2 -1 -1 -2 1 0
1532257008436482 -1 0 -2 -1 -1 0 -2 -3
1532257008459421 -1 -1 -2 -1 -2 0 -2 0
1532257008481363 0 -2 0 0 -2 -2 -2 -1
1532257008534222 0 -2 -1 -1 -1 0 0 -3
1532257008587085 -1 -1 -2 -1 -2 1 1 0
1532257008631960 -1 -1 -3 -3 1 -2 -1 1
1532257008676839 1 -1 -1 0 1 0 -2 -2
1532257008721720 -2 -3 -1 -2 -3 -1 -1 -1
1532257008789545 -2 -1 -1 0 -1 -1 -1 -1
1532257008841400 -2 -2 0 -1 -1 -2 0 0
1532257008894258 -1 1 -1 -2 -2 0 -3 1
1532257008924178 -2 -1 -1 -2 -2 -2 2 0
1532257008954098 -1 -2 -2 -2 -2 -1 -2 0
1532257008998979 -1 0 -2 -1 0 -1 0 -3
1532257009051838 -1 1 -1 0 -2 1 3 0
1532257009088738 -2 -3 -1 -1 -1 -1 -4 -1
1532257009126638 0 -2 -1 -2 -2 -1 -2 -3
1532257009149588 -1 0 0 -1 -1 -3 -2 -2
1532257009171517 -1 -1 -2 0 -2 -3 -2 -4
1532257009201446 -1 0 0 -3 -2 -1 -1 2
1532257009239335 -1 0 0 0 0 -1 -1 0
1532257009276237 -3 -2 -1 -4 -1 0 -1 1
1532257009336079 0 0 -1 1 1 1 -1 0
1532257009388936 0 0 -3 -7 -1 0 -1 0
1532257009441794 2 -3 -4 -9 4 5 8 0
1532257009516595 17 9 5 -2 1 18 9 15
1532257010011272 -38 1 10 3 -16 1 -13 -12
1532257010146917 -3 -34 -5 -10 4 6 7 2
1532257010258610 -1 7 -1 0 25 9 1 -3
1532257010416189 16 -3 -3 -3 8 -2 12 3
1532257010724365 2 34 -3 -4 21 2 -7 0
1532257010739325 -4 -5 -1 1 -3 5 -6 0
1532257010761265 5 -7 -1 0 -4 -2 4 1
1532257010814125 2 3 3 1 7 12 8 1
1532257010844045 -8 -23 -5 -6 2 -15 -10 -8
1532257010896903 17 -4 3 9 27 40 20 8
1532257010956744 -5 -16 0 0 -2 15 17 1
1532257011008605 -2 -3 -1 0 1 4 1 -3
1532257011031543 3 11 -3 0 -3 -36 0 -3
1532257011144242 1 -4 11 0 -8 -46 2 -1
1532257011174162 1 -4 -10 3 -3 -37 10 -5
1532257011227020 -4 0 -7 -10 5 -1 -3 -3
1532257011256941 0 14 41 -1 -7 -20 -5 -10
1532257011361660 2 2 3 2 -26 5 7 0
1532257011459399 4 2 2 5 -11 -9 -2 7
1532257011504279 0 2 -2 -11 7 -5 -2 6
1532257011557150 0 -3 0 -1 -5 7 0 3
1532257011646898 -4 -5 -4 -3 -8 -9 -27 -20
1532257011676818 -14 -6 -3 -3 -5 -4 -13 -64
1532257011773559 11 -4 -5 -4 2 6 34 15
1532257011812455 11 5 1 -8 -3 7 23 69
1532257011849356 -8 -7 0 3 -3 -7 5 10
1532257011903212 4 -29 1 -4 -27 -9 -42 7
1532257011924156 5 8 4 4 -11 -2 -5 -9
1532257012021895 -16 -3 -1 -7 14 -4 -22 11
1532257012088716 23 -6 -3 5 2 10 -10 -9
1532257012118637 -20 -22 -28 6 16 -4 -84 -21
1532257012141579 17 43 6 10 22 5 -18 20
1532257012156535 1 -28 -18 1 20 -3 7 51
1532257012179474 5 5 -6 15 10 0 18 -26
1532257012216375 4 -2 12 -6 -9 5 -30 -15
1532257012239314 -33 -51 -13 -13 -31 -10 17 -69
1532257012284194 15 -13 15 22 30 -3 7 41
1532257012306135 -15 24 47 5 -53 4 -24 -28
1532257012418834 0 -7 -35 -19 9 4 28 2
1532257012569431 -13 -15 20 -1 -4 1 35 -32
1532257012606332 6 -23 4 -15 -69 -13 10 16
1532257012741970 -3 0 3 -1 -5 1 -10 -2
1532257012756929 -3 -6 -2 -3 -2 41 3 5
1532257012831729 -1 1 -1 -2 1 -4 0 2
1532257012861649 -2 -3 -2 4 -18 -1 -1 -4
1532257012899548 -1 0 -2 -4 5 2 -4 -7
1532257012951410 -2 -2 -1 -5 13 8 2 2
1532257012974348 0 -2 -3 -1 -10 -1 -7 0
1532257013026209 -2 -1 -2 -16 -17 -2 -2 -1
1532257013064108 -1 1 2 2 -2 -1 -3 -4
1532257013123948 1 0 -1 7 -2 -4 0 1
1532257013138908 -1 -2 -2 -6 6 0 -2 -2
1532257013168829 -3 -2 0 -3 -3 -2 -2 -1
1532257013207727 -2 -2 -3 -6 -12 -3 -3 -3
1532257013243628 -1 -1 2 2 12 2 -2 -1
1532257013258587 -3 0 -1 -5 4 0 1 -3

1532257013289505 0 -2 -1 2 -2 0 1 1
1532257013311447 -1 -1 0 0 7 0 -2 0
1532257013334385 1 -1 0 -3 -3 -1 -1 -1
1532257013386247 -2 1 -2 -10 -2 -5 -9 -3
1532257013409185 -2 -2 -1 -5 -12 -5 -2 -1
1532257013454065 0 -2 -3 -2 12 -8 -18 -7
1532257013477003 -2 0 -2 -5 -3 -2 6 0
1532257013513905 -2 -3 0 -2 -1 0 1 1
1532257013551806 0 0 0 -2 -6 -4 3 -2
1532257013588705 -2 1 0 0 2 -2 -2 1
1532257013641591 1 0 0 -6 -7 4 3 1
1532257013694423 0 2 -2 -6 1 2 5 -3
1532257013724342 -2 -2 -4 -3 -4 -1 -1 -2
1532257013739302 -1 -1 1 1 0 2 6 0
1532257013761244 1 0 -1 1 1 -3 -7 -2
1532257013799143 -2 -2 -1 -4 -4 1 2 1
1532257013822081 0 0 -1 1 0 0 -1 -2
1532257013837041 1 -2 0 -2 -3 -1 0 0
1532257013881921 -2 -1 -2 0 1 0 -3 -3
1532257013926801 -2 -2 -1 0 -4 -1 -1 0
1532257013956721 -1 -1 -1 1 1 0 0 -1
1532257013972679 -2 -3 0 -2 -2 -1 -1 -1
1532257013993622 0 -2 -1 -1 0 -1 -1 -1
1532257014024556 -4 0 0 0 -1 1 2 -4
1532257014091360 -2 -3 0 0 -1 0 -1 -1
1532257014129260 0 0 -3 -1 -2 -2 -1 1
1532257014166161 -1 1 -1 1 0 -2 -1 0
1532257014196081 -2 -1 -1 0 -2 -3 -2 0
1532257014219020 0 -2 -1 -2 -1 -2 1 1
1532257014278860 0 -2 -1 0 0 -2 -1 0
1532257014323739 -1 -2 -2 -3 -2 0 -2 -1
1532257014384580 0 -1 0 0 -2 0 -1 0
1532257014414497 1 -1 -1 -2 -1 -2 -1 1
1532257014444417 0 0 0 -2 -1 -2 -1 -1
1532257014526198 -1 -2 1 -1 0 -2 -1 0
1532257014564096 0 -1 0 -2 -2 -2 -1 -2
1532257014608977 0 -1 0 -2 -1 1 -2 -2
1532257014661835 1 -1 0 0 1 0 -3 -1
1532257014759573 -1 -2 -2 -2 1 -1 -1 -1
1532257014804464 1 0 0 -2 -1 0 -3 -2
1532257014826395 -2 -1 -1 -1 -1 -1 -3 -2
1532257014856315 0 -2 -2 -1 -1 -1 -2 -3
1532257014879254 0 -2 0 -1 -2 -2 1 -1
1532257014894214 -2 0 -1 -1 -1 2 -1 0
1532257014954055 0 -1 -2 0 2 -1 -4 -2
1532257014976993 2 -1 -1 0 -1 -3 -1 -1
1532257015021872 -1 0 -1 -2 -2 -2 -1 0
1532257015073733 -1 -1 -1 -2 0 -1 0 -1
1532257015111633 1 -1 -1 0 -1 -1 -3 0
1532257015156513 -2 0 1 -2 -2 2 0 -2
1532257015179451 0 0 -1 -2 -1 -1 -1 -1
1532257015231313 -1 -2 -2 -6 -6 -2 0 -2
1532257015254251 1 3 2 5 6 -2 0 -1
1532257015306113 0 -1 -11 -12 2 -1 0 -1
1532257015381910 2 -25 -22 -16 -3 2 2 0
1532257015396870 3 13 28 31 18 6 9 4
1532257015418813 4 10 1 -10 2 1 13 5
1532257015501602 -2 -5 -6 -2 16 47 12 2
1532257015660166 -8 -3 -6 -7 -17 -55 -13 -6
1532257015681109 -10 -1 -3 -2 -37 -82 -23 -6
1532257015846723 0 0 0 -6 -36 -29 -17 1
1532257015884111 0 -1 -1 -3 3 3 9 5
1532257016011746 -2 -1 -4 2 0 3 5 2
1532257016063607 16 12 9 0 3 2 -9 4
1532257016079571 -7 -23 -9 -4 22 -36 -33 -10
1532257016139404 -8 -1 4 2 1 25 11 3
1532257016176344 -5 -4 -2 1 -6 -12 25 -5
1532257016304017 -2 2 -1 5 -2 -13 7 4
1532257016363857 -9 0 0 3 22 17 5 -2
1532257016439653 1 2 -3 -3 2 -21 1 -1
1532257016506488 -2 0 1 3 -1 -10 10 -1
1532257016566328 -2 1 -1 0 17 23 3 1
1532257016693986 -3 -1 1 1 -3 -1 0 -2
1532257016858546 -4 -2 -1 -1 -2 -1 -2 0
1532257016949303 0 -6 1 0 2 10 31 3
1532257016971245 -3 4 9 19 -17 -73 -31 -10
1532257017136802 -2 -3 -2 -3 2 0 0 3
1532257017203623 -1 0 -1 2 -2 5 4 -1
1532257017271442 -1 1 -1 -3 -1 4 1 0
1532257017324301 2 -1 -2 -1 -1 5 2 0
1532257017384141 2 0 1 0 0 -3 7 5
1532257017436999 1 -2 -1 -2 -2 3 6 3
1532257017496678 1 -2 -2 -2 1 0 7 0
1532257017534591 -1 -1 0 0 -1 -2 -3 -1
1532257017579360 -2 -2 0 0 -2 -4 -8 0
1532257017609280 -3 1 -1 -2 -1 -1 -1 1
1532257017661142 0 0 1 0 -3 -1 -6 0
1532257017774501 0 -1 -2 -2 0 -1 -1 -3
1532257017841323 -1 -1 -1 0 -1 -1 -4 1
1532257017901163 -2 -2 -1 -1 0 0 2 -1
1532257017917119 2 0 -1 -1 0 -1 -5 1
1532257017939073 -1 0 0 -1 -1 -1 -5 -3
1532257017962012 0 0 1 -1 -2 -4 -4 2
1532257017976972 0 -1 -1 0 -1 -3 0 2
1532257017991932 -1 0 -2 0 -4 -2 1 1
1532257018028834 -2 -2 -4 -3 0 0 2 -1
1532257018058754 1 -2 -1 -2 0 1 0 1
1532257018118594 0 -2 -1 0 -2 -2 -1 -2
1532257018156492 0 -1 0 -2 0 1 2 0
1532257018186412 2 0 -1 1 0 -1 0 -1
1532257018201383 -1 -2 -4 1 0 -2 0 -1
1532257018239271 -1 -2 0 -2 -1 -1 0 -2
1532257018269191 -1 -1 -1 -2 -1 -1 -4 -2
1532257018299111 -2 -1 0 -2 -2 1 -2 -3
1532257018314071 0 0 -1 -1 0 0 3 1
1532257018343991 0 -2 -1 -1 -1 -2 3 -1
1532257018366930 -2 -1 -2 -1 -1 0 -3 -1
1532257018388871 -1 -2 -3 0 1 -1 -1 -3
1532257018426769 0 -1 -1 0 0 -1 2 -3
1532257018441730 -1 -1 -1 -1 -1 -2 -7 -2
1532257018463671 -1 1 -2 0 -1 -1 1 -2
1532257018494588 -1 -2 -1 1 0 -1 1 0
1532257018509548 -2 -3 0 -1 -2 -2 -6 2
1532257018524509 -1 0 -3 -2 0 -2 -4 1
1532257018554428 -2 0 -1 0 -1 -1 -13 -6
1532257018576369 1 0 0 -2 0 2 8 1
1532257018599308 -3 -1 0 0 0 -2 -1 -1
1532257018629228 -1 1 -1 -2 -1 1 0 0
1532257018644188 -1 -2 -1 -1 -1 -1 -2 0
1532257018659154 1 -1 -1 -1 0 0 2 -1
1532257018674108 -2 0 -1 -2 -3 -3 -2 -1
1532257018712007 -2 -2 -2 -1 -3 1 3 -2
1532257018726967 1 0 0 -1 -1 0 0 -5
1532257018763868 -2 0 0 0 0 0 1 0
1532257018823708 -1 -2 -2 -1 -2 -2 0 0
1532257018876567 -3 -1 1 0 -1 -2 -3 0
1532257018891527 2 -1 -1 -2 1 1 -2 0
1532257018951366 0 -1 -2 -1 -1 -1 -1 -1
1532257019011207 0 0 0 0 -2 -1 3 3
1532257019036140 -1 0 0 0 0 -1 -1 -3
1532257019072044 2 -1 -1 -2 -2 -1 -3 2
1532257019101964 -4 -1 -3 -1 -1 -2 2 0
1532257019123906 0 -2 -2 -2 -2 -1 -4 3
1532257019153826 0 0 1 0 -1 1 5 -2
1532257019176764 -3 0 1 -1 -3 -3 -2 -2
1532257019213665 1 -1 -1 -2 -1 1 1 0
1532257019236604 -2 0 -3 -1 0 -1 0 -4
1532257019275500 4 -1 0 -1 -1 -1 1 4
1532257019304423 -4 -1 0 2 -2 -1 -2 -3
1532257019334343 -2 -1 -1 0 -2 -2 -3 -1
1532257019364263 0 -2 -2 -3 0 0 -1 0
1532257019386204 -2 -2 0 1 0 0 -1 -2
1532257019416124 -1 -2 -2 0 -1 -2 -1 -3
1532257019439062 -1 -1 0 1 0 0 -1 1
1532257019468983 -3 -1 -1 -1 -2 -1 2 0
1532257019491921 -1 -1 -1 -2 0 1 5 -2
1532257019506881 0 0 0 1 -1 0 -2 -2
1532257019566721 0 1 0 1 0 -2 -2 -3
1532257019581681 -1 -1 -1 -1 -1 -2 0 -2
1532257019611601 -2 0 -1 -1 -1 -2 -1 -1
1532257019641521 -1 -1 -2 -2 -2 0 -1 -8
1532257019656481 0 1 0 0 -2 -1 -6 1
1532257019671441 -2 -1 0 -3 0 -2 -5 -2
1532257019701373 0 0 -1 -1 -1 2 5 -1
1532257019731281 -3 -2 -2 0 -2 0 0 -2
1532257019754220 1 0 -2 -1 -2 -3 -1 1
1532257019769180 1 -1 -1 -1 -2 -2 -7 0
1532257019822039 -1 -2 -3 -2 -1 0 -1 -1
1532257019843980 -1 -2 -2 0 -1 -2 -5 -2
1532257019881878 -3 -2 -2 0 1 1 -1 2
1532257019896839 -1 1 -1 -2 -2 -4 -5 -3
1532257019926759 -2 0 -2 -1 0 -1 -1 0
1532257019956678 1 0 0 -1 -1 1 -1 -3
1532257019994580 -1 0 -1 -3 -1 -2 -3 -3
1532257020024497 0 0 0 -1 0 2 5 4
1532257020061398 -1 0 0 -1 -1 -4 -7 1
1532257020084337 0 -2 -1 -2 1 -3 -5 0
1532257020114257 -1 -1 -1 0 -1 1 8 0
1532257020144177 -1 -1 -3 -1 0 -2 -5 0
1532257020182079 0 -1 -1 1 0 0 -6 -2
1532257020197053 1 -4 -2 0 -3 -1 0 -3
1532257020218977 1 -1 -2 -2 -3 -1 -2 -1
1532257020256875 0 -1 0 -3 -1 -2 -1 0
1532257020286796 -2 0 -1 -2 -2 3 5 -4
1532257020323697 1 -1 -3 0 -1 -1 -3 -2
1532257020338657 -4 0 0 -1 -1 -1 0 -1
1532257020353617 -2 -2 0 -2 0 -2 -4 -2
1532257020384535 -1 -2 -1 -1 -1 0 -1 1
1532257020414454 -2 -1 0 -4 -20 -4 -3 -2
1532257020429414 -2 -2 -1 3 37 19 2 -3
1532257020451356 -2 -5 -7 -23 -8 -38 -12 -4
1532257020496236 1 -3 2 -2 -25 -46 3 3
1532257020519175 1 -1 5 4 -25 9 4 1
1532257020586993 5 -2 1 -1 -1 20 2 12
1532257020623894 4 5 0 -3 -33 -2 -2 -6
1532257020668774 14 10 0 2 -2 13 0 9
1532257020759532 46 67 8 1 1 30 7 28
1532257020774492 3 1 0 4 10 9 9 -6
1532257020841313 0 27 7 0 -7 -2 37 6
1532257020856273 74 101 8 -8 19 76 20 10
1532257021006870 -11 5 12 -1 4 -2 -1 -3
1532257021021830 -5 -7 -14 -5 3 -34 -16 -3
1532257021051750 -2 1 -1 0 -10 9 3 -3
1532257021119569 -10 -25 4 -2 -1 29 -11 -6
1532257021171430 -4 -33 -13 -1 3 -19 0 3
1532257021186390 17 20 -1 -4 17 -8 -7 1
1532257021231270 4 20 6 6 4 -3 -16 3
1532257021284129 -21 -23 -11 -6 -8 -7 -6 -3
1532257021336987 8 -3 -3 -10 -53 5 7 0
1532257021351948 -5 -3 2 1 7 -1 8 2
1532257021576347 -3 28 3 1 0 -12 5 -2
1532257021666107 -5 11 -5 -5 1 12 -9 -3
1532257021771824 -1 16 1 1 -1 -6 33 2
1532257021891505 3 0 -2 2 12 3 4 0
1532257021914443 -13 3 3 -1 -18 14 5 -1
1532257021959323 1 -9 0 -4 16 16 19 1
1532257022079003 -9 2 -2 -1 4 4 -2 -3
1532257022168775 -7 -14 -5 2 -2 -3 -2 -3
1532257022289448 0 -2 -2 -6 2 6 -1 3
1532257022409128 -1 -1 -2 -4 -12 -4 -6 -6
1532257022468968 -2 -1 6 -4 -14 2 -4 -7
1532257022551747 -2 0 1 -1 14 1 2 5
1532257022566706 3 2 1 11 -8 1 8 -15
1532257022611586 0 -5 -5 2 13 30 8 4
1532257022626546 2 -1 -1 2 10 -4 -9 2
1532257022671428 -3 -2 -4 -1 -2 2 -3 -14
1532257022731266 -3 -9 -5 -5 -8 -46 6 4
1532257022784136 3 0 2 3 8 -8 16 11
1532257022843966 -9 -3 1 3 5 11 15 -18
1532257022956664 -28 -4 -1 -3 -8 -19 -41 -31
1532257023001545 1 -18 -8 -6 -22 1 -14 20
1532257023024482 -10 -8 0 0 12 -2 2 -41
1532257023076344 2 -6 2 1 -7 -7 23 67
1532257023129202 4 -18 -7 -5 0 -25 -42 11
1532257023241901 -1 -4 -2 2 -7 -13 -18 -8
1532257023286781 13 12 1 4 7 18 -29 17
1532257023301742 15 14 5 4 11 12 31 59
1532257023338642 -4 -5 28 12 53 10 -23 -3
1532257023369559 -9 7 -29 -12 -21 12 17 -13
1532257023421421 1 14 14 -5 -14 -23 25 -5
1532257023459319 -2 39 5 -3 -9 -1 -73 -60
1532257023519160 -4 -35 -11 -3 -22 -2 -2 13
1532257023557058 -4 -23 -11 4 30 -7 -7 17
1532257023653800 -3 4 2 0 -27 -10 -20 9
1532257023668759 -41 -15 -16 -9 9 8 -25 -37
1532257023706658 21 1 -12 -8 -10 14 8 26
1532257023774477 -8 -26 4 -9 25 16 22 -14
1532257023796418 0 -12 -6 -1 -4 -18 47 -41
1532257023879196 -4 12 9 -6 -4 -13 -20 -15
1532257023983917 0 -9 -13 -6 2 -5 -4 -15
1532257024073676 2 27 6 4 0 3 -23 -8
1532257024103597 9 -2 0 1 1 -19 -108 0
1532257024254194 -1 2 -2 0 7 -33 9 -1
1532257024336973 5 8 -9 11 -11 -98 7 2
1532257024403800 -3 -1 -7 -5 0 -30 6 -2
1532257024426733 -1 0 0 -5 2 54 6 -2
1532257024463634 -4 -6 -4 -7 -26 -84 -42 -11
1532257024539431 1 0 -2 0 5 12 5 1
1532257024629191 0 0 -1 0 0 20 1 0
1532257024711970 0 -1 2 0 2 -7 8 1
1532257025183708 1 -1 -1 0 1 1 -2 0
1532257025198668 -2 0 -2 -1 -2 -4 -1 1
1532257025213629 -1 -1 -1 -2 -2 2 -3 -3
1532257025236567 -1 -1 -1 -1 -5 -2 -3 -2
1532257025251540 1 -2 -1 -3 1 15 -3 -1
1532257025266487 -1 -1 -2 -2 -1 -1 -1 -1
1532257025304386 0 -1 -3 -1 0 -1 0 0
1532257025349266 -1 0 -1 -1 0 -4 -3 1

1532257025409128 -3 0 -1 -3 0 -2 -1 -1
1532257025469153 0 -1 0 -1 0 -1 -2 -2
1532257025499072 -1 -2 -2 -1 0 0 -5 -2
1532257025523009 -1 -2 0 -1 0 -2 1 -1
1532257025543953 0 -1 -2 1 -1 -1 -2 0
1532257025573873 -3 0 -2 0 0 0 -2 0
1532257025605787 1 0 0 -1 0 0 0 -2
1532257025648673 2 -1 -1 -1 -1 -2 -1 -1
1532257025688579 -1 -1 -1 0 0 -2 -1 0
1532257025702093 -2 -1 -2 -2 -2 0 -1 2
1532257025717037 -1 0 1 -2 -1 -1 -1 0
1532257025776877 0 -1 -1 -1 1 1 0 -1
1532257025791837 -1 -3 -2 0 -1 -2 -1 0
1532257025813778 -1 0 -2 -3 -1 -1 -1 -2
1532257025873618 -1 -3 -3 0 -1 0 -1 -1
1532257025927474 -2 -2 -2 -1 -2 -2 -2 0
1532257026016236 -1 -3 -1 -1 -2 -2 1 -1
1532257026054135 2 -2 -2 -1 -1 -2 -2 -2
1532257026077074 -1 -1 -1 0 -4 -1 -5 -3
1532257026114973 -1 0 0 -1 -3 -1 -1 -1
1532257026151874 -1 -2 -3 -2 -1 0 -2 0
1532257026204733 -2 0 -2 -3 0 0 -1 -3
1532257026233655 -1 0 1 -2 1 0 -2 -1
1532257026286525 -1 -2 -1 1 0 -2 -2 -1
1532257026316451 -1 0 -1 -1 0 -2 -2 0
1532257026354349 -1 0 -2 -3 -1 1 0 -2
1532257026384270 1 -3 -1 1 -1 -1 1 -1
1532257026458658 -3 -3 0 0 -1 0 -1 -2
1532257026481596 -1 1 -2 0 -1 -1 -1 0
1532257026496556 1 -1 -1 -1 1 0 -1 -1
1532257026549415 0 -3 -1 -3 -1 -2 -2 0
1532257026564375 -2 -1 -1 0 -1 -1 2 0
1532257026594295 -3 1 0 -2 -1 0 1 0
1532257026616236 -2 0 -1 0 -1 -2 -4 2
1532257026631196 -1 -2 -1 0 -1 -3 0 -1
1532257026646156 0 -2 -3 0 0 0 -1 -1
1532257026700012 0 2 0 -1 -3 0 1 -2
1532257026713974 -3 -3 -2 -2 -2 0 0 -1
1532257026736913 -2 -2 0 0 -1 0 -1 0
1532257026781793 -2 -1 -1 -3 0 1 -3 -3
1532257026811713 0 -2 0 1 0 0 -2 -1
1532257026848615 0 -2 -2 -1 -2 -1 -2 1
1532257026901473 -1 0 -1 0 -2 0 5 -2
1532257026931578 -1 -2 -2 -1 1 -1 -1 -1
1532257026969477 -1 -2 -2 -2 0 0 -3 0
1532257026999398 -1 -3 -1 0 -1 -2 -4 -3
1532257027051259 0 -1 -1 0 -2 0 1 -2
1532257027068229 -1 -3 -1 0 -1 -1 -2 1
1532257027096139 -3 -2 -1 -1 -3 0 -2 -1
1532257027127056 1 0 -1 -1 -3 -1 -1 -3
1532257027156976 0 -1 -1 -2 0 -1 -2 -1
1532257027186895 -2 -3 -1 -2 -2 0 -3 -1
1532257027216816 -2 0 -1 -1 0 -2 -1 -2
1532257027231775 1 -2 -2 -1 0 -1 -1 -2
1532257027261696 -1 -1 -1 -1 1 2 0 0
1532257027291616 -1 -2 -2 -2 -3 1 -2 0
1532257027314554 0 0 -4 -2 1 23 2 0
1532257027329515 -2 -2 -2 -3 -4 -3 -1 -2
1532257027381375 -1 0 -9 0 1 5 -1 -2
1532257027404315 1 0 -1 1 8 -10 -7 0
1532257027486096 0 0 1 1 -3 -3 -7 -1
1532257027502054 -3 -3 -3 -1 -4 -3 1 0
1532257027538955 -2 -3 0 -1 -2 -15 4 -5
1532257027598809 1 -1 0 -1 -1 -5 -3 2
1532257027628714 1 -2 -1 -3 -1 -7 -2 0
1532257027651654 -2 -1 0 -1 1 -2 -1 -1
1532257027704512 0 -2 -3 -2 0 0 -5 -1
1532257027756378 1 1 0 -1 -2 -1 -3 -3
1532257027809232 -2 0 0 -1 -2 -1 -2 -1
1532257027846133 1 1 -2 -2 -3 -2 -6 -1
1532257027862106 -2 -1 0 -1 1 0 -2 0
1532257027884032 0 -2 -1 1 0 -3 -4 -1
1532257027958832 -2 -2 -1 -3 -2 0 4 1
1532257027981770 0 0 -1 -2 1 2 3 -1
1532257028018672 -2 -3 0 -1 0 -1 1 0
1532257028071530 -1 -1 -1 -3 -2 0 1 0
1532257028116411 1 -2 0 -2 -2 0 7 0
1532257028147328 0 -1 -2 -1 -2 -2 -2 -2
1532257028206188 0 -2 -3 0 -1 -2 2 -1
1532257028253062 0 -2 -1 -1 -2 -1 3 0
1532257028303926 0 -2 -2 1 0 -2 -3 -2
1532257028348806 -2 0 -1 0 0 -1 -1 1
1532257028387713 0 -2 -1 -1 -2 -2 -2 -1
1532257028439564 0 0 -1 -2 -2 -1 -3 -1
1532257028476465 0 -1 0 -2 1 -1 0 -1
1532257028514364 1 -1 1 -1 -3 0 -1 0
1532257028544284 0 -1 -1 -2 -2 -3 -2 -2
1532257028574204 7 -3 0 -1 -2 -3 -5 4
1532257028596145 -3 -2 -1 0 1 1 -2 -5
1532257028649019 1 -1 -1 -2 0 -4 -7 -4
1532257028671942 16 -2 -2 -1 -1 0 1 -2
1532257028738763 0 -1 -3 -1 -1 -1 -1 1
1532257028754721 -1 -1 0 0 -1 -2 -1 -1
1532257028806582 1 0 -1 0 0 -2 -2 2
1532257028821542 -3 -1 0 -1 -1 0 0 -2
1532257028851463 -2 0 -3 -2 -1 -1 -3 -1
1532257028881382 -1 -1 0 1 1 -1 0 -2
1532257028896342 -1 -2 0 -1 -2 -3 -4 -2
1532257028919281 1 -2 -1 0 -2 0 0 1
1532257028941222 -1 -1 -2 -1 -1 -1 0 1
1532257028956182 -1 0 -2 0 0 -3 -3 1
1532257028972139 -1 -1 0 0 -1 4 0 -5
1532257028994081 -1 0 -1 -3 -1 1 1 -3
1532257029009041 0 -1 -3 -3 -1 -3 -4 1
1532257029031979 -1 1 0 -1 -3 -1 1 2
1532257029061900 -1 0 -2 -3 0 -2 1 2
1532257029113760 -3 0 1 1 1 -1 5 1
1532257029136700 -2 -1 -1 -1 -1 0 -4 -3
1532257029196540 -1 -1 0 -1 0 1 -2 0
1532257029211499 10 -1 -1 -2 -1 2 1 -1
1532257029264358 1 -1 -2 -2 -1 -4 -8 -1
1532257029301259 8 -2 -1 0 -1 0 3 0
1532257029384038 -2 -1 0 0 -1 -1 -2 -3
1532257029398998 -10 -2 -2 1 -1 -3 -1 -6
1532257029428918 -8 -1 -1 1 -2 -1 -5 -1
1532257029458837 2 1 -2 -1 -1 -1 8 1
1532257029488758 4 -3 0 0 -3 0 0 0
1532257029511697 1 0 -1 -2 -1 2 1 1
1532257029533638 2 -1 -2 -1 -1 0 -1 1
1532257029571537 -1 -1 -1 0 0 1 2 0
1532257029624395 0 -2 -3 -2 -3 -1 -2 -3
1532257029654322 0 -2 -3 0 0 -2 -2 -1
1532257029691223 1 0 1 -7 16 13 1 -1
1532257029714162 -2 0 -2 -3 -11 3 2 1
1532257029752060 -1 -2 -1 1 3 -1 -7 -3
1532257029774002 -1 -1 -1 -8 14 -14 -5 -1
1532257029833842 -1 -4 -2 5 11 1 -2 -2
1532257029878721 -3 -1 4 2 2 21 4 5
1532257029946540 10 0 -2 -2 2 10 12 27
1532257029961500 -52 -51 -5 2 -1 -28 -10 -17
1532257030014358 -8 13 -4 2 -27 -28 -19 -2
1532257030104140 -8 2 1 -5 -9 -27 -8 0
1532257030238780 3 -77 -27 -2 5 15 30 15
1532257030329537 16 29 2 0 -6 -2 0 3
1532257030426279 0 -9 -14 -5 3 0 -3 -1
1532257030450215 -19 35 7 -3 -7 -35 -31 -12
1532257030517037 8 3 -14 -8 9 11 11 2
1532257030561916 -7 -13 -13 -8 2 1 -31 -4
1532257030786317 0 3 0 1 6 14 14 4
1532257030899015 1 48 -4 -5 -28 20 51 -2
1532257031281991 7 -6 2 -2 12 5 -2 1
1532257031311910 -19 -38 -9 -5 -5 23 5 -5
1532257031514370 5 -21 -1 -3 6 0 -8 1
1532257031783649 -4 17 0 -4 3 -2 30 -1
1532257032046954 8 -15 -5 -3 -1 13 -13 2
1532257032123740 0 -1 -1 -3 -4 -12 20 0
1532257032256397 -3 -3 -1 -1 -1 -17 -2 -1
1532257032377063 0 1 2 7 5 -18 -3 0
1532257032624401 0 -2 -3 -3 7 -2 -1 -5
1532257032676262 -3 -3 -5 -3 -21 -9 1 1
1532257032729120 1 1 -1 -2 3 9 -2 5
1532257032767020 0 2 0 -4 -16 -72 -8 -12
1532257032826859 4 -1 3 4 -12 13 15 30
1532257032879719 27 15 4 6 10 -18 28 47
1532257032931580 5 10 3 1 -17 -8 -10 -27
1532257032992421 -27 3 -3 0 5 11 40 -27
1532257033053254 7 -3 -8 1 0 -4 -6 4
1532257033119078 5 19 -3 -2 -8 0 40 66
1532257033178918 -5 23 -2 -7 -1 -1 33 26
1532257033208838 -29 -23 -68 -13 -8 6 -3 -79
1532257033223798 13 17 19 -1 -15 -11 -45 -11
1532257033261696 -1 -31 46 -3 -1 -9 21 49
1532257033291617 15 -12 -3 0 -24 1 62 29
1532257033329515 1 -15 6 -9 6 4 -26 65
1532257033389356 -24 39 -1 1 18 -5 -4 -30
1532257033568876 -1 0 -1 -11 -6 0 -22 -5
1532257033936891 -3 -8 -9 -1 -6 -5 -3 -1
1532257033981771 0 1 1 -1 -1 5 2 7
1532257034026651 4 1 -8 -5 -1 18 -21 -1
1532257034056571 -2 -1 -1 0 10 25 -8 -1
1532257034094470 0 0 1 -6 -8 -44 -18 -1
1532257034109429 1 3 3 11 -17 -20 4 4
1532257034161291 0 1 2 -4 -5 -35 17 1
1532257034176251 -7 -4 1 -2 14 61 -14 -8
1532257034206171 1 1 0 3 -3 -99 2 -3
1532257034259029 -2 -3 -2 -3 2 44 0 -1
1532257034311889 1 -2 -7 -1 -11 20 2 -2
1532257034326869 -1 -3 -2 1 11 -11 -1 -2
1532257034371749 -4 0 0 4 8 -4 6 2
1532257034393691 -3 -3 -1 0 -7 -26 -4 -2
1532257034423611 0 -2 2 -3 1 7 2 0
1532257034439568 0 2 1 2 6 -1 0 2
1532257034476469 -2 -1 -2 -1 3 12 -1 -2
1532257034491429 -3 -1 -1 -1 -10 -14 -2 -2
1532257034566229 -2 -2 0 -1 -13 6 -3 -3
1532257034589168 0 0 -1 0 4 5 0 -1
1532257034604127 0 1 0 -1 -7 10 0 0

1532257034634047 -1 -1 -2 -3 15 14 2 0
1532257034656986 0 2 0 -1 0 -15 1 -2
1532257034708848 -2 -2 -1 1 14 0 0 0
1532257034731793 0 -1 0 -2 5 16 1 0
1532257034746746 -1 -1 -2 -1 6 7 -5 0
1532257034776667 -1 -2 0 0 -7 -5 1 0
1532257034791627 1 -1 -4 -2 -5 -14 -1 -1
1532257034821547 -2 -2 -2 -2 1 1 1 1
1532257034837504 0 0 0 0 5 15 1 0
1532257034859445 1 0 1 1 3 -6 0 -2
1532257034881387 -3 -1 -2 -3 1 4 0 -3
1532257034896346 -2 -2 -1 0 -2 -5 -1 -2
1532257034941227 -2 -2 -1 -1 -1 -2 -3 -1
1532257034972144 0 -1 0 -1 0 -2 -1 -1
1532257034994085 0 -1 -2 -2 0 -3 -1 0
1532257035032013 -1 2 -1 -1 -1 -1 -1 -3
1532257035098834 -2 -1 0 -1 1 -3 0 -1
1532257035121772 -1 0 -1 0 1 -1 -2 -2
1532257035166652 -1 0 -2 -1 1 -2 -4 -2
1532257035196572 0 -2 0 -1 0 -1 -1 -1
1532257035211532 1 2 -2 0 1 1 0 0
1532257035226492 -1 -2 -1 -2 -2 -2 -2 -1
1532257035271372 0 -1 0 1 -3 -2 -2 1
1532257035309271 -2 -1 -1 -2 -3 -2 -1 -1
1532257035339191 0 -1 -3 -1 -5 1 0 -2
1532257035392049 -3 -1 1 -1 -3 -1 0 0
1532257035413991 -2 -2 -1 -1 -1 -1 -1 -2
1532257035428951 -1 -2 -2 -2 -1 -2 -2 -2
1532257035473832 1 -2 -1 -1 0 -1 1 -1
1532257035496770 -2 -1 -1 -1 -1 -1 1 0
1532257035511730 -2 0 -2 0 0 -1 0 -1
1532257035548631 -2 -2 0 -1 -1 1 -1 0
1532257035646370 -1 -1 -1 1 0 0 -1 -1
1532257035663325 -3 0 -1 -2 -2 -1 -2 0
1532257035676289 0 -1 -2 0 0 -3 -1 2
1532257035699228 1 0 -1 -1 -2 -1 -2 -1
1532257035714189 -1 -1 0 -3 -3 -1 -1 -1
1532257035744109 0 -1 -1 0 0 0 -2 -2
1532257035759068 -1 -2 -1 0 -3 -3 0 0
1532257035788989 -2 -1 0 0 0 -1 -1 0
1532257035826887 0 0 -1 0 0 -2 -1 -2
1532257035841847 2 -1 0 0 -2 0 0 -2
1532257035916647 0 5 2 -1 -3 0 1 -3
1532257035939586 -2 2 1 -1 0 1 -1 1
1532257035999425 -3 -6 -3 0 0 -1 0 -1
1532257036021367 0 1 0 0 -2 -3 1 0
1532257036036327 1 -1 0 0 -1 0 -2 -1
1532257036066246 -2 -2 0 -2 -3 0 -1 -1
1532257036096167 -2 0 1 -1 0 -1 -2 -1
1532257036126103 -2 0 -4 -1 -1 -1 0 -1
1532257036157020 -1 0 -1 -1 -1 -1 -2 -2
1532257036178962 0 -8 -1 -1 -2 -2 1 0
1532257036193922 -2 0 -1 0 0 -1 -2 -1
1532257036208882 0 0 -1 -1 -1 -1 0 0
1532257036231821 -3 -7 -2 -1 0 -1 -2 -1
1532257036253762 -1 -5 -2 -2 -2 -2 0 0
1532257036276700 -2 -1 -1 -1 -2 -2 -1 1
1532257036291660 -2 -2 -1 0 -1 -1 0 0
1532257036321581 0 -2 -1 -1 0 -1 0 0
1532257036336540 -1 -1 -1 -2 1 0 -3 -3
1532257036351516 -3 -2 0 0 0 -1 -2 -2
1532257036374440 -1 0 0 -1 -2 -1 1 -1
1532257036396380 0 -1 -1 -2 0 0 -1 -1
1532257036419319 1 0 -1 -2 -1 -1 -2 -1
1532257036456220 -2 0 -1 -1 0 -1 -3 -1
1532257036494119 -3 -2 0 -2 -1 -1 1 0
1532257036509079 2 1 -1 0 -3 0 -4 -1
1532257036532017 1 1 0 0 -2 -2 -2 -1
1532257036553959 -3 -17 -2 -2 0 -6 -10 3
1532257036576898 -4 -7 -3 -1 -1 -1 1 -1
1532257036598839 -1 -7 0 0 -1 1 4 -3
1532257036636737 -2 -2 -2 -2 0 0 1 -1
1532257036651704 -1 -6 -1 0 -2 -2 -2 0
1532257036697575 -2 -1 0 0 -1 -1 0 2
1532257036734497 1 -1 -1 -3 -2 -1 1 -3
1532257036757415 0 -2 -1 1 0 0 0 2
1532257036786337 -1 -3 -3 -1 -1 -2 0 1
1532257036816258 -2 -2 0 0 1 0 4 -2
1532257036839196 0 2 -1 0 -1 -2 -1 0
1532257036861137 -9 -56 -5 -2 -2 -1 -1 -3
1532257036884076 2 5 0 0 0 0 1 1
1532257036913996 -4 2 -1 1 -1 0 2 -2
1532257036936935 2 9 1 0 0 -2 -7 -3
1532257036966855 1 5 -2 -1 -2 -1 0 0
1532257036982817 1 8 -1 -1 -3 0 3 -1
1532257037003757 -1 -5 1 0 -1 -2 -4 -3
1532257037034688 -2 5 1 -3 -1 1 1 -2
1532257037056615 0 3 0 -1 -1 -1 0 2
1532257037071575 1 0 -1 0 -1 0 -1 -1
1532257037094513 -1 -4 -3 -1 -1 -2 -3 -3
1532257037139394 -2 0 -2 -2 -1 -1 -4 -4
1532257037154353 -1 -3 -1 -2 -4 0 1 -2
1532257037199233 -1 -1 0 -1 -2 2 5 -1
1532257037252093 1 -2 -2 -1 0 -1 -4 -1
1532257037282012 -2 -2 -2 0 -2 0 3 -3
1532257037387747 -1 1 -1 -2 -2 0 2 -1
1532257037403688 -2 -2 0 0 -3 0 -1 -2
1532257037439608 4 -2 0 0 0 0 -1 1
1532257037469510 -1 1 -2 -2 0 -1 -2 -1
1532257037506412 -3 -4 0 0 1 0 -1 -2
1532257037529350 -2 2 -2 0 -1 1 1 -1
1532257037551292 1 -3 0 -2 0 0 3 0
1532257037596172 0 1 0 -2 -1 -1 -3 -1
1532257037642067 0 -3 -1 -1 -2 -1 1 0
1532257037663991 1 3 1 -1 -1 -5 -7 -3
1532257037693911 0 -2 -1 0 -2 0 2 0
1532257037723830 0 -1 -1 -1 -2 0 -1 -2
1532257037753751 -1 -3 -2 -2 -1 -1 0 -3
1532257037776690 -2 0 0 0 0 1 -2 -4
1532257037798631 1 -2 -2 -2 -2 -1 0 1
1532257037829548 -3 1 -1 -1 -2 -1 -1 -2
1532257037866460 0 0 -1 -1 1 2 4 0
1532257037889387 1 -2 -3 1 -2 -2 -4 0
1532257037904348 1 -1 -2 -4 -1 0 5 -1
1532257037926289 -4 0 -1 -1 0 -1 -3 -2
1532257037949228 -1 -3 -1 0 0 1 -3 -1
1532257037971170 1 -1 0 -1 -2 -1 -6 -2
1532257038009067 2 -1 -1 -1 -1 -1 0 1
1532257038038988 -1 0 -2 0 -2 -2 3 1
1532257038076886 -1 -1 -2 -2 -2 -1 0 -1
1532257038098828 -1 -1 -1 -1 -3 1 1 0
1532257038136726 -2 0 0 0 -1 -1 -1 2
1532257038159677 -2 -2 -2 -1 1 -1 2 -1
1532257038211527 -2 -1 -1 -1 -2 -3 0 -2
1532257038256406 -2 -2 -3 -3 -1 -2 -2 -1
1532257038286327 -3 -1 -3 -1 -1 0 0 -1
1532257038361126 0 -1 -2 -1 -1 0 -1 -3
1532257038392048 0 0 -2 -2 -1 0 1 0
1532257038443906 -1 -3 0 -1 -1 -2 1 -1
1532257038458865 -1 -1 -1 -2 -1 1 -1 -1
1532257038481803 0 -1 1 2 0 -1 0 -1
1532257038503745 -3 -2 -2 -2 0 -3 -3 0
1532257038556603 0 1 -2 -2 -2 -2 -1 1
1532257038579543 -1 0 0 -1 -4 -2 -1 0
1532257038646388 -9 -2 0 -1 -1 -1 1 -3
1532257038759086 -4 1 0 1 -1 -2 -3 -1
1532257038789006 -1 -1 -1 -1 0 0 1 0
1532257038803966 -1 -2 1 0 -1 -1 0 0
1532257038818927 -1 -2 -3 -2 0 1 2 -2
1532257038871785 -1 0 -3 1 -2 -2 0 -1
1532257038916664 -2 -1 1 -1 -3 1 0 -2
1532257038931625 -3 -1 -2 1 -3 0 -2 -1
1532257038976505 0 -2 0 1 0 -1 -1 -1
1532257038999444 0 0 -2 -3 -11 -2 0 -3
1532257039051321 1 1 -1 0 4 1 -3 0
1532257039111145 0 -2 -3 2 -3 16 3 -1
1532257039171982 -12 -5 -4 -4 2 1 -3 4
1532257039223844 -22 -12 3 0 3 -5 -2 -7
1532257039240800 4 2 -1 -1 -7 10 -7 3
1532257039306622 -22 0 -4 -11 -2 -22 -8 -10
1532257039374441 9 -6 1 -1 -11 7 4 7
1532257039615795 -14 9 13 13 -3 -20 -38 -10
1532257039854158 5 1 -1 2 -1 9 21 5
1532257039921977 27 30 -3 2 0 -9 1 3
1532257039966868 -10 -17 -13 -3 -16 -4 -6 -2
1532257040003758 -2 -3 12 4 12 4 0 1
1532257040386734 -4 -7 -5 -1 -7 -5 -6 -3
1532257040536334 -1 -22 -1 -3 1 -10 -6 -7
1532257040596185 5 9 6 2 -4 2 21 4
1532257040723832 8 5 0 -1 5 11 -2 -2
1532257040768714 2 -3 -5 0 1 -12 -12 -3
1532257040814590 -12 -30 -2 3 12 14 1 -5
1532257040889390 11 -3 2 9 4 11 28 3
1532257040926290 -1 8 -1 -4 1 -3 2 1
1532257040979150 -1 4 -13 -2 1 7 5 -1
1532257041024030 5 -23 0 1 8 1 -16 -3
1532257041061928 0 -4 0 -4 -6 -4 0 -2
1532257041113790 0 5 -2 2 0 -3 7 1
1532257041166648 -2 -1 1 -1 1 8 3 9
1532257041309267 -2 -1 3 1 -2 15 4 4
1532257041377088 3 -3 6 -2 -1 9 7 13
1532257041428947 7 0 -2 1 4 10 10 0
1532257041541646 -7 6 10 2 -2 -3 -14 -22
1532257041579544 -2 -3 -10 -2 1 2 -14 -10
1532257041631405 2 1 1 0 -3 -2 -16 0
1532257041661325 -2 -2 0 4 12 2 -9 1
1532257041699225 0 3 6 4 18 10 12 9
1532257041721165 -5 -2 -4 -2 -8 -10 -9 -26
1532257041744104 3 -1 -6 0 -11 -9 -1 23
1532257041782003 -1 1 16 3 1 -7 6 6
1532257041818904 0 1 2 2 5 1 1 12
1532257041931602 -5 -4 0 -4 0 -1 24 -25
1532257041969518 -10 -5 2 -6 -5 7 56 -9
1532257042029341 24 13 7 3 -5 1 -11 57
1532257042060259 8 -17 -8 -3 15 -1 10 16
1532257042096163 -4 1 -3 -3 -28 -10 4 -5
1532257042171960 9 -13 2 6 11 8 13 17
1532257042201880 0 10 12 4 12 -4 18 1
1532257042223821 -31 -20 -13 -5 -10 -7 11 -45
1532257042314579 -9 -30 -4 -3 -33 -24 12 24
1532257042359477 -13 -33 -6 -8 14 22 -1 -56
1532257042374438 -1 -11 8 7 -6 13 53 -6
1532257042411339 -8 -1 2 -2 -38 -13 -25 0
1532257042441259 -7 51 10 -14 2 -13 -3 -31
1532257042456219 22 8 -9 6 31 24 -14 75
1532257042486148 12 6 29 10 22 13 -1 35
1532257042502096 13 16 -19 7 5 8 34 34
1532257042532016 17 -40 4 -10 -55 -16 -34 28
1532257042553958 24 80 57 3 -10 -3 2 16
1532257042583878 -13 -24 9 -3 -38 -8 -52 -16
1532257042606816 16 -35 -20 2 29 1 -22 26
1532257042651704 -25 4 -53 -8 -11 -14 -4 -22
1532257042696576 10 28 25 3 13 8 -4 19
1532257042726496 19 -37 -19 9 8 -9 -45 -8
1532257042794314 1 29 26 18 21 16 -8 -2
1532257042869115 3 -1 -6 -7 10 24 33 -10
1532257042913995 0 15 -13 -7 -2 -9 16 34
1532257042943915 -3 -7 -6 -2 21 14 39 7
1532257043003755 -4 2 -8 3 1 -8 -23 -3
1532257043094512 -16 -2 -1 2 0 -12 -13 9
1532257043131413 -1 9 12 1 0 9 -44 4
1532257043154351 -1 -2 -3 2 8 -8 33 -1
1532257043200230 -6 -1 -2 0 0 5 4 0
1532257043221173 -12 -4 -1 -3 -12 1 9 9
1532257043236134 3 2 3 9 0 -5 -20 -3
1532257043251093 -2 -2 -2 -4 6 0 -3 3
1532257043296971 -6 -2 -2 -6 -15 -16 0 -35
1532257043311931 -4 0 -1 -4 -19 -4 1 -6
1532257043378752 0 0 0 1 -14 2 0 1
1532257043408672 1 -1 -2 8 25 8 -1 6
1532257043431611 -1 -2 -1 -5 -5 4 4 0
1532257043446571 -1 0 -1 -3 11 1 -4 0
1532257043469509 -2 -1 -2 -4 -6 -1 -4 -1
1532257043491450 -1 0 -3 6 5 1 4 -6
1532257043521371 1 -3 -1 -4 2 -1 -3 2
1532257043536331 -3 -3 -2 -6 1 1 -1 0
1532257043559269 0 -2 -1 1 2 2 -3 -5
1532257043581210 -2 -1 -2 -3 3 -1 -7 -7
1532257043604149 -2 -2 -3 -1 1 1 1 0
1532257043619110 0 -1 -2 1 6 -1 1 -1
1532257043642048 -3 0 0 0 -12 -3 -1 1
1532257043678949 1 -1 -3 -6 -13 -1 -2 -5
1532257043701888 -1 0 -3 -2 -2 1 3 4
1532257043723829 1 -2 0 -2 2 -3 -2 -4
1532257043738789 -1 -1 0 -3 -12 1 -2 -4
1532257043753749 -1 -2 -1 -5 -3 0 0 -1
1532257043798629 1 -1 -2 0 -11 -1 0 4
1532257043829554 -3 -1 -1 -5 -3 -1 -1 1

1532257043859466 -1 0 -2 -1 0 7 5 -1
1532257043874427 -2 0 -1 1 -9 -11 -4 -1
1532257043889387 -1 -1 0 -1 5 12 9 -5
1532257043911328 -3 -5 -2 -1 9 -8 -5 -4
1532257043941248 0 -3 -1 -3 -7 5 10 11
1532257043994106 -1 0 1 3 3 -6 -7 2
1532257044024027 -2 -3 -2 0 -4 -5 -5 3
1532257044053946 0 0 -3 -6 3 -1 0 -2
1532257044113787 1 -1 -1 0 -7 -3 2 1
1532257044136732 -3 -2 -2 -2 -9 0 -5 -20
1532257044188593 -2 -3 0 -3 1 -1 0 -1
1532257044249430 -1 0 0 1 -5 -2 0 -1
1532257044264390 -3 -1 -3 -1 -2 1 1 -6
1532257044354171 -1 -2 -1 0 0 1 -2 -2
1532257044377110 -1 -1 -2 -2 -1 1 -1 -1
1532257044392070 1 -2 -1 -1 -2 -1 0 -1
1532257044414011 -1 -1 -1 -1 -1 -1 -2 -1
1532257044436950 -2 0 -2 -2 9 -1 2 0
1532257044466870 -1 1 0 6 0 0 -2 1
1532257044481830 -4 -2 0 -3 -6 1 0 -2
1532257044496790 1 -1 -2 -3 0 -3 -2 0
1532257044533691 -2 -1 -1 -1 -2 -1 1 -2
1532257044571590 0 -2 -2 0 2 -1 0 0
1532257044609489 -1 -1 -2 0 -2 -1 -2 0
1532257044654369 1 0 0 -1 -4 1 0 0
1532257044669329 -2 -1 1 0 -1 -2 1 -1
1532257044706230 -1 0 -1 0 0 0 0 -1
1532257044721190 1 0 -1 0 -3 -1 -5 -2
1532257044759089 -2 -1 0 -1 -1 -1 -4 -2
1532257044782027 0 0 -1 -1 0 -3 0 1
1532257044811948 -1 -2 -1 3 -6 -1 -1 1
1532257044871787 -2 -2 -3 -3 -5 -3 -1 -5
1532257044886747 -2 0 0 -2 5 1 -3 0
1532257044931627 1 -1 -3 -2 -1 1 -1 -3
1532257044946587 -2 0 0 -1 0 -1 -3 0
1532257044976507 0 -1 -2 -4 -3 -2 -1 0
1532257044991467 -2 0 1 -2 2 0 -1 0
1532257045006427 -1 -3 -1 0 -2 0 0 -2
1532257045036347 0 0 -2 -1 -1 -1 -2 -2
1532257045059286 -1 -1 1 4 -4 -1 0 0
1532257045074246 -1 -1 -2 -3 -1 1 -1 -1
1532257045111147 -1 -1 -2 1 2 -1 -1 -3
1532257045142065 0 0 1 -1 0 -1 0 -1
1532257045164007 -2 -2 -3 0 -2 1 -1 -2
1532257045186945 -1 -1 -2 -2 2 -1 -2 -4
1532257045216864 -2 -2 0 1 -10 -3 -3 0
1532257045238806 -1 -1 0 2 0 -1 -1 -2
1532257045268726 -1 -1 0 -3 1 -2 -1 1
1532257045298646 -2 -1 -2 -1 -1 0 -1 -2
1532257045321584 0 -1 -1 -3 -2 -1 0 0
1532257045344523 0 0 1 -3 -1 0 -1 0
1532257045389408 -1 -1 0 1 -1 -5 -2 0
1532257045426304 -1 0 -2 -1 -1 0 -1 0
1532257045449243 -1 -2 0 -2 -1 1 0 1
1532257045464203 0 -1 0 -1 0 -1 -1 -2
1532257045479163 -1 -1 -1 0 -3 1 -1 0
1532257045501104 -3 -1 -2 -3 -5 -1 -1 -1
1532257045532021 -1 -1 -1 3 4 0 0 -2
1532257045553962 -1 -2 -2 3 0 -1 -2 -1
1532257045576902 0 -2 -1 -1 -1 -2 -1 -1
1532257045591862 2 -2 -2 -4 -4 -2 -1 -1
1532257045628763 -1 0 0 3 6 3 -1 0
1532257045651716 0 -3 -1 -1 -1 0 0 0
1532257045681622 -4 0 -2 -4 -2 0 -1 -2
1532257045711542 -1 -1 -2 -1 1 -1 0 -1
1532257045749440 0 -3 -1 -1 1 -2 -1 0
1532257045764401 0 -1 -1 -1 4 -1 -1 0
1532257045809280 -1 -2 -2 -2 -6 0 0 -1
1532257045839200 -1 -2 -2 -1 1 0 -1 -1
1532257045892059 0 0 -2 1 1 -1 0 -3
1532257045936939 0 -2 -1 -1 -3 -1 -1 -1
1532257045951899 -1 -1 -1 -1 -1 0 -1 0
1532257045996778 -2 0 -1 0 -1 -2 0 0
1532257046018720 -1 0 -2 -2 -4 -2 -2 2
1532257046109477 0 -1 -1 -4 -3 0 -2 -2
1532257046146378 0 -1 1 -2 0 -1 0 -3
1532257046184277 -1 0 0 -1 0 -2 -2 0
1532257046206219 -1 -2 -1 -1 -2 -1 0 -1
1532257046236139 -2 -1 -1 0 -7 -2 -2 -2
1532257046252112 0 -1 -1 -1 5 1 0 0
1532257046296976 -2 -2 -1 -1 -3 0 -3 -3
1532257046348838 0 0 -1 -1 1 -2 0 1
1532257046401696 0 0 -1 0 -1 0 0 0
1532257046477494 0 -1 -2 -1 -1 -3 -1 0
1532257046514395 -1 -2 -1 -2 -1 -1 -1 -1
1532257046536337 -1 -1 0 -1 -1 -1 -2 -1
1532257046612134 -1 0 -1 0 -2 -1 -2 0
1532257046663995 0 -1 -1 0 0 -2 -1 -2
1532257046716853 0 -1 -2 0 -2 -2 -1 -1
1532257046762731 0 0 -1 -1 0 0 -1 -1
1532257046798635 -3 -1 -1 -2 -1 0 0 0
1532257046859473 -2 -1 -2 2 -1 0 -1 0
1532257046889392 -1 -2 -1 -2 -6 -1 -5 -1
1532257046904352 0 0 0 -2 1 -1 -1 -1
1532257046949232 -1 -1 -1 -1 -2 -2 0 -1
1532257046979152 0 0 0 -2 -1 -1 0 0
1532257047009072 -2 -3 0 -3 1 -1 0 0
1532257047024032 -2 0 -2 1 1 -1 -2 -2
1532257047076891 0 -2 -1 -1 -7 -3 0 0
1532257047128752 -1 -2 -2 -2 1 -2 -2 -3
1532257047158672 0 0 -1 -1 0 2 -1 -1
1532257047181611 0 0 -1 -2 0 0 -2 0
1532257047234469 -1 -2 0 0 -2 -2 -1 -2
1532257047271371 0 0 -1 -1 -3 1 1 1
1532257047287328 -2 -2 0 -1 1 0 -1 0
1532257047331211 0 -2 -1 0 -2 -2 -1 -1
1532257047384069 0 0 -2 1 -1 1 -3 -2
1532257047421984 -1 0 -1 1 2 0 -2 -2
1532257047443909 -1 -2 -1 -4 -3 -3 3 1
1532257047458869 -2 -3 -2 -3 0 -1 -3 -2
1532257047473829 -2 -1 -1 0 -1 0 0 3
1532257047503749 -1 0 -2 -1 -1 -2 -1 -1
1532257047518709 0 -2 0 -1 -1 -1 -2 -1
1532257047533669 0 -1 0 0 0 -1 -1 4
1532257047549626 0 -1 -1 -1 0 0 0 -2
1532257047571568 -3 -2 -1 -1 -1 -1 -1 -1
1532257047601487 -1 -1 -2 -3 -2 0 -1 -1
1532257047624426 0 1 -1 2 2 -1 -2 -1
1532257047639386 -1 0 -1 -2 -1 -3 -2 -1
1532257047654347 -1 -1 -3 0 0 0 1 0
1532257047684282 -1 -2 -1 -2 0 -1 0 -5
1532257047721168 0 -2 0 0 -1 -1 0 -2
1532257047752100 -1 -2 -2 -4 -8 -2 -1 2
1532257047782005 -1 -2 0 -2 -16 -3 -1 1
1532257047803946 -1 0 -1 -3 -10 0 -1 0
1532257047826884 -5 -9 0 -1 -20 11 -8 -2
1532257047841845 4 4 -3 -11 9 7 3 4
1532257047863786 -49 -26 -2 2 -14 -24 -7 -7
1532257047886725 13 6 1 2 20 35 3 -5
1532257047924623 14 10 2 1 -1 12 -2 -3
1532257047946564 -4 4 4 9 2 36 19 7
1532257047991445 13 -4 3 -2 4 -10 1 4
1532257048014384 -9 -11 -6 -6 -7 -15 -10 -6
1532257048044303 -1 -8 -3 4 2 15 -69 -13
1532257048066244 -14 28 6 1 -6 17 -4 -4
1532257048104143 -8 11 3 9 42 15 -10 -13
1532257048157002 0 -39 -11 -5 -12 -29 -2 -1
1532257048178944 40 29 2 -7 -3 45 -24 -5
1532257048223823 -4 -15 2 2 4 -24 18 2
1532257048268704 -4 -38 -2 3 -6 -17 -12 1
1532257048329541 12 -9 -7 -16 12 16 35 6
1532257048464181 -18 -29 -5 0 6 -17 4 3
1532257048494101 4 28 -3 -4 -5 39 -5 -2
1532257048517040 -4 -32 -6 3 -14 2 24 -4
1532257048546959 1 -6 -9 -16 -3 6 -14 1
1532257048568901 1 -13 -8 -9 -9 2 -1 1
1532257048591840 2 -20 3 5 12 -12 1 3
1532257048621759 13 13 -2 1 3 -3 5 -1
1532257048636719 0 -9 -2 -9 -16 -7 1 -1
1532257048658661 -9 -14 -5 -6 9 2 11 -4
1532257048711519 -12 7 -2 -2 -5 -22 -6 -5
1532257048756399 -9 -6 -7 -5 -3 -16 -42 -9
1532257048831199 -6 -19 -3 5 -15 5 16 2
1532257048921957 1 3 -2 0 -10 -31 -20 -3
1532257049033658 -2 3 -2 -3 -14 -2 -1 -2
1532257049049615 6 13 0 2 -3 7 20 1
1532257049146357 -6 4 0 -2 -1 5 3 0
1532257049199215 6 24 3 -2 -11 7 -6 -1
1532257049236116 8 -4 -4 -4 -12 1 9 -1
1532257049253072 -20 -17 -7 0 -12 -9 -8 -4
1532257049363775 -2 -9 -3 -6 -5 0 -1 0
1532257049416634 0 -1 2 -1 -2 4 -1 -2
1532257049476489 3 1 2 0 15 78 4 -2
1532257049529333 -2 -3 0 0 -4 -12 0 2
1532257049551291 0 -4 -7 -5 0 -11 -4 -3
1532257049663972 0 1 2 -1 -6 33 4 1
1532257049911311 -4 -5 -11 -8 -10 -7 -10 -6
1532257049994090 1 2 2 13 6 -4 -14 -43
1532257050076867 7 3 -5 -4 1 15 -20 34
1532257050106788 -4 4 -1 2 -4 -10 -40 -24
1532257050158650 -10 -11 -2 8 21 13 -9 -9
1532257050219495 26 1 -8 -2 -4 -18 -10 -78
1532257050241428 15 -23 -9 -5 29 9 -8 50
1532257050294287 14 1 3 8 20 5 -13 66
1532257050324207 17 -5 3 3 -27 -4 -34 49
1532257050362106 -4 -35 -19 -12 12 -3 -40 -32
1532257050384046 -5 10 8 10 -10 -4 22 -5
1532257050413967 22 37 10 6 -25 2 -11 -65
1532257050436906 3 13 7 -12 -21 -1 47 95
1532257050458847 -22 -21 -5 -2 5 -5 -16 -24
1532257050519684 7 7 -6 3 -4 3 -12 -20
1532257050541626 38 22 6 10 6 -7 19 91
1532257050594484 2 22 40 3 -18 -7 24 4
1532257050648340 -3 2 -56 -2 31 4 -15 -53
1532257050699204 13 17 89 -11 -32 7 29 48
1532257050759044 -22 -6 -17 -11 -26 0 25 -47
1532257050803924 5 32 8 -16 0 -6 0 60
1532257050931582 -3 1 -17 -19 -21 8 -12 -29
1532257051051262 -2 -16 -1 -5 -12 -7 -16 -4
1532257051104121 -2 -3 -5 -3 -7 -19 -21 -4
1532257051142020 2 1 -3 3 3 32 10 3
1532257051238761 -2 0 2 -2 -4 -1 -8 0
1532257051314559 -4 -2 -2 -3 6 3 -1 -1
1532257051329520 0 -2 -2 -2 -11 -1 -1 0
1532257051479126 1 0 4 13 11 0 -1 2
1532257051561897 -2 0 -1 -2 -12 -2 1 -1
1532257051591817 -1 -2 -1 -2 1 0 -1 -1
1532257051658638 0 0 -1 -2 0 0 -2 -2
1532257051704516 -2 0 0 5 5 -2 0 1
1532257051741417 0 -1 -2 -2 1 -2 0 0

1532257051794284 -2 0 -4 -5 3 3 -1 -3
1532257051816218 -3 -1 -1 1 4 1 -2 0
1532257051846137 -1 -1 1 0 1 -3 -1 -1
1532257051884036 1 0 -2 1 2 -1 -1 -1
1532257052018675 -1 -1 -2 -5 -4 -2 -1 -1
1532257052071534 -1 0 0 1 2 0 -1 -1
1532257052086495 -2 -1 -2 -1 -10 -2 0 -1
1532257052109433 1 1 2 -2 6 0 0 0
1532257052131374 -1 -3 -2 -6 -5 -3 -2 -1
1532257052146334 0 0 -1 2 -1 -1 0 -1
1532257052199193 -1 0 -2 1 7 1 0 1
1532257052229113 -3 -2 -3 -2 18 2 1 -2
1532257052259032 2 0 0 3 7 1 -1 -1
1532257052281971 -2 -4 -4 1 -15 -2 1 0
1532257052311892 0 0 1 4 5 2 -1 -2
1532257052341820 -2 -4 -5 -5 -2 -2 0 -1
1532257052371732 -1 0 -1 -6 -16 -3 -2 0
1532257052401668 -3 -1 -1 -6 5 0 -2 -1
1532257052423593 0 -1 -2 -2 -2 -3 -2 0
1532257052529364 -1 1 0 3 1 0 -2 -1
1532257052574244 0 0 -2 -8 6 -2 -2 -1
1532257052596185 0 -2 -2 -2 3 -3 0 0
1532257052619123 -1 -2 -1 -1 -6 0 -2 -1
1532257052649044 -1 -1 1 2 3 -2 -1 -2
1532257052671983 0 -1 1 5 5 1 0 -2
1532257052686942 -1 -1 -1 -2 -16 -5 -4 -1
1532257052708884 -2 -2 -1 0 7 1 -1 -2
1532257052738804 0 -3 -2 1 2 1 1 -1
1532257052761742 -2 0 -1 0 1 0 1 -1
1532257052791663 -1 0 -3 -5 -5 -1 -2 -1
1532257052859481 2 0 2 6 2 2 1 1
1532257052881422 -1 0 -2 -5 -3 1 -1 0
1532257052904361 0 -1 -1 -2 -1 -2 0 -1
1532257052934282 0 0 1 4 6 -1 0 0
1532257052986143 -2 0 -2 -1 -3 -3 -1 -1
1532257053046980 -1 -1 -1 0 9 1 -1 -2
1532257053098841 -3 -1 -3 -4 5 -1 0 0
1532257053143721 -2 -1 2 0 -13 -4 2 -1
1532257053181620 -1 -2 0 9 11 -2 -1 -1
1532257053196580 -3 -1 -2 -5 -7 0 0 -3
1532257053241474 -3 -1 -1 -4 -7 -3 0 2
1532257053286340 1 -1 0 -4 -5 -1 -2 -1
1532257053316260 1 -2 -1 -1 6 -1 -1 -2
1532257053369135 0 -2 0 4 8 0 0 0
1532257053436937 -3 -2 0 3 -2 -1 0 -2
1532257053503758 1 -1 -1 -3 1 0 1 0
1532257053571577 0 0 0 4 0 0 0 -2
1532257053624435 -1 -1 -3 -2 7 0 -1 -1
1532257053752101 -2 -2 -1 0 -8 -2 -1 -2
1532257053931614 0 -2 -2 -4 -8 -1 -1 -4
1532257054029353 0 -2 1 -1 3 1 -1 2
1532257054081214 -2 -2 -3 -2 0 0 0 -1
1532257054126095 -1 -1 -2 0 -12 0 1 -2
1532257054178953 -1 -1 -1 -2 -1 -1 -2 1
1532257054419310 -2 0 -2 0 -16 -1 -2 -4
1532257054465188 -2 -1 -1 -5 -6 -2 -2 -1
1532257054487144 0 -1 -2 -2 0 -1 0 0
1532257054546969 -2 -1 0 -2 0 0 0 -1
1532257054570905 0 -2 0 -3 -22 -3 1 -1
1532257054606809 0 -2 0 0 3 0 0 0
1532257054636728 -2 -1 1 10 17 3 0 0
1532257054651689 0 0 0 0 0 -2 -1 -1
1532257054673630 -2 -3 -1 -3 -4 -1 -1 -2
1532257054689588 1 -1 -1 -3 -4 -1 0 0
1532257054711529 -4 1 -2 -1 4 0 0 -1
1532257054749428 -1 -1 1 -1 -6 -1 -1 -1
1532257054839187 -2 1 0 3 -1 0 -1 0
1532257054886067 -4 -1 1 0 4 2 -1 -3
1532257054908003 -1 1 0 0 -3 -2 1 0
1532257054936926 -2 -2 -2 -2 2 -1 -3 -1
1532257054966846 0 -1 -2 -4 -7 -3 0 0
1532257054988788 -2 -1 -2 -1 -1 0 -1 -1
1532257055027683 0 -1 0 -2 -1 -3 -2 0
1532257055071566 0 0 -2 -6 0 1 -2 -4
1532257055103493 -3 -2 -2 -1 -1 0 0 2
1532257055139384 0 2 -1 -2 -2 -1 -2 -1
1532257055176286 -1 0 -2 1 5 1 0 -1
1532257055229145 -2 0 -1 0 2 -2 1 -2
1532257055303945 -2 -1 -3 -2 -7 -1 -3 1
1532257055333865 -1 -1 -2 -3 -2 0 -3 -3
1532257055393704 1 -1 2 8 12 2 0 -1
1532257055416643 -1 -2 -2 -2 3 1 -1 0
1532257055431603 -2 0 -1 -4 3 -2 -1 -1
1532257055491443 0 10 1 -4 5 3 4 -2
1532257055529342 -3 -5 -3 0 -7 -41 -14 -5
1532257055581204 23 11 4 3 -8 23 35 -3
1532257055649022 -23 15 4 9 22 43 36 1
1532257055768702 4 45 7 -7 17 33 10 3
1532257055859459 29 36 0 3 4 28 17 13
1532257055934259 -16 1 5 -4 -6 8 -9 -10
1532257056046958 15 3 5 0 1 26 9 4
1532257056136717 0 -5 -8 -5 7 -21 -3 -3
1532257056324216 -12 -19 2 19 7 -19 13 -1
1532257056533655 -6 -18 -10 -2 3 9 7 0
1532257056579533 0 3 0 -2 6 5 2 -1
1532257056594494 5 44 4 0 4 -2 5 2
1532257056631395 -8 3 0 -3 -1 -6 -16 -1
1532257056654333 -15 -17 -6 -6 24 10 19 -4
1532257056706195 -4 -9 -6 -3 -14 -1 -8 -1
1532257056818893 6 -5 -2 4 21 6 6 1
1532257056931592 4 19 2 0 12 -11 -3 -3
1532257056961512 0 2 3 9 -14 -6 -9 -1
1532257056984451 11 -4 -1 2 6 -4 5 0
1532257057081192 -1 -20 -1 1 -2 -24 -13 -6
1532257057149011 -1 -24 -1 0 4 2 -1 0
1532257057201870 2 29 10 14 -1 4 9 3
1532257057247747 3 -13 -1 -3 -1 1 -1 1
1532257057299608 -2 6 1 1 -2 -4 -1 -1
1532257057344488 12 0 -3 -1 0 3 -1 2
1532257057374408 7 -38 -1 1 10 48 7 0
1532257057426269 -6 -19 1 0 -12 -66 6 2
1532257057471149 0 11 -1 -1 4 41 -3 -2
1532257057538968 -1 5 1 3 6 12 6 2
1532257057704524 3 4 -4 4 7 18 11 2
1532257057749405 -1 -1 -9 -5 8 10 -9 -6
1532257057816226 2 1 2 -2 -11 7 9 15
1532257057877064 -1 5 0 0 -4 67 -2 -5
1532257057928925 -2 -23 -5 -4 -12 2 -1 2
1532257058026664 -1 3 0 -2 1 -8 9 10
1532257058064562 -11 -22 -8 -2 3 12 5 -23
1532257058086504 -1 -4 0 0 -3 -8 12 4
1532257058139362 -6 1 1 3 10 18 15 17
1532257058206183 18 0 -4 -9 8 -13 -33 13
1532257058244082 -26 0 -1 -14 -8 10 8 46
1532257058296941 -45 -74 -18 -20 1 -13 -39 -34
1532257058311901 6 7 -3 2 -5 -30 -24 17
1532257058350797 2 18 0 2 -9 -10 -52 2
1532257058401671 8 -48 -13 -3 10 5 0 16
1532257058431580 -3 -11 -3 3 28 4 22 -23
1532257058476461 10 11 9 23 -13 -3 27 50
1532257058506381 -2 -4 -12 -2 -2 4 -13 -4
1532257058544279 3 -20 -26 -19 -14 -4 -9 4
1532257058589159 13 8 -8 3 6 -3 8 16
1532257058619080 15 25 9 -1 25 9 52 19
1532257058634039 -5 3 -3 -1 -4 -8 20 -6
1532257058701874 -17 13 6 5 -7 -12 -11 -63
1532257058799597 31 17 -17 -4 9 9 127 55
1532257058866418 -9 -44 -60 -1 -8 -16 -13 -27
1532257058987105 -6 -8 3 29 9 -28 3 10
1532257059038957 7 -3 13 -5 -6 5 9 28
1532257059098797 3 26 39 6 4 8 2 -11
1532257059128717 1 -5 -3 1 3 -2 -2 1
1532257059174594 0 -1 -7 -3 -1 -18 0 -2
1532257059204514 -2 -5 -5 -2 -3 5 1 -2
1532257059226455 1 0 -1 -1 0 -3 0 0
1532257059249395 0 -1 -5 -3 -2 -1 7 -3
1532257059294274 -3 0 -1 -1 -2 -5 -1 -1
1532257059316215 0 -1 -2 -2 -2 -4 -4 -2
1532257059339162 -1 -2 -1 0 1 -1 1 -2
1532257059361095 -1 0 -1 -1 -1 -1 0 -1
1532257059398994 -1 0 -3 0 0 0 0 0
1532257059428914 0 1 0 0 1 -1 1 -1
1532257059473794 1 0 0 -1 -3 -3 -1 -1
1532257059503714 -3 -4 -2 0 0 1 2 1
1532257059541612 0 0 1 0 2 -1 -1 -4
1532257059571532 0 0 0 2 3 -5 -3 1
1532257059586493 -1 -2 -2 -4 -6 -1 -3 -2
1532257059624391 -2 -1 -1 -5 -13 0 -2 -2
1532257059654311 -1 -1 0 -7 -4 0 1 1
1532257059706172 -1 0 -3 -1 0 1 0 0
1532257059744071 -1 -3 -3 0 -2 -5 -5 -3
1532257059803911 0 -2 0 -1 2 0 2 -1
1532257059848791 -2 -2 0 1 -1 -2 -1 -1
1532257059901650 -1 -2 -3 0 0 -1 -1 -2
1532257059931569 -1 0 0 -1 -2 0 -1 -2
1532257059961490 -1 -2 -1 0 0 -1 -4 -3

1532257059976453 -1 0 -1 -3 0 -1 2 1
1532257060014349 1 1 -1 -3 -3 -2 1 0
1532257060036290 1 0 -3 0 -1 0 -4 0
1532257060089148 0 -1 0 -1 -1 -1 -3 -2
1532257060148988 -2 -3 1 7 6 1 -4 -6
1532257060193868 -1 0 0 -2 -4 -1 1 0
1532257060223788 -1 -1 -2 -2 -3 -2 -1 -1
1532257060254712 -1 0 -1 0 0 -4 -3 -4
1532257060283629 0 -1 0 -1 -2 0 -1 -1
1532257060359426 -1 0 0 -4 1 2 0 1
1532257060553906 0 -3 -1 -2 2 0 0 1
1532257060593799 1 -1 -1 1 -2 -2 -3 -2
1532257060749383 -2 0 -3 -5 0 -1 0 0
1532257060779303 -4 -1 1 0 0 -1 0 -4
1532257060943863 -1 0 0 -1 1 3 3 1
1532257060988743 -2 -2 -1 1 0 2 0 0
1532257061026641 0 0 -3 -3 -3 -3 -1 1
1532257061064540 0 -1 -1 1 0 -3 -2 -3
1532257061101442 -1 -1 0 -3 -1 1 -1 0
1532257061222119 0 -1 0 -4 -5 -1 0 -1
1532257061318866 -2 0 1 0 -2 -4 -5 -5
1532257061424577 -1 0 -1 -1 -3 -2 0 0
1532257061514337 -1 -1 0 -2 -1 0 7 -1
1532257061566199 -2 -3 -1 -1 -1 0 -1 -2
1532257061619064 1 0 -1 1 1 -1 -2 -1
1532257061648977 -2 -1 -2 -1 -2 -2 -1 -1
1532257061671916 -1 -1 -3 -2 -2 0 0 -1
1532257061701849 -2 0 1 4 0 -1 -1 -3
1532257061731764 0 0 1 -1 0 -1 -1 0
1532257061746715 -1 -2 1 -2 -5 -1 0 -3
1532257061783617 -1 -1 -1 -1 4 -8 1 -1
1532257061806556 -1 1 0 1 0 0 -1 -2
1532257061844454 -2 -2 -1 -1 -1 -1 -1 -2
1532257061874375 -2 -2 -1 0 -3 -1 -2 0
1532257061911276 -2 0 -2 -1 0 -2 0 -1
1532257061941196 1 -1 -1 -2 0 0 0 0
1532257061971116 1 -2 1 -2 -3 2 1 -1
1532257062009014 -1 0 -2 -2 -2 -1 -1 0
1532257062055890 1 -3 -2 -1 0 -1 1 1
1532257062091793 0 -3 -2 -2 1 0 0 -1
1532257062143654 0 -1 0 -1 -3 -1 0 -1
1532257062174572 0 0 -1 0 1 -1 -1 -2
1532257062189532 -2 0 -1 -1 -1 0 0 -2
1532257062241393 -1 -1 0 -1 -2 0 -1 -1
1532257062286273 0 -1 -2 1 1 0 1 0
1532257062346113 -1 -2 0 1 -1 -2 -2 -3
1532257062369052 0 0 -2 -2 1 -2 -2 0
1532257062451833 -1 0 -1 -1 -1 -1 -2 -1
1532257062473772 -3 -1 0 -4 1 2 3 0
1532257062496710 -2 -1 0 -2 -2 -4 -1 -2
1532257062549568 0 -1 -1 0 -1 -2 -1 0
1532257062564529 0 0 -1 0 -1 -2 -2 0
1532257062579488 0 0 -1 1 1 0 -3 -1
1532257062616390 -2 1 1 -3 -1 -1 1 -3
1532257062639329 0 -1 -2 -4 -2 -1 0 -1
1532257062669249 -2 -2 -1 -1 -3 -1 0 2
1532257062699169 -2 -2 0 -1 1 -1 0 -1
1532257062722107 0 -2 -1 0 -3 -1 0 -1
1532257062744049 0 0 -2 0 -1 -2 -2 -1
1532257062773969 -1 -4 0 0 -1 -2 2 0
1532257062811868 -1 -1 -2 -1 0 0 0 -2
1532257062841788 -2 -1 -3 0 0 -2 -1 -2
1532257062871708 -1 -1 -2 8 6 0 -3 -1
1532257062916587 -2 -2 0 2 -1 1 1 0
1532257062939526 -2 -1 0 1 2 -1 -1 -1
1532257062976428 -3 0 0 -1 -3 -3 -1 0
1532257063014326 0 -2 -2 -3 -1 -1 -2 0
1532257063059207 0 -1 -3 -2 -1 0 1 -1
1532257063082145 -2 0 -2 0 -5 -1 -1 -1
1532257063148969 1 -2 0 -2 -2 0 -3 -1
1532257063178886 -1 -2 0 -1 0 0 1 1
1532257063201825 -1 -1 -1 -1 -1 0 -2 -2
1532257063231744 -1 0 -2 -1 0 0 1 0
1532257063261666 0 0 -2 0 -3 -1 -2 0
1532257063299564 -2 -1 0 -1 -3 -2 1 0
1532257063359403 -1 -2 -2 -3 -1 -1 -1 2
1532257063405281 -4 1 -3 -1 -1 -1 1 -2
1532257063479083 0 -3 0 3 5 -1 0 1
1532257063553883 -3 -3 -3 -1 -2 3 -2 0
1532257063568849 -5 -1 1 5 -2 -7 -4 -5
1532257063606742 -14 -8 -4 -7 -6 15 10 -2
1532257063643643 -7 5 0 1 8 -12 1 1
1532257063667579 -16 -6 1 1 1 -2 -10 -3
1532257063704481 20 -6 -6 -6 -1 -23 -5 -2
1532257063741382 -39 -32 -13 -10 -6 50 -16 -18
1532257063794241 -32 10 2 -6 3 13 -9 -12
1532257063809201 21 -18 -1 -4 -7 -11 12 15
1532257063847099 0 -13 2 -1 3 -4 9 2
1532257063885996 -10 5 -6 -15 -19 35 -22 -2
1532257063951820 3 9 -3 -4 -16 -18 -25 -8
1532257064011659 -5 -18 -8 -1 2 1 -5 -3
1532257064536256 6 1 6 0 -3 8 6 4
1532257064926214 12 -5 0 0 -4 3 1 3
1532257064994032 -2 -3 -3 -1 9 9 1 -2
1532257065196491 -4 3 2 1 1 2 2 -2
1532257065234398 2 -4 -2 -1 -1 0 -3 -1
1532257065286251 4 15 2 1 14 22 2 -1
1532257065676208 5 -1 5 5 3 2 2 2
1532257065699147 -3 -8 -1 -2 -6 -2 -5 -1
1532257065753002 1 0 0 2 -5 -2 -1 -2
1532257065803867 0 1 -2 -2 8 -41 2 0
1532257065894630 -1 -3 -2 -1 -6 18 -3 -1
1532257066029264 1 -2 -5 -7 6 -23 -4 -4
1532257066223744 -9 -40 -10 -4 -2 1 -4 -6
1532257066238704 -1 17 1 0 -8 -11 8 -26
1532257066291563 7 2 -5 -3 0 3 8 27
1532257066314501 -11 6 1 2 1 -12 -47 -30
1532257066366363 12 -11 -5 -4 -9 -4 4 26
1532257066404261 11 16 0 0 6 17 -13 27
1532257066516960 -11 -15 -6 8 14 10 38 -27
1532257066555860 7 -5 16 10 -1 -14 -21 39
1532257066583781 3 4 10 -8 -2 17 6 30
1532257066613701 -8 11 2 -2 0 -3 -8 -31
1532257066659578 -25 -32 -6 -5 28 3 8 6
1532257066681520 12 29 28 -1 -11 -3 18 36
1532257066734389 -13 -15 7 3 -2 -9 -37 -20
1532257066779258 -3 -2 -15 3 8 16 34 -12
1532257066809179 -14 5 -4 0 21 -1 -7 -4
1532257066847080 6 16 16 -4 -31 -12 -8 2
1532257066891956 -6 21 34 -5 53 7 19 -6
1532257066921877 2 -37 -4 0 -35 -1 -16 6
1532257066958778 -4 -25 -58 -22 -53 -2 11 -21
1532257067086437 -33 -11 7 3 -15 -1 -52 -50
1532257067146277 36 -17 35 -20 -75 -10 47 18
1532257067363696 -11 -32 7 28 8 6 -5 -12
1532257067499339 1 -19 30 -1 0 -5 -1 4
1532257067536234 3 -1 -7 0 2 1 6 3
1532257067574133 -1 -6 -3 -2 -4 -2 -4 0
1532257067626991 -1 -3 1 2 -1 -2 -3 -4
1532257067731711 -2 -3 0 -4 9 0 0 0
1532257067784602 1 0 -2 -4 2 2 6 8
1532257067866351 -1 -3 -3 0 10 2 5 -3
1532257067979050 0 -2 -1 -3 -1 0 -2 -3
1532257068083770 -4 -4 -1 -2 -1 -3 -3 -1

1532257068249327 0 1 -2 -3 -6 -4 -2 1
1532257068286229 -1 -3 -1 -1 3 -2 -1 -1
1532257068362026 0 -2 -2 -1 -5 -1 -4 0
1532257068451786 -3 -1 -3 -2 -6 1 3 0
1532257068534565 -1 -1 -1 4 14 0 -2 -2
1532257068669204 1 -1 -2 0 4 -1 -3 0
1532257068722063 0 -1 -2 -1 -1 -1 0 -1
1532257068751984 -1 -2 -3 -3 -1 -2 0 0
1532257068826783 -1 -1 -1 -4 -7 -2 -1 0
1532257069104088 1 0 -1 1 -3 -2 2 3
1532257069141987 1 1 1 10 0 -1 0 1
1532257069178888 -1 -1 -4 -7 -12 -1 0 -2
1532257069246707 0 0 0 7 6 -2 -2 1
1532257069291588 -1 0 -2 -3 -5 -1 -1 -1
1532257069359407 0 -1 -2 -3 5 -3 -1 -1
1532257069381347 -2 -1 -2 -4 -3 -2 0 -1
1532257069449166 1 -1 0 -1 15 -1 -1 -4
1532257069472105 0 -1 -1 1 -14 -1 -1 1
1532257069568852 -1 -1 -1 -2 -16 -1 -1 -2
1532257069666585 -2 -3 -1 -5 11 0 0 -3
1532257069689523 0 -3 -1 -4 -11 -1 1 -2
1532257069734403 -1 1 -2 3 -7 -3 -2 1
1532257069779283 0 -1 -1 -5 -8 -1 -2 -2
1532257069811198 -2 0 -1 -1 -1 -1 0 0
1532257069847101 -2 -1 -1 3 5 0 0 -2
1532257069958803 -1 -1 -1 -5 -1 1 -1 -1
1532257070019641 0 -1 -2 0 1 1 0 0
1532257070124361 -2 -2 0 1 -1 -1 -2 -3
1532257070154280 -1 0 -2 -1 4 0 -2 -1
1532257070184200 0 -1 -2 1 2 -1 -1 -2
1532257070199160 0 -2 0 -1 -2 0 -1 -2
1532257070237060 0 -1 -1 -1 -3 -1 0 -1
1532257070288920 -2 0 -2 2 4 -1 1 0
1532257070386659 -1 0 -1 1 1 0 0 1
1532257070424558 -2 -1 -1 1 -3 -1 -1 -1
1532257070439518 -1 1 0 0 3 1 0 -1
1532257070476419 -1 -1 -2 -2 -13 -2 -2 0
1532257070499358 -2 -1 -1 3 5 -1 -4 -1
1532257070544243 -2 0 0 0 -11 -2 1 0
1532257070559198 0 0 -1 -3 3 -1 0 -1
1532257070581139 1 -3 -1 0 5 -1 -1 -1
1532257070619038 -1 -1 -1 -2 3 1 0 -3
1532257070650953 0 -1 -2 2 5 -1 -2 -1
1532257070663918 -3 -2 -1 0 24 0 0 0
1532257070686856 0 0 -2 -2 -7 0 1 0
1532257070701816 -3 -1 -1 -2 1 0 -2 -4
1532257070723758 0 0 -2 0 -13 -1 -1 -2
1532257070768653 1 -1 0 -2 -19 -2 0 -2
1532257070791576 -4 -1 -2 -3 4 0 -1 0
1532257070806536 1 -1 -3 -3 -1 -2 0 -2
1532257070874355 -1 -1 -1 -2 -1 -2 -1 -2
1532257070896296 0 -2 1 0 -4 -1 0 -1
1532257070934195 0 -1 -1 2 9 2 0 -1
1532257070964115 2 -1 -1 0 -1 -3 -2 0
1532257070994035 -2 -2 -1 -2 -4 -3 -1 0
1532257071008995 0 1 1 -1 -2 0 -1 -2
1532257071031933 -2 -1 -1 -2 -5 -3 0 0
1532257071083795 -3 0 0 7 12 -2 0 -3
1532257071129676 -1 -2 -1 2 -5 -3 -2 -1
1532257071143635 1 -1 -3 -5 -10 5 0 -1
1532257071174552 -3 0 1 3 8 -10 -1 -1
1532257071196494 -1 -1 0 -2 -5 0 -2 -2
1532257071241374 0 -2 -1 -2 -4 -1 -1 -1
1532257071279272 -1 -2 1 -2 -4 0 -1 -1
1532257071316174 -2 -2 -2 -5 -8 -1 0 0
1532257071354072 1 -1 0 -2 -1 -1 -1 1
1532257071383992 -2 -2 -1 -2 -3 -1 0 -1
1532257071406931 -2 -1 1 3 4 -2 -1 1
1532257071436851 -2 -1 -3 -3 3 0 -1 -1
1532257071458792 -2 -1 1 3 10 0 0 -2
1532257071488712 -2 -2 -2 -1 -1 0 -1 0
1532257071526611 1 -1 -1 -1 1 1 -3 -2
1532257071549549 -1 -2 -1 -2 1 -1 -1 0
1532257071579470 -3 -2 -1 -1 -3 1 1 1
1532257071594429 0 1 1 2 21 1 -4 0
1532257071624349 0 -3 -2 -2 16 0 -3 0
1532257071661251 -2 -1 0 0 -9 1 0 -1
1532257071714122 -1 -3 -1 -2 -6 -2 -1 -4
1532257071730066 -1 0 0 6 -19 -4 -2 -2
1532257071773949 -1 -2 -1 -1 2 1 0 -1
1532257071803869 -1 -3 -2 -7 -3 -2 1 -3
1532257071856728 -3 -1 -2 -5 3 0 -1 -2
1532257071916568 0 -1 1 -1 -5 1 1 1
1532257072006328 -1 -2 0 1 3 -1 -2 -1
1532257072066168 -2 0 -1 -4 -1 -2 -1 -1
1532257072133987 0 -1 -1 -3 0 -1 0 -2
1532257072148947 0 -1 -2 0 -3 0 0 0
1532257072193841 0 -2 -2 -2 -9 0 0 0
1532257072216771 -1 0 -1 -1 7 0 -2 -1
1532257072246685 -2 -1 -2 -1 0 -1 0 -1
1532257072269623 -1 -1 0 -3 -7 -1 0 0
1532257072344424 -2 -3 -2 1 6 -1 0 -1
1532257072449144 -1 0 -1 -4 -2 -1 -1 -3
1532257072553864 0 -1 -2 -2 -5 20 2 1
1532257072696483 -5 -6 -1 1 5 5 -1 -3
1532257072741362 24 4 -1 -5 -6 14 -5 0
1532257072862039 7 18 0 0 -2 1 -3 4
1532257072943821 -2 -14 0 1 15 15 15 7
1532257073011640 40 28 11 16 16 42 -20 2
1532257073131319 -61 -42 -1 -7 -4 -28 -7 -10
1532257073214098 0 -12 15 13 31 1 -10 9
1532257073266956 -9 -17 -9 -1 4 -6 2 -2
1532257073303858 -8 -23 -5 -3 -3 9 9 0
1532257073318820 -16 -25 -7 -2 4 -8 16 0
1532257073356717 7 -8 -1 -1 0 -6 -8 2
1532257073393618 6 18 1 -2 -3 3 3 0
1532257073431517 -5 -3 4 7 -3 18 18 3
1532257073521277 23 9 -1 6 -10 -5 -12 -3
1532257073544215 2 2 8 -6 -35 -2 -3 2
1532257073806514 -19 -27 -13 -7 -2 -5 -10 -7
1532257073994013 1 9 0 -1 1 -5 -2 -1
1532257074016951 -1 -24 -5 -4 -12 6 7 -1
1532257074301191 1 2 -1 0 1 -12 -4 -2
1532257074413890 3 -5 -2 -4 -10 0 0 -7
1532257074458770 -5 0 -2 1 4 -24 12 -4
1532257074616349 3 5 8 9 -14 -18 7 5
1532257074684167 1 1 1 -8 -9 -4 -4 -5
1532257074737026 0 -4 -4 -6 1 0 -1 1
1532257074773927 4 -1 -3 -6 -4 2 3 7
1532257074788903 6 6 2 3 4 11 16 8
1532257074803847 -2 -9 -2 9 7 -4 -30 -8
1532257074833767 2 6 3 5 6 -6 -32 20
1532257074856706 10 2 -2 -3 -7 -4 17 29
1532257074946466 -5 -2 4 1 -1 -6 16 -19
1532257074999324 0 -6 0 3 -4 -8 32 -41
1532257075074125 2 3 -3 -1 -7 -17 -11 27
1532257075112023 13 10 0 -4 -9 5 -17 20
1532257075133964 -12 11 3 6 11 -8 8 -52
1532257075217756 -22 -55 -16 0 -5 -14 7 -24
1532257075269601 5 -15 -18 8 12 24 6 0
1532257075284562 -10 -34 16 -5 -3 2 28 4
1532257075336423 -10 -25 9 2 7 -4 -45 -27
1532257075396263 -12 -27 -15 2 -19 -2 -6 20
1532257075494002 -32 -24 -26 4 8 -2 6 -17
1532257075553842 -7 -23 -16 -1 9 -10 25 5
1532257075666540 -10 41 7 -3 22 9 25 28
1532257075734359 -6 -32 -15 1 -9 10 -11 -13
1532257075988679 12 -5 -4 -1 -6 -16 10 5
1532257076043532 -4 -1 -2 1 -1 1 -7 -1
1532257076079435 -7 -6 -5 -3 -1 -15 -11 -2
1532257076169197 -1 -6 -7 0 0 -3 4 3
1532257076258956 -3 -4 1 -5 13 2 -2 -3
1532257076341734 -1 -2 1 3 -5 0 0 -3
1532257076379633 -2 -2 -1 -2 -3 -5 3 -1
1532257076470391 0 0 -1 0 -2 1 2 -4
1532257076514273 0 -2 -1 0 -2 -1 -4 0
1532257076551175 1 -1 2 -1 0 -1 -2 -1
1532257076589073 -2 -1 -2 -4 -2 -1 -2 -3

1532257076656891 0 0 -2 0 0 2 1 0
1532257076686812 -1 -2 0 -2 -2 -2 -2 0
1532257076761612 -2 -2 0 2 -1 -2 -3 -2
1532257076799516 0 -1 -1 -1 -3 -2 -1 -1
1532257076836418 -1 -1 -2 -2 -5 -5 -2 -2
1532257076896258 -1 1 0 0 -4 0 -2 -1
1532257076964076 1 0 1 1 2 1 0 -1
1532257077016935 -1 0 -2 -1 -2 -2 -1 3
1532257077061284 0 -1 -1 0 -2 0 0 -2
1532257077129103 0 -2 -1 2 -1 -4 0 -2
1532257077173982 0 -1 -1 -3 0 -2 2 3
1532257077211881 0 0 -2 -3 -1 0 0 -2
1532257077263742 -4 -1 -1 -1 0 1 -3 -1
1532257077301654 -1 -1 -1 3 4 -1 1 -1
1532257077369471 -1 -1 -2 -1 -2 0 1 -1
1532257077421320 -1 -2 1 -2 0 -1 0 -1
1532257077466201 0 1 -1 -2 0 -2 -1 -2
1532257077541998 -1 -3 0 0 1 0 -3 -1
1532257077631758 -2 -1 -2 -2 -2 0 -1 0
1532257077857043 -1 0 1 -2 0 0 -1 -1
1532257077931843 -1 -2 -1 -1 0 -1 -2 -1
1532257077961644 0 -2 -1 -2 -2 0 -1 0
1532257078059383 -2 -1 -2 -1 -1 -2 -2 0
1532257078119223 -2 -1 -2 -1 -1 -2 -1 -1
1532257078187042 -1 -2 0 -1 0 -2 -2 -3
1532257078208983 -1 -3 -1 -1 -1 -1 -1 -2
1532257078246882 -2 -1 -2 -2 0 0 -2 2
1532257078268823 -1 -2 0 -2 -3 -1 -1 0
1532257078283783 0 0 -1 -1 -3 -2 0 -1
1532257078328663 0 0 -1 -2 -3 1 -2 -1
1532257078344621 -1 -2 -2 0 -1 0 2 0
1532257078381521 -2 -2 0 0 -3 -1 -2 1
1532257078396482 0 -2 -1 -2 -1 -2 -1 -1
1532257078419421 1 0 -2 0 0 0 -1 -1
1532257078464300 2 0 -3 -1 -1 -1 -1 -2
1532257078479261 -1 -1 0 -1 -2 0 1 -1
1532257078494220 -1 0 -1 -2 -2 1 -1 -2
1532257078524140 0 -2 -1 -1 -1 -1 -2 0
1532257078546082 0 -1 -1 0 -2 -2 -1 -2
1532257078583980 -2 0 -1 -1 -1 -2 -2 -2
1532257078598941 -1 -1 -1 -1 -1 -2 -3 -2
1532257078621880 0 -1 -1 0 -1 0 -1 0
1532257078673740 1 0 -2 -3 -2 -1 -1 0
1532257078711639 1 -2 -1 0 -1 -1 0 0
1532257078749538 -2 -1 0 -2 -2 1 0 -1
1532257078794417 -1 -1 -3 1 -1 -1 -1 -1
1532257078816359 -1 -1 -2 -1 -3 -2 -2 -1
1532257078846278 0 0 -1 1 0 0 0 0
1532257078891158 -1 -1 -2 0 0 0 -1 0
1532257078906119 -2 0 -1 -2 0 -1 -1 -2
1532257078944017 1 -1 -1 -1 -1 -2 -1 0
1532257078981916 0 -1 0 -1 -1 -2 -2 -3
1532257079018819 -1 -1 -1 -2 -2 -1 0 0
1532257079071676 2 -2 -1 -1 -1 -2 -2 -2
1532257079116556 0 1 0 0 -2 -1 -1 0
1532257079139495 -1 0 -1 -1 1 -1 -3 -2
1532257079176396 -2 0 -1 -1 -1 3 -1 -1
1532257079206315 1 0 -1 0 -2 1 0 -1
1532257079236236 0 -2 -2 0 0 -2 -1 -1
1532257079266156 -1 -1 -1 -2 0 -1 -2 -1
1532257079297084 0 -3 -1 -1 1 -1 1 -1
1532257079312033 -3 -3 -2 0 0 -1 -1 0
1532257079348935 -1 -1 -2 0 1 0 0 -1
1532257079371873 -2 1 0 -1 1 -1 0 -1
1532257079386834 1 -2 -1 0 -2 -1 -1 -1
1532257079423735 -1 -1 -2 -3 -2 1 -1 -1
1532257079446673 -1 0 -1 -2 -1 -1 -1 -2
1532257079469612 -2 0 -2 -1 0 0 -1 -1
1532257079521473 0 -1 0 -1 0 0 -1 0
1532257079544412 0 -2 -3 -3 0 -1 -1 -2
1532257079566353 1 -2 0 -1 -1 -2 0 -1
1532257079596274 -3 0 -1 0 -1 1 -1 0
1532257079626193 0 0 -1 -1 -3 0 -3 -1
1532257079641153 -2 1 -2 -1 -1 0 -1 -2
1532257079657110 -2 -1 0 1 0 -2 1 0
1532257079687031 -1 -2 1 -1 0 0 -3 -3
1532257079708972 0 -2 -2 0 0 -1 -1 -1
1532257079723933 -2 2 -4 -1 -1 -1 -2 -2
1532257079776790 -2 -2 -1 -2 -2 -3 -2 0
1532257079791751 -1 1 -1 -2 -1 -2 -1 0
1532257079851603 -1 -2 -1 0 -1 0 -1 -1
1532257079881511 0 -1 -1 -2 -3 -2 1 0
1532257079896470 0 -1 -1 -2 0 -3 -1 2
1532257079926391 -1 0 0 -2 -2 -1 -1 -1
1532257079964289 -1 -1 0 -2 0 0 0 1
1532257080024129 0 -1 -2 -3 -3 -3 -2 0
1532257080039089 1 -1 0 -1 -1 -1 -1 -3
1532257080069009 -1 -2 1 1 0 -1 0 0
1532257080083969 -1 -1 -2 -1 -1 0 -1 0
1532257080098929 -1 0 -1 -1 -2 -11 -2 -3
1532257080128849 -2 0 -2 -2 0 -1 -1 -2
1532257080158769 0 -1 -2 1 1 1 -1 0
1532257080188689 1 -2 0 0 -2 -2 0 0
1532257080203649 -2 -1 0 -2 0 3 -1 -1
1532257080226588 0 -2 -1 0 -1 -2 -1 -1
1532257080249526 -1 0 0 -3 -1 0 -3 -1
1532257080294406 -3 -1 -2 0 -1 -2 -1 0
1532257080324327 0 -2 -4 -1 -1 0 0 -1
1532257080348263 0 -1 0 0 -1 -2 1 -2
1532257080399126 -1 0 -1 -1 -2 0 -2 0
1532257080429046 -2 -1 -2 -1 -4 -1 -1 -4
1532257080466945 -1 -2 0 0 -1 -2 0 0
1532257080511825 0 0 -2 1 -2 -2 0 1
1532257080533767 2 0 0 0 0 -1 0 2
1532257080556705 -1 -1 -1 -1 -2 -1 -1 -1
1532257080609564 -3 -1 -2 -2 0 -2 -1 -1
1532257080647462 -1 -3 -1 -1 -2 -1 -2 -2
1532257080684366 -2 -2 -1 -1 -1 -1 1 -2
1532257080721265 -2 -1 -1 -1 -1 0 0 -1
1532257080759164 -2 0 -1 0 -2 -2 -2 -2
1532257080774123 -1 -1 -2 0 -1 -3 0 1
1532257080797062 -2 -1 -2 -2 -1 -1 -1 -3
1532257080833964 -2 -3 -1 0 1 5 -1 -3
1532257080848924 1 -1 -1 1 3 3 4 1
1532257080886822 29 13 1 -1 1 39 13 11
1532257080923724 3 2 3 3 20 5 6 2
1532257080946661 6 -11 -6 -3 5 -39 -54 -6
1532257080961622 9 14 -1 -4 6 49 16 4
1532257080984561 0 -11 -4 -2 23 9 2 -5
1532257081014481 4 20 1 -1 -10 35 -1 -4
1532257081029441 -31 -15 -6 -7 -1 -15 -8 -2
1532257081126182 -15 -39 -3 10 15 -11 2 1
1532257081187019 -9 -23 -4 2 -12 -33 -25 2
1532257081345596 20 31 6 -6 12 3 15 2
1532257081396459 -13 -18 -9 2 -2 13 -15 -11
1532257081501188 6 -5 -3 3 -5 -13 -4 -2
1532257081598918 8 37 6 14 10 -7 -12 3
1532257081628838 -5 -8 -2 0 8 2 28 0
1532257081666737 1 -34 -11 3 -45 -7 -17 1
1532257081681697 3 -29 2 -3 13 13 10 -2
1532257081854235 -11 -38 -13 -2 -9 4 14 1
1532257082131494 0 -19 -2 -9 -8 -13 -18 -7
1532257082236214 -5 1 5 5 30 8 24 0
1532257082438673 2 0 -1 2 -3 3 -3 -1
1532257082499510 -2 10 -3 -3 1 -13 -4 -5
1532257082664069 -10 -22 -2 -2 4 3 8 0
1532257082830624 -1 8 -2 -2 4 1 -9 -4
1532257082881488 1 4 0 -1 -1 -61 2 0
1532257082994187 1 5 5 5 7 5 5 1
1532257083128828 2 -3 -14 -5 -12 15 5 7
1532257083406085 3 1 -3 -9 -12 4 22 54
1532257083496851 -2 -7 2 1 -12 0 -7 38
1532257083541723 9 3 -7 0 30 -5 37 29
1532257083563665 -4 -18 -20 -7 -5 13 51 -28
1532257083646442 2 -12 -14 -4 24 8 -32 -42
1532257083669382 3 2 35 15 4 3 55 -9
1532257083699302 -8 -10 -31 -6 1 0 6 -14
1532257083721243 -2 12 5 4 -5 10 19 19
1532257083736203 -2 -1 -1 -5 -43 -11 1 68
1532257083774101 11 -4 -1 -8 -2 12 30 66
1532257083812000 -13 -20 -6 -3 13 -2 -15 -47
1532257083833941 4 15 -8 5 -6 8 -9 0
1532257083886800 -3 14 4 3 -4 -5 19 -11
1532257083923702 -20 -21 3 -15 -15 0 14 -40
1532257083961601 3 -31 -26 -5 -9 -28 9 30
1532257084051360 2 -8 -6 37 27 -9 -32 -11
1532257084126160 -1 15 23 -23 -5 9 -27 -3
1532257084179019 -22 -22 -18 -3 -1 -4 -10 -37
1532257084291717 -3 39 -2 -1 11 -6 -28 24
1532257084389456 -5 -21 -45 -6 -10 -21 10 62
1532257084441317 6 11 -7 -1 -10 -8 -18 -6
1532257084516117 1 5 2 1 -4 -1 47 10
1532257084539056 4 -1 -5 -1 2 5 91 -8
1532257084583936 -3 -3 -3 2 3 -7 -38 -6
1532257084606874 -1 -2 0 -2 0 8 -3 -4
1532257084643775 -1 -2 -2 1 0 7 -10 0
1532257084682677 -3 -2 0 -1 -2 -3 -1 0
1532257084696635 0 -1 -1 -1 0 1 2 -3
1532257084734533 -1 -1 3 -1 0 -4 -4 -4
1532257084771435 -3 -2 -4 -3 1 1 -1 -1
1532257084794372 -1 0 0 -3 0 0 1 0
1532257084907072 1 0 0 -2 -4 -3 -2 -4
1532257084981872 0 -1 0 -3 -5 -2 1 0
1532257084996834 -2 0 -4 -2 -2 2 -2 -4
1532257085048692 -1 -2 -1 2 -6 -1 1 2
1532257085086591 -1 -2 0 -4 7 -3 -3 -2
1532257085124490 0 0 -1 2 -7 -3 -3 -1
1532257085146432 0 0 -3 -6 8 2 -1 0
1532257085184330 -2 -2 -4 -12 -17 1 -2 -2
