1532261784583189 -10 9 6 -14 -3 1 0 -2
1532261784680927 -3 6 3 14 16 6 1 2
1532261784705865 3 5 3 -21 -9 -5 0 -1
1532261784734797 7 2 3 19 7 -3 1 -2
1532261784781665 -6 -2 -2 7 -1 2 2 -1
1532261784868433 -6 2 13 12 3 3 0 -3
1532261784898353 -6 -1 1 0 -2 1 0 -12
1532261784959191 12 -17 -7 -10 -4 -5 -3 -10
1532261785018065 -2 0 -1 0 0 -9 -7 -29
1532261785055963 -30 -15 -11 -5 -3 5 16 22
1532261785070924 -2 7 -56 1 2 -4 -34 -18
1532261785138742 -21 -4 62 8 3 3 9 9
1532261785205564 -34 32 0 7 2 -2 -9 -2
1532261785326241 -18 43 25 25 13 6 7 5
1532261785423979 6 27 22 6 2 -1 2 6
1532261785445921 -9 -4 -1 -6 -15 -16 -46 37
1532261785468860 -4 108 12 -10 -7 -5 3 -30
1532261785505761 -2 41 18 -1 -3 -6 -12 1
1532261785550641 -16 -11 -18 -3 -5 -3 4 16
1532261785565601 -15 -34 -5 5 1 0 -3 -12
1532261785595521 13 10 -5 -12 2 2 -4 -1
1532261785648380 5 52 21 1 -1 3 -2 3
1532261785709217 -1 -22 2 -7 -2 -3 1 -5
1532261785843893 -8 -5 -7 -15 -4 3 3 -12
1532261785895718 -3 12 3 6 1 1 5 0
1532261785940598 -1 76 1 6 0 -2 0 -7
1532261786016395 -17 -20 2 1 -3 -3 -1 -2
1532261786115132 -21 -10 5 0 -2 0 -8 -2
1532261786182950 -4 -15 6 2 4 1 15 9
1532261786218854 13 32 1 13 1 2 10 15
1532261786255756 4 18 4 -11 1 2 0 -5
1532261786293654 -11 45 16 30 9 1 4 6
1532261786338535 10 -52 -4 7 7 2 0 -2
1532261786384412 0 -1 20 2 -3 1 -3 0
1532261786398374 -10 48 5 -2 -5 2 0 -6
1532261786488134 -12 -40 -8 1 -6 -2 -1 -3
1532261786548971 -4 16 4 -9 -1 1 -1 6
1532261786662667 -1 9 3 1 1 0 2 -8
1532261786698571 -1 -15 -6 1 -4 -2 -5 -1
1532261786811270 0 -7 -1 0 -1 -3 -13 2
1532261786848171 -3 -5 2 -1 -1 0 2 -4
1532261786879105 -1 -3 6 -6 -5 -3 -8 -5
1532261786908011 11 17 -3 7 -6 -2 1 8
1532261786945909 2 2 18 -15 -3 1 1 -11
1532261787020710 -2 -3 28 0 1 1 0 1
1532261787043648 -4 -7 -2 12 -2 -2 -2 0
1532261787103496 -1 15 -37 15 -2 -6 -3 -15
1532261787157352 -7 -2 -29 7 -1 -3 3 -1
1532261787224173 3 -2 -26 -12 -3 -17 -13 -4
1532261787320913 4 9 54 11 7 5 8 -3
1532261787448572 3 6 -36 1 -2 -1 2 -1
1532261787470514 5 -1 44 -2 -3 1 -8 8
1532261787561271 21 36 15 -18 3 2 7 7
1532261787643053 4 21 -3 -60 -9 -6 -7 -3
1532261787688940 -4 -13 -39 54 12 2 12 3
1532261787725831 -2 15 19 -2 -7 -7 -8 0
1532261787770711 3 -9 -6 -3 1 -1 -4 -25
1532261787913330 19 20 -18 -1 1 0 5 17
1532261787966188 -20 -24 0 18 7 7 10 -5
1532261788026029 -22 -11 22 -13 -7 -6 37 -27
1532261788040988 27 2 15 0 -4 -6 -3 41
1532261788078888 -12 6 7 -6 -3 2 -42 -52
1532261788213528 -12 -10 -10 -9 -7 -7 -31 -20
1532261788243447 12 -8 -20 -5 5 3 -24 2
1532261788273367 2 24 28 19 -5 -7 -4 -3
1532261788341186 -4 -35 -27 -18 -7 0 -9 5
1532261788483804 6 41 -28 -1 -6 -10 15 1
1532261788513724 -11 -27 -26 -1 -8 -12 -23 39
1532261788545639 4 -33 -1 -26 -5 0 -4 2
1532261788573565 -3 -42 43 105 38 17 10 8
1532261788588524 3 97 23 5 20 62 16 8
1532261788611463 4 14 -9 -9 -8 -17 -5 -5
1532261788626423 0 7 -24 -3 -1 -2 -6 -2
1532261788656343 18 80 -63 15 5 14 -3 29
1532261788723164 11 21 -55 -12 -3 2 -6 12
1532261788768044 4 -24 13 4 -4 -8 3 -16
1532261788820903 -7 8 -35 -14 -4 -4 -6 -13
1532261788858802 9 48 34 5 3 2 -2 13
1532261788895702 -2 10 -2 0 -3 -1 0 -15
1532261788910663 -7 -47 -12 1 -2 -2 -3 -13
1532261788963521 5 0 17 -1 -2 0 -3 2
1532261789076226 -2 -9 4 -1 -4 4 -4 -5
1532261789098168 23 -22 -11 -2 -4 -5 -2 0
1532261789122104 -18 -70 27 0 -2 1 3 1
1532261789151027 4 -11 -20 -1 0 -1 2 22
1532261789180947 6 -1 -3 1 -1 0 -1 3
1532261789210867 3 4 3 -9 -3 -2 -2 -4
1532261789240811 -3 -6 -3 1 -4 -2 1 5
1532261789263750 7 17 -9 6 -1 0 0 1
1532261789308638 -1 -1 -54 6 -1 -3 -2 -4
1532261789323597 5 5 -1 -5 -7 2 0 0
1532261789345538 2 -9 -71 -3 -3 2 2 0
1532261789413357 8 20 48 19 1 -3 4 4
1532261789443277 1 -7 80 7 2 0 1 -1
1532261789488157 -14 -19 -42 -38 -7 -4 -4 -8
1532261789630776 -10 1 14 -2 0 -20 -1 -3
1532261789662691 0 7 1 3 -4 4 0 0
1532261789690616 -1 -5 41 3 4 -1 1 -2
1532261789722531 -3 -14 29 -4 -4 7 -1 -1
1532261789743481 1 -3 -49 -4 -2 6 -3 -2
1532261789788361 1 4 46 4 -3 3 -2 -2
1532261789856180 1 6 -61 0 3 -5 1 1
1532261789916020 -2 -1 61 1 3 -7 -2 -3
1532261789975860 7 13 -19 -2 2 9 2 2
1532261789998799 2 -8 4 -4 -5 5 -2 -6
1532261790028718 4 -13 -24 -3 -4 -18 1 9
1532261790073598 -1 4 6 -2 3 -9 4 4
1532261790156380 15 15 10 12 3 -9 0 17
1532261790238158 1 -2 13 -2 -1 -16 -2 1
1532261790298996 0 -1 -11 2 0 -1 0 5
1532261790320936 -2 -6 -11 2 -1 -4 -4 3
1532261790343876 -7 2 18 2 -1 34 -3 -8
1532261790380777 -1 -5 -9 0 10 19 5 -4
1532261790410697 6 4 7 -1 -2 -6 -2 -5
1532261790440627 12 -1 -6 -2 1 21 2 37
1532261790486504 8 1 6 2 3 1 3 7
1532261790523405 -2 -7 -6 -1 1 4 1 -4
1532261790540373 -1 -1 -4 -2 -6 -23 4 -6
1532261790561305 -5 -1 -1 2 -5 -3 -5 -14
1532261790606184 -6 -3 -2 1 -1 3 -2 -12
1532261790628126 -5 0 -3 -4 -3 -4 -5 -6
1532261790651064 -4 3 -1 1 -1 -5 1 15
1532261790725863 1 -1 0 -1 -1 3 1 1
1532261790800664 3 -2 -1 -2 0 3 2 8
1532261790883443 -3 -7 -6 -4 -4 -3 -2 2
1532261790966221 1 -8 -3 0 1 1 1 0
1532261791003123 2 4 2 -12 -1 1 0 1
1532261791018083 5 4 9 -11 -3 0 0 -1
1532261791041021 12 -2 5 1 -1 2 5 1
1532261791070941 4 -6 -11 -24 -7 -8 -2 2
1532261791115822 11 1 0 -30 -3 1 0 -5
1532261791168680 6 1 -8 -21 -2 2 4 1
1532261791198600 -3 -2 -9 -11 -7 6 -2 -5
1532261791243480 -9 -5 -17 -4 -4 -7 -4 -6
1532261791371139 14 1 -7 -2 -5 0 -1 4
1532261791416019 -12 -4 -2 -6 -3 -5 -2 -5
1532261791565618 6 -8 -4 26 5 -6 -4 -3
1532261791595539 34 -9 -6 0 0 -13 18 22
1532261791648397 -3 -1 -4 -28 -9 1 -9 -3
1532261791671335 2 20 27 -2 0 -2 16 2
1532261791798995 -11 5 1 -39 -11 -1 -1 -6
1532261791835896 -7 -15 3 -7 -1 1 4 0
1532261791888754 17 -6 1 5 -1 1 2 0
1532261791963561 -6 1 0 6 -1 -2 -2 -4
1532261792098221 -2 -2 -3 3 2 3 -1 -5
1532261792143101 -1 4 4 -12 -6 0 7 -1
1532261792158061 -1 -8 11 45 4 19 2 -3
1532261792233858 -10 5 -3 58 27 3 -1 0
1532261792248818 2 16 19 13 -12 -1 -3 1
1532261792338578 -8 -13 -3 51 17 2 1 0
1532261792421357 15 1 9 0 -3 -6 -2 11
1532261792443298 0 2 -5 0 0 1 -3 -7
1532261792548018 -3 9 11 5 1 0 1 0
1532261792653735 -13 -3 -8 -5 0 -8 5 4
1532261792683655 -4 2 -3 -11 0 21 -5 -7
1532261792735516 -9 -7 -5 -13 -2 28 31 -5
1532261792818295 17 10 -7 79 46 6 3 7
1532261792908055 3 -5 -2 -17 -7 0 1 -2
1532261792991832 -11 1 11 -2 0 1 -1 -3
1532261793043692 -3 -5 -6 -2 -1 -3 -1 -18
1532261793126470 -2 1 2 4 2 -1 1 2
1532261793186311 -3 -1 -11 3 0 -2 2 6
1532261793276071 7 0 1 12 0 9 2 6
1532261793328930 1 5 5 -10 2 47 2 -3
1532261793350871 0 3 0 0 -2 -14 -4 6
1532261793380791 -8 -6 0 -17 -6 -6 -8 -7
1532261793395751 5 2 14 24 7 -1 3 2
1532261793440631 11 -1 -2 45 13 2 5 5
1532261793455591 -2 1 10 1 -1 0 -4 -7
1532261793485511 -5 3 6 -16 -8 -4 -4 -4
1532261793531388 3 4 6 -17 -5 -2 0 -3
1532261793553330 1 3 3 -10 -2 0 -2 2
1532261793591228 1 1 1 -1 -1 -5 -1 1
1532261793651068 -5 -11 -4 -6 2 0 0 -3
1532261793725868 3 29 11 -7 -7 -5 -2 1
1532261793770748 -1 2 68 -4 -3 -19 -1 -2
1532261793793687 2 14 -6 -1 0 7 -2 -3
1532261793823607 8 14 -20 -5 -5 -2 -1 -2
1532261793913367 -3 -12 -17 -2 0 0 -2 -3
1532261793936305 0 34 -6 -15 -3 0 0 0
1532261794026066 -2 3 -20 3 -1 1 -1 -3
1532261794063969 0 4 -31 -11 1 2 1 -2
1532261794079922 -8 -66 -3 0 -3 -2 -3 -2
1532261794100865 2 24 5 -6 -3 -2 -1 -1
1532261794123804 -4 28 24 7 4 1 2 1
1532261794145745 -2 -3 -52 -7 -5 -1 -1 -1
1532261794175665 1 -11 -44 -3 1 2 0 0
1532261794205586 -8 -12 -14 -6 -3 -1 -1 -3
1532261794243484 6 6 3 -1 0 -1 -1 6
1532261794281382 -20 -4 15 1 1 -3 -3 16

1532261794311303 -20 -16 -27 -4 -3 -31 11 -95
1532261794341223 21 -16 -41 -2 6 3 -1 3
1532261794380119 4 -41 -74 2 1 2 2 3
1532261794416023 2 -19 -14 37 6 -2 -4 6
1532261794445942 -1 -11 2 7 8 0 -3 3
1532261794475863 -1 -18 -16 3 -5 4 1 0
1532261794550691 1 17 15 1 -5 2 2 -2
1532261794573631 1 -29 8 -23 -7 -6 -8 -1
1532261794595571 -3 -3 -12 6 -3 -2 -1 -2
1532261794648431 -3 22 14 0 0 0 0 -2
1532261794686329 0 -7 -7 4 2 2 0 2
1532261794708270 3 -6 13 -7 -4 0 0 0
1532261794738190 2 6 -21 -4 -1 0 0 0
1532261794761129 2 7 18 17 5 2 -1 2
1532261794820973 0 2 -7 1 0 -1 -1 0
1532261794903723 0 5 -20 -2 -2 1 0 2
1532261794933643 -1 10 18 -1 1 0 -2 -2
1532261794970544 -2 4 47 -1 -2 -1 -1 -1
1532261795001461 1 4 -19 3 1 1 1 2
1532261795038363 -2 -3 23 1 0 -3 1 1
1532261795083242 2 6 -85 6 2 1 1 1
1532261795151061 -3 13 58 8 4 3 -1 -1
1532261795188960 34 -7 3 -3 -2 0 -1 10
1532261795203920 10 -4 3 -1 -4 -4 10 18
1532261795235835 -13 -47 10 -60 -9 2 5 12
1532261795248800 12 -3 -22 7 3 2 0 36
1532261795278720 -3 10 10 30 7 -2 2 16
1532261795293680 1 -7 -7 -2 -5 -2 6 16
1532261795315622 0 2 -22 3 0 3 5 4
1532261795345541 -4 12 27 10 0 -3 0 4
1532261795368479 -12 -8 -14 -6 -7 -4 -4 7
1532261795428320 -6 -4 -16 14 6 2 2 2
1532261795460234 -6 7 -19 -11 -5 -3 -5 0
1532261795503120 -4 16 8 -22 -13 -3 -2 -1
1532261795570938 0 -4 -3 5 1 0 2 -1
1532261795638757 3 -2 13 12 12 4 1 0
1532261795668677 -4 -19 9 0 -6 -2 -1 -2
1532261795705594 -3 -5 1 15 6 2 0 -1
1532261795735498 1 31 3 -16 -11 -5 -1 1
1532261795751456 -3 20 -13 -9 -4 -1 -1 -2
1532261795773407 -1 -13 4 -3 -2 -1 0 -2
1532261795788357 -1 -3 -14 0 -1 0 0 2
1532261795818277 5 -6 -2 -1 -1 0 -1 1
1532261795856176 5 10 -2 -8 -1 1 1 2
1532261795888091 -11 -30 3 -4 -4 -5 -7 -7
1532261795923995 6 33 6 2 -1 -3 -3 1
1532261795983834 3 8 1 -5 0 2 2 52
1532261795998794 -3 24 10 1 0 0 -2 -13
1532261796035695 26 90 72 5 1 4 10 30
1532261796067611 23 -87 -10 3 8 8 10 39
1532261796088554 -13 12 -12 -1 1 0 -1 -11
1532261796111509 -2 23 7 -6 -7 -4 -6 -16
1532261796126453 -22 -74 17 6 3 -1 1 3
1532261796148395 1 -49 11 20 11 8 3 -5
1532261796171333 1 -44 -27 -31 -10 -3 0 -2
1532261796186293 -17 28 25 -6 2 0 -1 -9
1532261796223195 -4 -2 22 40 19 3 0 -1
1532261796284031 -19 -23 -10 -5 -5 0 -4 -15
1532261796298992 5 -4 18 25 3 -1 0 -3
1532261796350853 -4 -35 -16 2 1 1 -2 0
1532261796365827 30 17 -7 0 -2 0 2 7
1532261796410693 -3 31 -4 18 0 -1 -1 -3
1532261796448592 -14 -38 11 6 -1 -1 0 1
1532261796546330 -8 22 8 -4 -2 -4 -6 -8
1532261796583232 9 92 18 0 3 -2 -1 -4
1532261796651050 -13 35 -16 -13 -5 -2 -4 -13
1532261796725850 10 -44 -6 23 6 0 2 -1
1532261796778709 8 -27 -4 -20 -6 -2 -1 12
1532261796815611 -30 5 -3 -3 1 0 -2 -28
1532261796900384 5 -46 -15 -10 -1 -1 1 -15
1532261796922325 -5 -12 -6 -1 0 -1 -3 -8
1532261796958229 20 79 12 0 -3 -4 1 4
1532261797003109 5 -11 -3 -1 -3 0 5 4
1532261797093866 -21 25 -6 1 1 0 -2 -7
1532261797168666 -21 -80 14 18 5 2 -3 -2
1532261797266405 -10 31 -10 -17 -8 -3 8 -2
1532261797311284 10 19 4 -3 -2 -1 0 11
1532261797401057 4 27 2 1 3 1 0 1
1532261797445927 9 1 -1 -7 -1 -1 1 16
1532261797460885 -8 -1 -6 1 0 0 1 -3
1532261797477840 2 -4 7 3 -2 -3 -2 4
1532261797498783 -7 10 -19 6 3 6 -2 -39
1532261797513743 5 -7 59 -1 -5 -1 0 -3
1532261797603503 3 -8 5 -1 3 2 -17 -3
1532261797648383 -2 1 9 -7 -2 1 0 -21
1532261797693263 -4 4 -6 -2 -5 -11 21 20
1532261797746122 -3 -10 4 -9 -3 -1 23 7
1532261797776042 0 1 68 -1 0 -2 -15 2
1532261797805974 3 5 -21 -1 6 -2 -56 -9
1532261797835882 4 2 -22 13 3 3 -22 -14
1532261797888741 0 -2 3 6 6 5 33 3
1532261797933620 8 3 -11 -7 4 1 -1 4
1532261797948580 4 5 4 -24 -9 -1 -22 2
1532261797993460 21 13 23 21 0 0 -12 4
1532261798031359 18 53 13 25 1 -2 -7 0
1532261798098181 -9 -22 40 -25 -6 -2 -3 -4
1532261798143061 -11 -15 -97 -31 -3 0 0 1
1532261798233818 -3 26 91 -11 -2 -1 1 -6
1532261798255759 13 -20 -94 10 3 4 34 23
1532261798278698 -19 24 32 10 4 1 -26 -37
1532261798301637 -16 -75 -30 -13 -7 -4 78 -2
1532261798330559 -13 14 16 28 4 0 -17 -5
1532261798398378 21 22 8 42 24 12 10 24
1532261798570916 -14 -55 -128 -7 6 6 4 -13
1532261798587871 4 -10 -23 9 3 2 9 29
1532261798645716 -16 21 32 16 -4 -3 -7 -57
1532261798766394 -27 -14 60 14 13 13 73 -14
1532261798811274 -1 -51 23 9 -1 0 -34 5
1532261798841194 9 9 -39 -6 3 1 4 7
1532261798865130 -12 -29 0 8 2 -3 -16 -2
1532261798893055 -21 19 -2 -25 -7 -6 -4 -12
1532261798968852 6 26 -23 4 -4 7 2 2
1532261798983823 -10 -11 -3 -7 0 -7 -5 -10
1532261799080562 -4 -29 27 3 2 5 5 22
1532261799133412 2 -10 4 1 2 1 2 32
1532261799298969 -5 70 17 0 -2 -7 0 -17
1532261799380751 6 -5 -8 30 10 2 5 13
1532261799440590 -4 -14 -10 -9 -9 -1 1 -6
1532261799486468 0 -9 -41 -52 -15 -2 -1 1
1532261799568252 4 3 -75 4 7 1 3 0
1532261799651028 -3 -13 -8 -9 -1 0 2 12
1532261799726825 0 -4 5 2 3 -5 0 -2
1532261799778687 -8 -2 -6 -3 0 1 -1 -2
1532261799815588 9 10 6 -7 -5 3 -1 3
1532261799936265 7 14 30 -2 -1 -2 -1 0
1532261799966185 3 3 -4 1 -1 -2 1 3
1532261800026025 0 -7 10 2 0 4 -1 -2
1532261800130745 -1 7 10 2 0 -9 -4 0
1532261800207540 3 1 -3 0 -2 0 -4 -2
1532261800244441 2 8 -15 -4 -1 1 0 20
1532261800266382 -2 -3 -9 -3 -2 12 2 22
1532261800281343 2 9 2 2 1 2 -2 -1
1532261800409001 -15 -2 0 0 1 1 1 -2
1532261800513721 -22 -2 -4 -1 1 -3 -4 -58
1532261800543641 2 -4 -3 -2 -3 -2 -3 4
1532261800641379 -5 15 11 8 -1 0 1 6
1532261800723161 5 -1 -18 -3 -4 -2 -1 -3
1532261800753081 -6 3 0 -3 1 -2 2 0
1532261800790979 1 -5 10 6 -2 8 1 1
1532261800813919 3 6 -4 -9 -2 0 -1 -1
1532261800843838 -1 4 -3 2 -1 2 22 -1
1532261800940580 16 7 -73 4 3 -5 -3 -2
1532261800963518 -10 -1 -3 2 3 -3 -9 3
1532261800986460 -12 -27 -6 28 7 14 43 7
1532261801038318 -4 -20 9 -12 -6 -5 -11 -2
1532261801091176 -2 5 -1 -30 -5 -7 -16 -1
1532261801151017 5 22 8 -10 -2 6 -5 -1
1532261801203875 -2 0 -12 6 -1 13 24 4
1532261801315577 1 -9 2 -17 1 -7 -12 0
1532261801330537 -1 -7 -17 -29 -9 4 -5 -5
1532261801353475 5 2 -11 10 14 -2 -19 -11
1532261801368435 2 29 8 14 5 0 6 2
1532261801383396 -3 42 5 8 -4 -2 7 -1
1532261801413316 8 -10 -10 15 0 -5 2 0
1532261801466174 -11 -20 -1 -4 -7 0 5 -1
1532261801600814 10 3 1 7 -1 -5 -3 4
1532261801668633 -6 -8 -5 -29 -14 -12 6 -7
1532261801698553 3 10 -9 0 -2 5 -6 -1
1532261801721507 -3 3 -7 -33 -8 -38 -37 -2
1532261801743434 -4 -1 9 4 1 -20 -3 0
1532261801773353 -1 -3 -19 -2 -12 13 17 2
1532261801803273 -11 -70 -3 -28 -89 -3 26 -6
1532261801818232 6 21 -2 -5 -30 -17 -15 6
1532261801833193 2 9 7 46 34 2 -11 -2
1532261801863119 -8 -24 -1 -30 -40 -8 1 -3
1532261801901011 -8 2 11 33 21 1 -3 -4
1532261801923950 -16 -17 -2 -1 1 3 -4 -2
1532261801953870 -18 -10 -5 -13 7 -1 -1 -5
1532261802020691 36 -20 -10 -6 5 -9 -1 6
1532261802096489 -1 -6 1 -1 2 0 -7 -3
1532261802111448 6 4 -4 -1 -2 -3 -3 2
1532261802148350 -8 -3 8 38 10 -4 9 0
1532261802194228 2 -2 2 9 4 21 -2 1
1532261802231129 2 0 -2 -27 4 11 -2 -4
1532261802253070 -1 -17 -12 -20 -6 35 3 7
1532261802298947 7 7 8 4 26 -46 -75 -1
1532261802313908 -10 -10 -1 16 -24 -20 -12 -7
1532261802343827 -3 0 12 12 -6 3 38 -1
1532261802373747 7 15 37 38 10 13 15 3
1532261802395688 -6 -2 -2 -37 -16 -2 15 3
1532261802433587 1 -13 -27 -20 -4 -3 -3 -3
1532261802463515 2 -3 -13 -16 -4 0 -4 1
1532261802479465 1 -2 -6 0 0 2 -2 0
1532261802516365 -5 -1 -7 -4 -1 -4 -8 -3
1532261802538307 -6 4 6 -1 3 3 -3 -2
1532261802643028 4 10 6 2 -2 -2 -8 2
1532261802673944 -2 6 3 0 -1 0 -3 1
1532261802703864 -1 -32 3 16 7 1 -1 -2
1532261802718825 4 -13 -36 -16 -4 1 1 1
1532261802770686 2 -6 -9 -11 -2 1 -2 -2
1532261802838505 -2 -77 -28 9 2 0 -3 0
1532261802898345 0 16 -10 -5 -3 3 0 0
1532261802966163 0 1 -7 -1 -2 -1 -2 -2
1532261802996083 3 10 -32 -4 -2 0 1 0
1532261803018025 -1 -4 -18 -5 -3 0 0 -2
1532261803048941 -2 -3 -19 -2 -3 0 0 -2
1532261803100803 0 -18 -37 -8 0 -1 -2 0
1532261803115763 -3 3 11 -3 2 1 2 2
1532261803153662 -7 6 22 5 0 0 2 5
1532261803184579 -23 25 -49 -14 -14 -32 -45 -2
1532261803198542 -13 -5 -10 -5 -4 -17 4 -46
1532261803236440 5 -20 -54 -12 -3 -2 7 -6

1532261803266360 16 14 -32 -38 -3 13 9 6
1532261803288302 -8 -11 15 -20 -12 -7 2 -1
1532261803311240 0 -8 9 0 -2 1 18 4
1532261803348142 -4 -7 -37 8 -1 -6 2 -5
1532261803453859 0 0 -8 -11 -4 -2 1 -3
1532261803520681 -2 -7 -23 -17 -4 -2 -3 3
1532261803535640 2 18 26 -4 -5 -1 -1 3
1532261803550600 0 1 -14 0 4 0 0 1
1532261803573539 -2 -1 0 -3 -3 0 0 1
1532261803595489 -1 -2 -2 -4 -2 2 2 -1
1532261803626398 -1 -5 -4 -1 1 -2 0 1
1532261803650333 0 0 8 -3 1 0 1 0
1532261803686238 -2 -8 -31 -9 -2 2 5 9
1532261803701197 7 10 46 4 -2 -5 -4 2
1532261803731117 -4 5 21 3 -1 -5 -4 -19
1532261803775997 -4 16 33 0 -2 -2 0 2
1532261803805918 -2 -3 -1 -5 -1 -1 -1 0
1532261803843816 -1 -4 12 -7 -1 -2 1 2
1532261803888696 -2 -4 -4 2 0 -1 2 -1
1532261803903656 -1 -1 9 0 1 -3 0 -2
1532261803940557 -1 6 6 -13 5 -1 0 2
1532261803963496 4 -7 -8 5 2 -4 1 1
1532261804008375 1 6 -17 6 -1 -3 -6 2
1532261804031314 -2 3 22 0 -3 -2 0 0
1532261804061235 0 -3 2 2 0 4 2 -1
1532261804083176 -1 -15 -16 -2 -2 -1 1 0
1532261804121075 -1 -4 -4 2 -2 -1 0 0
1532261804136035 -3 -2 16 -2 -2 5 2 0
1532261804165955 7 20 14 11 2 -14 1 4
1532261804195875 2 -13 -36 10 4 5 3 1
1532261804218813 -1 2 26 0 3 3 0 1
1532261804240755 -3 1 -24 2 -3 0 0 -2
1532261804293613 -2 8 23 4 0 9 -3 -1
1532261804330515 2 -26 -42 -3 3 29 30 52
1532261804368413 -4 24 76 5 0 4 -3 -17
1532261804383373 -1 13 -1 -19 -5 -19 5 -16
1532261804406312 3 15 -9 9 -2 7 -3 8
1532261804436232 0 5 -35 30 4 -2 1 3
1532261804458174 0 -14 76 -18 -8 -24 -3 -3
1532261804519028 2 0 -7 -1 2 -2 0 -2
1532261804540952 -2 4 -10 -17 -6 2 1 0
1532261804563891 -1 -9 -26 10 4 -1 -1 1
1532261804593811 -2 6 -12 4 0 0 -2 -3
1532261804615752 -1 -3 0 -11 0 -1 0 1
1532261804646670 -1 -5 -20 17 5 3 3 0
1532261804660632 0 -11 5 -7 7 4 1 2
1532261804683570 2 0 -3 6 -2 -1 -2 -2
1532261804728450 3 5 29 85 33 6 1 3
1532261804796270 -3 -4 2 -22 -9 0 -1 0
1532261804871068 -1 3 -8 -6 -6 -1 -3 -2
1532261804930910 -1 3 5 6 5 0 -1 -6
1532261804998728 -2 -1 -14 1 2 1 -7 -1
1532261805050589 -16 0 3 -3 -7 -1 -3 -2
1532261805073530 0 8 0 0 -1 0 -4 2
1532261805126387 5 31 -18 -2 -3 -4 -4 -12
1532261805141346 3 20 -8 7 4 3 0 -9
1532261805178248 -6 15 5 -1 -1 -5 -7 -12
1532261805208167 12 17 3 -6 -6 -7 -3 -6
1532261805225123 9 54 -37 3 1 -1 -2 1
1532261805247076 -9 -29 10 9 3 2 1 -7
1532261805275986 -17 -31 8 1 0 0 -1 -8
1532261805313886 4 -38 -28 -7 0 -1 2 0
1532261805403646 4 -25 8 6 1 0 -12 4
1532261805463486 -12 -9 -14 7 6 3 3 -1
1532261805493405 -16 52 4 -3 0 1 -2 -7
1532261805516344 -2 -37 -9 -5 -2 0 -3 -3
1532261805531304 3 62 -15 5 -1 -3 0 5
1532261805607117 1 7 29 -7 1 -2 -7 5
1532261805680903 -32 -40 -19 -16 -6 -1 3 1
1532261805755713 5 23 -6 39 16 2 -5 -5
1532261805847459 0 -21 -6 -7 2 2 -3 0
1532261805868402 -4 -22 -34 -6 -3 -3 -9 -3
1532261805913283 -7 32 -6 -3 3 0 10 -10
1532261805937218 -14 2 11 16 2 1 -2 -10
1532261805996061 9 5 15 10 2 1 -3 -3
1532261806040940 10 16 -5 4 -5 -4 -3 2
1532261806145661 0 -18 -1 -3 -3 -1 3 2
1532261806296258 1 2 18 17 4 1 -1 0
1532261806490739 -12 -1 -10 -22 0 -2 1 -4
1532261806588476 1 -7 -3 14 3 4 0 2
1532261806701175 0 3 4 1 0 0 -1 1
1532261806790935 -2 2 1 2 0 0 -2 -7
1532261806820855 -2 -3 12 5 2 1 1 3
1532261806880695 -1 1 2 4 2 2 0 -5
1532261806903634 -4 -10 -2 -2 0 -3 -1 -3
1532261806925575 2 -2 5 -2 -1 1 1 2
1532261806971453 24 15 -1 0 -5 0 0 -3
1532261807023314 -6 -3 -6 1 4 4 0 -1
1532261807046252 10 -5 1 -2 0 -3 2 4
1532261807083154 6 4 3 -1 2 1 5 5
1532261807106093 1 3 48 0 1 -27 9 39
1532261807128034 -11 11 23 -5 -2 -3 0 -25
1532261807180893 10 -14 53 6 7 8 27 27
1532261807210813 6 -7 40 -6 5 1 -12 -18
1532261807278631 10 24 8 14 -5 -4 -17 2
1532261807346449 15 27 -27 -12 -4 -7 20 48
1532261807391329 1 -62 42 4 5 -1 4 -5
1532261807413271 3 13 28 -2 -9 -7 -27 -8
1532261807473128 -32 -46 -23 -93 -14 2 38 -14
1532261807496050 27 37 1 15 9 11 10 10
1532261807525970 7 1 -12 -55 0 1 9 7
1532261807555890 -13 -20 -12 0 -1 0 -9 -5
1532261807653628 -2 7 -14 -2 5 0 1 -1
1532261807691527 10 51 -27 -4 -5 -3 13 42
1532261807721447 11 5 18 7 0 -8 23 -15
1532261807761340 -8 -19 -10 41 8 2 -24 6
1532261807773314 -14 -41 5 0 -16 -11 -13 4
1532261807788268 -26 -42 23 -65 -31 -11 -4 -19
1532261807811206 10 36 31 6 10 -3 34 6
1532261807886007 0 -27 -28 25 -3 9 -11 -4
1532261807923906 9 -57 -31 53 16 9 -7 3
1532261807945847 29 23 31 2 1 -1 -4 14
1532261807983746 55 75 4 5 0 -3 15 59
1532261807998705 6 82 -35 -8 -6 -13 -81 -70
1532261808035607 -1 -7 -25 2 3 -3 58 52
1532261808065527 -31 9 -18 -2 -8 -6 39 -9
1532261808088466 10 1 1 1 3 5 8 -36
1532261808223106 12 -11 16 23 2 2 27 -7
1532261808246044 32 43 -3 -25 -15 -10 -9 -3
1532261808298903 12 -38 7 -5 -1 1 -11 51
1532261808328823 -1 27 3 -4 -8 -10 -20 -35
1532261808365724 6 24 5 7 7 0 -7 -6
1532261808388663 24 13 -5 -2 -4 -3 18 35
1532261808410614 -6 -25 -10 -46 -11 -1 7 -10
1532261808478423 15 -32 -21 22 -4 -3 2 8
1532261808501361 -4 -26 3 20 5 7 -8 5
1532261808553223 -15 -4 -4 -9 -2 -8 -3 5
1532261808576161 -15 -32 1 -11 0 7 5 9
1532261808621041 -5 -10 41 -17 -4 5 1 26
1532261808680881 20 61 10 -9 -4 -2 -10 31
1532261808748700 -11 -32 -14 -1 -1 0 5 5
1532261808770641 7 25 18 0 1 2 -1 2
1532261808846439 -7 -23 76 -8 -6 -5 -4 -24
1532261808876359 -1 -5 -8 -4 -2 0 -1 -2
1532261808943180 -4 38 32 -5 -3 -4 -1 -12
1532261808958140 11 5 -25 -3 -3 -1 -3 -4
1532261808996038 5 32 -9 -26 -7 -2 -1 0
1532261809010998 3 -11 -33 19 3 0 0 -1
1532261809063857 -1 -15 -10 59 20 4 -1 1
1532261809115718 -2 3 -8 -13 -8 -3 -2 -2
1532261809153617 -1 -5 -5 33 18 3 3 1
1532261809258338 10 4 1 -14 -8 -6 -4 -3
1532261809303217 -6 -15 20 -10 0 3 2 -2
1532261809385995 -4 -4 -23 2 2 2 -2 3
1532261809431873 -7 -11 -1 -5 -3 -6 3 9
1532261809454811 3 1 -20 -7 -4 -2 -2 -2
1532261809500689 0 -11 -13 3 -1 -4 -2 -2
1532261809648294 -1 0 28 -5 -3 -3 -1 -2
1532261809671233 -1 -1 -3 5 8 3 0 -6
1532261809693174 2 25 38 0 -3 -5 1 4
1532261809708135 0 -2 -12 -4 -3 -1 0 0
1532261809731073 0 3 -17 0 3 3 -1 -16
1532261809777948 3 -3 -9 -2 -3 -3 -2 2
1532261809798892 -9 1 -8 0 -1 0 -3 -13
1532261809843772 -11 16 1 2 2 0 1 -17
1532261809874689 3 -8 -5 -3 -2 -2 -1 5
1532261809910593 3 0 0 -2 -1 -3 -5 -12
1532261809925552 8 6 0 0 -2 1 4 41
1532261810031270 0 8 -1 0 0 -1 2 -7
1532261810061190 -4 -2 -2 -2 -2 2 -2 -5
1532261810180870 -1 -3 -4 -3 1 0 -1 0
1532261810233742 -6 -11 -13 -40 -10 -5 -12 -9
1532261810263649 8 5 10 25 8 2 5 3
1532261810285590 0 -2 -2 -6 0 -1 4 1
1532261810308529 7 5 3 -8 0 0 13 3
1532261810376347 -17 8 1 -11 -1 -3 1 -9
1532261810451147 6 -20 -3 12 -2 -4 -8 -1
1532261810481068 -15 -5 -2 24 11 4 12 -2
1532261810540908 -1 -2 -1 18 2 5 8 1
1532261810585788 1 -2 -7 -13 -2 16 -14 -1
1532261810645627 2 4 22 79 19 68 -18 -4
1532261810675547 1 5 0 -36 -5 19 -30 -3
1532261810698486 1 -1 -4 33 27 6 -11 -3
1532261810752342 -1 -11 -29 -53 -8 8 17 -1
1532261810781265 -3 -2 -7 -3 -9 -18 -4 -4
1532261810796234 2 -5 2 60 9 -12 -2 0
1532261810856077 -1 2 6 -20 -2 2 2 -3
1532261810885985 14 -14 -10 -36 -12 -9 -2 -3
1532261810990705 0 2 0 1 2 3 3 1
1532261811058523 -5 5 1 -13 4 32 12 4
1532261811088443 -11 0 12 6 8 61 6 2
1532261811103403 -1 -6 -2 7 -11 -70 -10 2
1532261811141302 0 1 12 24 -3 -19 4 0
1532261811163243 -4 -5 -27 -30 7 47 36 -2
1532261811201142 -3 -1 0 23 1 -4 -11 -4
1532261811231061 8 11 6 -28 -4 -5 0 4
1532261811320822 5 5 -2 -15 -9 8 1 0
1532261811350755 15 -6 -1 -7 4 19 13 1
1532261811380662 -4 -7 4 6 -1 -4 -5 -3
1532261811463440 -4 6 1 6 0 1 -1 0
1532261811508320 4 0 -2 9 5 35 -5 -1
1532261811546219 -6 0 3 6 1 -18 8 1
1532261811591099 6 -1 0 -3 -8 -44 41 5
1532261811621018 -5 -7 -9 -8 -15 13 -32 2
1532261811658918 6 4 -15 -17 -3 17 14 4
1532261811703798 4 6 0 -12 -5 -7 7 -2
1532261811748678 -10 1 9 -35 -6 -27 -13 -1
1532261811778598 29 -14 -27 106 43 -6 11 8
1532261811868358 3 -2 3 3 -4 -3 3 3
1532261811891296 -13 6 3 -10 -3 3 -4 -7
1532261811943157 -7 -2 6 19 -7 -29 -4 -4
1532261812010977 -8 -3 -1 -18 -9 -32 39 -1
1532261812040896 -4 3 2 -6 2 -8 -8 -6
1532261812160576 -9 -6 -35 -14 -15 -8 13 -7
1532261812221414 5 5 13 6 5 13 -1 3
1532261812236373 7 17 19 10 -3 -7 -3 3
1532261812379002 -11 8 17 1 3 4 0 -3
1532261812400933 -16 3 -2 0 -1 0 -1 -2
1532261812468751 2 4 -18 -3 -2 7 0 -1
1532261812520614 -1 1 15 2 -1 1 0 2
1532261812588432 1 27 76 75 28 10 5 5
1532261812716091 3 36 8 -7 -3 0 -2 -2
1532261812768949 1 -20 22 3 1 3 2 2
1532261812783909 0 -5 31 0 -1 -1 -1 -1
1532261812880651 -1 -2 -11 2 4 3 5 0
1532261812956448 -2 -5 -6 -8 -3 0 -1 -4
1532261812986369 -2 -15 -13 4 1 2 -2 2
1532261813076128 -13 13 -25 -7 -1 9 24 75

1532261813278587 1 2 -31 -24 -4 -1 1 -4
1532261813368361 -1 -20 -11 0 -1 -4 -2 -4
1532261813413241 -4 -14 -14 3 1 -1 0 -4
1532261813488041 0 -6 -10 -2 -2 -3 -2 0
1532261813578801 1 11 11 1 1 12 3 3
1532261813593759 4 -1 -12 -3 0 2 -2 3
1532261813623679 -2 2 8 2 0 -4 -2 -2
1532261813691497 2 8 24 3 -1 -3 -1 1
1532261813713439 0 3 -23 -3 -4 -1 -1 -1
1532261813743359 0 8 32 1 0 -1 -4 -4
1532261813812175 -5 -8 -43 5 5 -1 9 13
1532261813827135 16 -2 21 1 4 21 3 -33
1532261813848079 10 -20 16 -3 -7 19 -12 29
1532261813863039 16 -11 -4 -3 -3 -18 -16 52
1532261813893956 -17 3 25 -1 -5 -5 6 0
1532261813945818 1 44 -25 40 24 -10 2 -22
1532261813960778 -7 9 62 12 -4 -5 6 -16
1532261813990697 -2 0 -37 -12 -4 -2 0 -5
1532261814043556 -4 9 -27 -19 -5 1 1 8
1532261814141311 1 -3 -20 -11 -8 -5 -3 -1
1532261814193156 2 11 12 -5 0 -2 -1 -4
1532261814260975 -1 4 3 -2 -2 -3 -1 -1
1532261814553193 -3 -7 -5 2 -5 -2 0 -1
1532261814643951 -8 13 20 10 1 -3 -3 -23
1532261814688830 28 7 -6 0 1 3 5 14
1532261814718751 -16 -50 -23 -1 -1 -1 -4 -15
1532261814748670 -13 21 -3 -5 -1 -5 -7 -25
1532261814808522 27 -8 19 2 -1 -1 -4 2
1532261814838430 -7 -35 -13 -7 -4 -1 -1 -2
1532261814876329 -14 23 -10 -8 1 0 3 6
1532261814913230 11 8 -8 -13 -6 0 2 5
1532261814943150 -15 -52 -20 -7 -5 -2 0 -3
1532261814996009 -22 42 -14 5 3 2 -2 -1
1532261815055856 6 65 25 13 4 2 2 2
1532261815168555 -5 -49 10 3 0 -1 -5 -10
1532261815198475 5 -20 31 -4 5 -2 -5 -1
1532261815243355 4 -49 -16 -6 -1 -2 -8 4
1532261815274272 -2 19 15 5 3 1 6 9
1532261815318154 -2 -11 19 8 1 0 1 0
1532261815415893 -24 -28 2 -5 -2 -1 0 1
1532261815445814 24 -47 -10 3 -2 -2 0 -4
1532261815520613 -10 15 14 -3 0 3 -1 -5
1532261815566492 -2 58 -13 -16 -7 -4 -5 -4
1532261815588432 -5 -12 -8 -15 -8 -8 -2 -6
1532261815633312 0 -18 -36 0 2 2 -2 -3
1532261815671210 -8 -6 11 10 -1 -2 0 -6
1532261815693152 12 -66 -13 8 3 2 3 -2
1532261815738032 -7 32 15 7 0 -1 0 -13
1532261815754006 0 12 5 -12 2 -2 -1 4
1532261815843749 0 14 -3 4 5 1 1 0
1532261815918549 2 -9 0 1 3 3 -1 2
1532261815986368 -5 -21 -6 17 5 1 0 -1
1532261816093082 -2 -13 5 0 -8 -3 -5 -5
1532261816143947 1 -3 -1 6 -1 -1 -1 -6
1532261816240688 0 -4 2 4 -1 -1 1 15
1532261816263627 -3 -6 -2 -1 -2 0 -2 -2
1532261816331445 -2 3 4 0 1 -3 1 -2
1532261816346405 8 3 32 3 -2 -2 1 11
1532261816368346 -1 0 -3 1 5 0 -1 4
1532261816428187 -10 4 -61 -11 -6 2 -14 9
1532261816466085 33 12 2 6 5 -2 7 48
1532261816548864 1 -7 29 -6 -3 5 9 -6
1532261816600725 0 -15 -70 -2 5 10 12 10
1532261816630645 -8 -17 9 -1 3 2 -19 -10
1532261816645605 -2 -2 17 -2 -5 -8 -5 -7
1532261816660564 3 -1 -24 65 8 0 -6 -7
1532261816683503 -1 13 88 -17 -3 -4 1 -8
1532261816781242 9 42 -25 -12 -6 -4 -21 -2
1532261816826122 6 41 -6 1 1 4 9 4
1532261816841082 8 10 36 -4 -1 1 -30 -2
1532261816877983 -4 -2 -7 32 0 -6 -20 -2
1532261816900922 5 5 26 46 -3 -7 -4 -1
1532261816923861 11 1 -89 -23 -3 -4 -17 8
1532261816960762 -3 7 36 -6 -7 -4 14 22
1532261816983701 -10 -28 51 -7 1 3 16 -62
1532261817043541 44 35 -8 4 -5 -3 28 58
1532261817097397 -11 -37 -11 -11 0 -3 6 -66
1532261817118341 -6 -22 -12 -1 7 8 24 1
1532261817141279 -10 -27 -3 -26 -6 -4 -10 -4
1532261817172200 -2 -13 58 25 8 1 -24 -2
1532261817186160 3 -9 1 -20 0 -2 -8 -5
1532261817201119 -24 -38 78 -4 1 1 2 -3
1532261817239018 -5 -14 70 -9 -6 -5 -10 -10
1532261817268937 17 11 62 7 10 9 8 -8
1532261817305839 -6 12 -70 2 2 7 6 20
1532261817335761 19 -15 -55 11 0 -3 39 49
1532261817418537 2 -21 9 -5 0 15 14 11
1532261817463435 -14 -41 -15 -15 -5 -5 -10 -2
1532261817486356 4 28 49 26 8 4 -1 1
1532261817516277 -1 -35 -38 1 -5 -5 -67 -5
1532261817546197 13 7 -8 15 19 8 -14 4
1532261817591076 -4 -16 25 -23 -10 -4 1 0
1532261817643936 4 53 35 6 6 11 26 31
1532261817665876 -11 0 -20 -5 -3 -1 41 15
1532261817680836 6 -17 15 -5 -10 -10 -30 -32
1532261817710756 8 -9 -5 6 11 20 -3 1
1532261817725717 -8 -12 -14 -8 -7 -7 -19 -11
1532261817740677 16 25 -7 -3 -9 11 7 26
1532261817778575 7 -3 30 6 -7 -16 52 5
1532261817793535 -9 -29 -27 108 38 21 61 23
1532261817823455 1 -13 -32 -17 -7 -2 -9 -7
1532261817891274 8 20 -15 53 5 -1 -20 -6
1532261817913215 -19 -46 -85 -80 -15 0 -11 5
1532261817951114 1 -8 -34 1 -2 -2 20 6
1532261817981033 4 30 86 74 91 35 4 0
1532261817995994 -11 -16 30 -14 -67 -7 -23 -46
1532261818033892 -2 4 12 -7 55 0 -9 -79
1532261818070793 4 -11 27 -10 1 1 0 36
1532261818100714 5 69 3 -10 -1 -9 -1 18
1532261818168532 19 56 -20 -5 3 -4 4 45
1532261818213421 -1 -6 -22 0 -3 -1 0 28
1532261818243332 7 -23 13 0 1 0 -1 1
1532261818258292 -19 -6 5 -3 -2 -2 -2 2
1532261818281231 -2 -11 2 3 1 1 1 -11
1532261818303173 5 8 -16 -1 -3 -1 -1 -15
1532261818326111 2 -1 28 13 10 2 1 -18
1532261818415871 -8 -13 -15 -3 0 1 3 14
1532261818476709 7 7 23 22 16 5 1 7
1532261818693129 -8 -7 14 18 -4 -1 1 -3
1532261818813807 -4 1 -19 -3 1 0 -1 -2
1532261818888607 -10 19 -25 -1 3 3 1 -15
1532261818910548 19 -1 12 -15 -7 -1 -1 22
1532261818948447 -3 -5 -22 9 0 -1 -4 8
1532261818971386 9 27 11 0 2 0 3 2
1532261819106041 3 17 24 1 -1 2 2 3
1532261819143924 9 23 36 3 -1 -1 0 -2
1532261819180826 -1 1 -34 -2 -4 0 -2 4
1532261819278564 -11 -5 9 -2 0 -5 -8 5
1532261819338404 8 -5 -7 -2 -6 -1 -2 25
1532261819368324 -1 -3 1 -3 -6 4 5 16
1532261819413204 -8 -6 -3 -1 -4 -36 -16 4
1532261819436143 -6 -2 -1 -2 -7 -79 4 -20
1532261819510943 -4 0 2 3 2 19 2 0
1532261819570783 -3 -11 -7 10 2 -26 -9 -1
1532261819600703 -11 0 -3 4 -4 0 1 -3
1532261819638602 -21 -3 -4 2 7 -8 -6 -7
1532261819676500 -1 0 15 27 4 -1 0 -1
1532261819713401 -1 0 -16 -18 -7 -1 -1 1
1532261819743322 8 7 18 -15 -3 0 2 1
1532261819878958 -8 1 -9 -6 -7 2 -4 -3
1532261819969724 -4 -4 2 12 0 28 5 -3
1532261820020580 0 4 -2 11 2 -2 -12 -3
1532261820066457 3 0 -5 -10 -6 -15 4 2
1532261820165193 5 0 0 -15 -13 -11 1 1
1532261820210073 -15 1 -11 -14 -9 -2 -2 -5
1532261820260937 -17 12 15 35 9 2 4 -3
1532261820291855 11 -4 9 0 -2 -5 -3 0
1532261820365657 -10 10 17 11 6 14 -2 -2
1532261820523238 -2 3 -6 7 -3 -9 -5 -5
1532261820546175 -2 -12 -4 8 -2 -3 -15 -5
1532261820576094 -1 -12 19 -46 -19 -13 2 -2
1532261820599033 12 15 21 -25 -19 3 6 1
1532261820643913 -6 -16 8 4 30 10 0 0
1532261820688793 -1 0 15 87 42 6 0 3
1532261820718713 6 -2 9 7 -7 -5 -2 0
1532261820898233 6 6 -1 -3 -1 3 0 2
1532261820966065 -4 -6 -4 0 -2 -3 0 -3
1532261821055824 7 4 6 14 -7 -40 -32 -4
1532261821100692 -29 -19 -27 39 21 10 6 1
1532261821145572 -8 9 11 -8 6 -2 -6 -5
1532261821168510 -5 1 9 59 15 6 5 1
1532261821281209 -6 4 -7 2 1 -2 -1 -1
1532261821320105 3 -3 -9 -5 0 0 -4 2
1532261821394905 2 -5 -7 -5 2 -6 2 22
1532261821536526 21 56 6 2 1 -2 -5 6
1532261821597372 11 1 13 8 0 -3 -16 7
1532261821642244 -1 -3 12 17 -10 -2 57 -6
1532261821723028 1 -9 -18 -39 -5 8 15 5
1532261821790846 7 15 10 13 6 5 8 1
1532261821835726 0 6 7 -3 -5 0 2 -1
1532261821850686 3 7 -6 -3 -1 -1 -1 1
1532261821941451 6 -43 -18 5 0 1 1 0
1532261821993305 5 26 -9 -3 -3 0 2 3
1532261822031203 -5 10 -46 -12 -6 -4 -3 -3
1532261822129939 0 -9 1 3 -1 -2 1 0
1532261822152878 1 -2 -12 -6 -4 -2 -1 0
1532261822189783 2 2 -10 -1 0 1 3 12
1532261822210723 -7 13 15 2 -1 -4 0 -3
1532261822240644 -11 5 52 1 -2 -1 -9 -55
1532261822263582 -43 -70 -93 -21 -18 -18 -40 -26

1532261822325417 3 17 17 3 -5 -1 22 -48
1532261822383262 11 42 42 -29 -12 -15 9 33
1532261822452078 3 -11 -28 -26 -11 -5 -3 -3
1532261822466041 1 -10 -6 17 3 -1 -1 3
1532261822495960 7 -25 -8 4 -2 0 -3 12
1532261822540840 2 -9 -6 10 2 6 -2 6
1532261822578739 -2 -1 -3 -7 5 -4 -2 -3
1532261822630600 -3 15 1 -11 -4 -2 -1 4
1532261822660521 8 -6 -2 -1 -7 -3 0 1
1532261822676478 -8 1 9 -1 -2 -1 -2 -10
1532261822713379 -13 -3 -32 -11 -6 0 -3 -30
1532261822788418 6 -6 7 5 0 1 0 2
1532261822833299 6 3 13 -3 -1 7 -1 11
1532261822923059 -10 -27 -63 -5 2 5 -13 -29
1532261822954973 -5 0 28 -1 -3 32 0 -13
1532261822968936 6 2 -39 13 5 -8 -7 -2
1532261822998856 -3 12 -2 31 -5 -10 -11 -3
1532261823028776 9 -8 14 15 0 -20 -6 1
1532261823050718 -4 0 -20 35 15 9 1 0
1532261823110557 2 -3 0 -7 -1 -2 10 7
1532261823156449 -5 -1 -5 -13 -4 -4 -3 -30
1532261823201314 4 -5 6 -1 -2 2 -1 7
1532261823223256 -5 -5 4 -9 -3 0 2 2
1532261823246212 2 34 -7 3 -1 -1 2 5
1532261823268136 2 22 -3 -2 -1 0 0 3
1532261823298055 -6 -25 18 4 2 0 1 -3
1532261823320994 0 -25 -3 7 3 0 0 1
1532261823343933 -2 -39 -24 -3 -5 -2 1 4
1532261823395794 -4 53 -11 6 4 0 0 0
1532261823418733 -1 -2 4 -1 0 1 0 0
1532261823440687 -1 18 1 -1 -2 -2 -1 0
1532261823485554 1 -50 -12 3 8 6 2 -4
1532261823516472 -4 -21 -2 -4 0 0 0 0
1532261823555367 0 25 11 0 0 2 0 -1
1532261823606233 0 -2 -3 1 2 -1 -1 1
1532261823733890 -3 -11 -9 0 3 1 -2 -2
1532261823763810 -1 -3 3 2 -1 1 -1 -3
1532261823800712 30 44 -3 -2 -8 -4 -3 4
1532261823853570 -18 -5 0 11 -1 -3 -1 -3
1532261823883490 6 -12 -12 2 1 -2 0 -2
1532261823921389 4 10 13 -11 4 3 0 -5
1532261823966269 -1 -11 -11 0 -1 1 0 1
1532261824011149 20 29 3 31 9 2 0 -5
1532261824033089 31 -43 -21 -21 3 2 -2 8
1532261824102904 -3 8 -5 -23 -10 -6 3 16
1532261824198648 9 -33 -7 19 -5 -4 2 5
1532261824273447 14 22 -14 -9 2 -1 -3 8
1532261824356245 26 -83 -36 -10 -5 -4 -3 -30
1532261824408088 30 9 -44 -23 0 2 -1 4
1532261824439004 -2 -17 -10 -5 -3 0 5 5
1532261824513805 7 11 4 5 0 0 1 10
1532261824595586 -2 -37 -1 3 3 0 3 -3
1532261824641463 -5 1 4 1 4 -1 1 7
1532261824686343 -15 -5 3 30 7 2 -1 -2
1532261824708285 17 5 -14 -13 -6 -1 -1 -6
1532261824753165 4 -19 34 -15 -2 -2 -4 -4
1532261824843922 -21 -5 -37 7 4 0 -3 20
1532261824910744 -9 -48 -20 -9 -4 1 3 3
1532261824933682 6 -7 2 5 4 1 4 3
1532261825068322 -6 -42 -21 -33 -2 -1 -3 -5
1532261825098241 -10 -4 2 13 2 -3 1 7
1532261825233879 6 -29 -6 0 -2 0 1 6
1532261825285740 -10 -14 -3 4 1 -1 0 -12
1532261825353559 -3 0 -2 8 6 1 1 -1
1532261825376498 12 27 4 -1 -2 1 0 3
1532261825428360 4 7 -6 6 0 4 -2 -4
1532261825451298 3 17 -1 8 2 1 -3 5
1532261825466257 -11 4 -5 -19 -5 5 -3 5
1532261825488199 7 -10 -2 0 -4 -2 0 11
1532261825511148 -1 -14 -2 -3 -2 -1 -2 -1
1532261825533079 -10 -4 0 5 4 3 1 1
1532261825675698 -3 -13 9 2 8 1 3 1
1532261825728556 11 8 71 -6 -5 -24 -4 8
1532261825751500 2 -26 -33 -13 -1 -4 2 -7
1532261825766455 1 1 43 6 1 3 0 -22
1532261825893116 6 -5 6 -1 -4 -3 9 14
1532261825960937 -5 21 4 -10 -12 -3 -22 -17
1532261825998833 6 63 15 1 -11 -7 50 7
1532261826043713 -19 -76 -44 -2 3 2 -7 -7
1532261826065655 8 9 51 1 -3 0 15 5
1532261826126492 -19 -51 -24 -42 -23 -13 -14 -9
1532261826186332 4 -16 -17 -19 -4 2 3 1
1532261826276092 2 34 0 9 -1 1 14 3
1532261826335932 -25 96 -1 -4 -6 -12 62 -42
1532261826463591 10 5 -1 -9 2 3 -27 0
1532261826562327 9 38 38 -41 -9 -6 -45 -2
1532261826637127 -3 72 100 17 -7 -7 2 -37
1532261826793708 7 -6 2 40 2 0 -16 2
1532261826853548 5 6 -14 106 22 2 -4 2
1532261826891462 -3 11 45 -20 -7 -2 4 1
1532261826943307 -7 20 -32 4 -5 -7 -1 10
1532261826988188 -8 23 24 -14 -4 -3 -13 -21
1532261827063004 3 23 -9 -15 -7 -7 -28 7
1532261827168705 13 30 8 -19 0 0 -10 2
1532261827190647 -12 -14 17 4 -3 -2 21 -4
1532261827213585 -2 -11 -43 -3 -5 -3 -12 0
1532261827236524 2 15 -36 -35 -2 2 -1 1
1532261827296364 -1 0 -2 -6 3 -2 10 -2
1532261827320300 -2 -2 2 3 -1 -4 -3 0
1532261827348225 -4 -2 4 4 0 -2 -6 -3
1532261827371164 -1 -23 0 -3 0 -1 -1 1
1532261827393105 4 -6 2 -3 -1 0 -2 8
1532261827423026 -5 -54 -26 -7 -5 -3 0 8
1532261827484875 2 -22 -21 -2 0 -1 -2 5
1532261827505820 -1 48 -6 -1 0 0 -2 17
1532261827567639 4 -22 18 2 -1 -1 0 6
1532261827595564 -4 -28 50 2 0 -2 -2 -2
1532261827633462 -2 14 10 4 -1 -3 -1 -14
1532261827648422 3 2 -26 7 1 1 1 7
1532261827693303 -2 -16 10 -3 0 -1 0 5
1532261827723229 4 -20 -43 2 3 1 -1 5
1532261827828940 -1 -27 -26 -5 0 0 1 -1
1532261827910721 -5 5 46 -22 -9 -3 -1 -2
1532261827979537 -4 9 59 21 12 3 4 -2
1532261828001491 0 15 36 22 4 1 0 -2
1532261828023420 1 -4 45 -9 2 3 2 -1
1532261828083260 9 30 -22 2 0 -2 0 2
1532261828158059 -9 -5 -4 8 -3 -4 -4 -5
1532261828189975 -6 -21 -22 -6 1 -2 -1 -1
1532261828240838 4 -11 -91 -5 -1 2 1 3
1532261828279739 -11 -45 -68 7 6 1 2 0
1532261828302673 3 15 -7 6 1 -1 0 0
1532261828361515 5 7 -50 -11 1 0 1 3
1532261828428337 6 10 -74 -12 1 4 2 4
1532261828496156 -13 -35 -67 -24 -4 -3 -1 1
1532261828526075 8 32 52 3 3 9 1 3
1532261828579932 -5 -27 15 0 -1 -3 1 -2
1532261828600876 5 9 -51 -1 0 1 1 7
1532261828670689 -10 -19 35 2 0 -4 -2 -4
1532261828758454 -1 -8 -29 -8 -2 -2 -1 -1
1532261828789380 1 9 -24 1 -1 -2 -1 -1
1532261828841233 -10 2 -8 1 -2 -2 0 -50
1532261828863174 7 6 -2 0 3 3 1 25
1532261828878134 -11 -60 -5 -1 1 -1 0 8
1532261828924011 -7 -22 -3 -1 0 -7 -4 9
1532261828983851 -19 -17 0 1 3 11 2 -15
1532261829225207 -3 -6 0 -1 -1 -3 4 1
1532261829270086 5 -3 0 4 3 0 0 11
1532261829306003 -2 -2 0 5 -1 -1 0 -1
1532261829335910 2 -2 -1 20 6 4 2 1
1532261829373809 1 11 10 13 -2 -1 -4 1
1532261829425670 6 8 7 -11 -7 2 0 0
1532261829455600 5 -3 -2 -14 3 0 3 0
1532261829493488 -5 1 15 14 6 1 -2 0
1532261829523409 9 8 14 10 -1 3 -1 4
1532261829576267 2 -2 1 -8 -3 -1 1 0
1532261829636107 -3 -3 1 -3 -3 -2 -4 -2
1532261829659052 6 -2 -5 -11 -3 -7 -7 0
1532261829688973 6 3 13 -8 -2 -2 -1 0
1532261829733846 2 -1 2 -13 -4 -1 -4 0
1532261829770747 2 -3 -2 -3 -2 1 -5 1
1532261829876465 0 2 4 1 1 4 1 2
1532261829982182 4 7 -4 -18 2 53 41 5
1532261830048006 -5 -14 -25 -38 -7 -3 0 -2
1532261830138763 -11 -7 -13 -2 1 20 4 -3
1532261830312298 2 0 -1 -11 -7 -1 -6 -3
1532261830333243 -8 2 2 -14 -8 -39 -2 -1
1532261830378123 -2 0 0 -4 8 41 11 0
1532261830513760 1 -14 -31 -28 1 6 2 -1
1532261830580582 8 11 33 -36 -5 8 2 2
1532261830611500 0 -3 -3 -12 -2 0 3 -3
1532261830648400 1 2 -11 49 6 2 0 3
1532261830663360 -2 -4 5 21 3 4 1 -1
1532261830716219 2 1 -5 -8 -2 -1 -2 3
1532261830791019 -7 0 2 -1 0 -56 -4 -5
1532261830821936 -7 4 -2 7 2 4 1 -1
1532261830933638 -2 2 -1 -1 -6 -91 -15 14
1532261831001456 -17 -19 -58 -46 -9 -8 24 -7
1532261831098197 0 5 3 8 0 -1 1 2
1532261831188954 -7 1 8 -10 -2 1 3 -2
1532261831233835 -7 20 25 -20 -4 4 0 -2
1532261831293675 6 1 -1 3 -6 -5 1 2
1532261831323595 1 -6 5 78 7 -56 -47 -18
1532261831368475 -5 12 14 19 12 -30 -41 -8
1532261831391413 -15 6 5 0 4 5 25 -22
1532261831436293 3 6 9 36 33 3 3 -1
1532261831466213 -6 -8 -21 -54 -15 22 -3 -9
1532261831496133 -2 -19 -19 30 8 -11 -1 0
1532261831630773 5 -7 -7 -23 -4 -4 -3 2
1532261831713551 3 4 -5 0 -1 1 7 -23
1532261831788351 14 34 -2 -3 -3 -1 -8 -61
1532261831848192 3 5 5 4 4 -15 1 -26
1532261831865147 7 -14 -5 3 0 0 5 31
1532261831893072 6 -1 -4 63 -1 -2 3 20
1532261831923989 -3 -14 3 -1 0 -12 -5 4
1532261831945931 -5 -12 -5 13 1 -2 -1 0
1532261831968869 3 -2 19 -11 -7 1 0 4
1532261831990810 -1 2 26 -104 -21 -3 0 -5
1532261832058629 0 -3 31 0 6 2 2 3
1532261832156368 -2 -16 22 -6 -5 -3 0 -2
1532261832201248 11 6 77 -17 -4 -4 -1 4
1532261832238149 2 40 -26 10 0 -4 0 -2
1532261832277045 -1 -4 -28 9 2 0 0 -2
1532261832380767 -3 -14 -6 0 0 1 0 -1
1532261832395728 -5 23 -4 3 -2 1 0 -2
1532261832448587 0 -14 49 4 3 0 1 2
1532261832576244 2 16 24 13 5 0 1 1
1532261832621126 3 21 44 3 1 -3 1 6
1532261832659034 -1 2 1 0 -3 -3 0 -1
1532261832688950 -7 -61 50 0 -1 -1 -1 -1
1532261832755766 -2 20 66 -20 -8 -3 -4 -3
1532261832778704 0 -4 33 7 0 0 1 2
1532261832823583 -4 -6 -46 5 1 12 -6 -2
1532261832898384 0 14 0 -2 -1 7 18 49

1532261832921322 6 -24 96 64 26 14 4 23
1532261832988143 2 6 -38 -20 -12 3 0 5
1532261833018063 -23 -2 -18 -4 -2 0 -2 -24
1532261833048999 7 -5 19 -6 -4 -4 4 5
1532261833078901 7 2 -2 -1 -1 1 -1 6
1532261833130762 -12 4 -2 -9 -2 0 0 1
1532261833183621 3 12 -17 -3 -2 -6 -7 -2
1532261833236480 1 -6 -30 -1 2 -3 2 0
1532261833273381 -1 2 0 4 5 6 2 1
1532261833318260 0 8 11 5 -1 1 0 -2
1532261833341199 0 1 -10 19 3 2 -1 -1
1532261833423978 -4 0 12 -5 -3 -3 -2 -2
1532261833588554 -2 5 6 1 -2 -2 -1 0
1532261833701237 -3 2 -1 -1 -1 0 -1 -1
1532261833835877 -5 4 -4 0 1 0 1 0
1532261833895717 0 -4 -27 3 3 2 0 1
1532261833940597 3 -6 -13 4 4 5 5 1
1532261833993455 -5 7 53 3 7 43 11 18
1532261834016394 2 7 -7 -1 -5 -34 -17 4
1532261834053294 2 25 16 0 -2 -9 14 -15
1532261834083215 -1 2 -12 -3 0 11 3 14
1532261834121114 -4 -1 30 -14 -9 -6 -6 -2
1532261834159012 6 -9 -9 2 0 -1 2 -3
1532261834195914 8 2 -9 7 3 -9 -2 -8
1532261834240794 -3 5 -27 1 1 3 2 1
1532261834263732 -3 -5 7 -2 5 0 0 3
1532261834285674 -3 6 0 44 17 7 2 -2
1532261834330554 1 0 -3 -11 -2 0 1 0
1532261834368452 0 1 -18 -21 -1 -1 0 0
1532261834391391 -2 -1 0 -14 -2 -2 -1 -2
1532261834436271 10 -1 -3 12 2 1 0 3
1532261834488132 -9 3 -4 -5 0 3 1 -3
1532261834511070 2 2 2 11 6 -1 0 0
1532261834563930 -3 -1 2 2 2 2 2 2
1532261834578890 -7 1 -4 -8 -4 -3 -2 -2
1532261834600831 3 6 10 14 -4 -3 -2 -4
1532261834615791 -8 -1 -5 -4 5 4 2 14
1532261834661668 -2 -34 -14 -1 0 1 -3 -56
1532261834683610 -24 -16 6 -1 -1 -2 -1 -3
1532261834705551 -11 22 -12 -2 10 2 2 -3
1532261834743449 19 -48 2 -2 -1 -2 -2 3
1532261834773370 26 -6 -15 -4 -5 -3 -2 13
1532261834841203 -19 84 6 7 2 1 -2 3
1532261834878090 8 48 7 1 2 2 1 3
1532261834923967 -8 -3 20 -4 -2 -4 -1 -2
1532261834945908 7 -8 -2 -6 1 0 1 3
1532261834998766 -14 29 3 -23 -6 -1 -1 -7
1532261835028687 -17 -1 13 13 2 2 -1 -7
1532261835118447 -12 -32 2 -10 -10 -3 -2 -2
1532261835284010 -5 -39 -11 15 -5 -4 -1 -10
1532261835561263 5 -6 6 11 1 -2 -2 -1
1532261835613123 -1 25 -17 -17 -7 0 -1 -1
1532261835688922 -6 10 7 19 0 1 -1 -1
1532261835785663 6 13 -1 -2 -1 -1 -6 0
1532261835832537 -9 -10 -1 -2 3 1 2 -2
1532261835861459 5 -7 4 19 -3 0 1 10
1532261836048959 2 8 0 -7 -1 -2 -1 -1
1532261836070900 -3 -12 -1 -4 -4 -3 -2 -4
1532261836093839 2 1 0 -2 -1 -1 1 0
1532261836115780 0 10 2 5 -1 -2 0 0
1532261836221508 -4 16 4 -2 0 -1 -1 -3
1532261836236457 6 -4 -3 -3 -1 6 24 2
1532261836297303 -9 -13 -3 -13 1 -2 2 -1
1532261836341177 7 21 0 -13 -6 -4 4 0
1532261836386057 2 -4 -7 -9 -1 -11 -2 -12
1532261836460857 2 13 -12 -3 -2 9 -11 -5
1532261836520697 -2 9 -45 18 7 -5 -28 5
1532261836543636 -4 -4 27 34 19 28 -4 -13
1532261836566584 12 17 -31 2 5 6 14 8
1532261836588516 -5 33 87 -48 -13 -7 7 -3
1532261836603475 6 7 86 16 2 1 56 7
1532261836671294 -5 -3 -64 8 -1 -8 -1 -3
1532261836738115 -7 36 -39 13 1 -7 -3 -14
1532261836790987 14 7 -14 2 -1 0 21 -27
1532261836843833 -33 -68 -57 -37 -16 -12 -16 -19
1532261836865774 -10 2 -2 59 27 9 21 -7
1532261836888725 1 10 13 30 -4 -6 5 -2
1532261836903673 -7 -7 29 5 5 4 12 -3
1532261836948553 7 -12 -12 -23 1 2 1 8
1532261837083193 -4 34 112 7 -4 -4 4 -17
1532261837106132 -16 -28 -31 2 -2 0 26 -22
1532261837130067 -17 -61 -63 -1 8 -3 -57 -32
1532261837151025 -5 -52 5 -3 -5 -4 44 5
1532261837188910 -7 -13 18 -16 -1 1 3 -5
1532261837248750 8 7 -54 16 2 4 4 5
1532261837346488 7 6 -11 -47 -10 -1 -25 1
1532261837391369 -2 -16 11 -2 -15 -11 -12 -7
1532261837451209 2 -11 10 4 -2 -9 1 -22
1532261837466169 -10 -20 7 5 -5 -2 16 10
1532261837482137 7 19 -29 -5 -2 -3 4 2
1532261837570889 11 33 28 64 22 5 -14 1
1532261837638707 -25 -56 -19 -19 -9 -3 -7 -2
1532261837751406 -21 -36 4 -16 -3 -1 32 -32
1532261837781326 4 -71 -54 -16 -1 4 -4 -2
1532261837938905 11 56 4 5 1 -2 -35 -2
1532261837962841 -5 -32 -6 -8 1 2 -38 -21
1532261838005739 7 -42 19 13 3 0 -3 -1
1532261838028665 -10 3 -7 -2 0 1 2 2
1532261838050606 -1 0 -10 2 3 3 4 -1
1532261838096497 -19 1 -17 -3 -3 -1 3 -65
1532261838148345 1 30 58 -2 -4 -1 -4 -12
1532261838171283 4 -29 6 0 -2 -1 1 26
1532261838208185 -6 24 -17 -2 1 1 -2 -23
1532261838225140 8 -23 13 1 0 0 -3 -5
1532261838240130 4 -11 -36 1 -2 -2 -3 28
1532261838253065 1 -16 -8 0 0 1 2 55
1532261838283982 2 3 16 3 -1 -6 1 -4
1532261838305924 -3 -11 -14 -5 2 3 -1 -8
1532261838358799 1 47 9 -2 -3 -6 -1 8
1532261838418622 0 -14 -19 -2 -1 3 3 -26
1532261838440563 -3 0 6 -1 1 -4 -2 -14
1532261838471497 2 3 -1 -1 -3 1 -3 0
1532261838493423 -5 -15 -3 -5 -4 -1 -1 -3
1532261838516360 -4 -26 -6 12 10 3 -1 -4
1532261838562238 1 -5 -2 -36 -9 -3 -1 0
1532261838644019 -5 -17 63 24 6 -2 -2 -2
1532261838688899 7 20 -15 -11 -5 0 -1 2
1532261838770680 3 4 18 7 8 3 2 3
1532261838883379 1 -25 -65 -3 1 0 -1 -1
1532261839011038 1 5 -17 9 2 0 -3 -6
1532261839153656 3 -3 -35 -1 0 -1 -2 18
1532261839206515 2 -9 2 -2 0 -3 -1 -24
1532261839273337 5 4 -3 -1 -2 -1 0 -2
1532261839716152 2 4 -2 -1 -4 35 -2 11
1532261839746072 0 2 -3 -2 -1 -40 5 -8
1532261839895672 12 -5 -33 -19 -2 -7 9 2
1532261839971469 -36 15 11 -47 -7 0 7 -9
1532261840023331 -4 12 9 28 9 4 2 2
1532261840129048 -3 -6 -4 -6 -3 -7 -6 -1
1532261840255709 -4 -5 -12 -17 -8 -8 13 3
1532261840346467 -6 -5 -28 -31 3 -9 11 -2
1532261840383368 14 -8 5 63 8 -2 8 4
1532261840436226 -15 3 -11 -3 1 -4 -4 -4
1532261840466147 -13 5 2 10 2 0 -4 -2
1532261840623725 -2 -1 3 16 10 0 6 3
1532261840645667 6 2 -1 -5 -1 12 18 3
1532261840706504 6 6 6 -42 -4 19 19 -2
1532261840728445 0 -3 -9 -17 -5 12 6 -3
1532261840766344 1 2 2 -35 -3 -18 19 -3
1532261840803245 11 1 12 -63 -6 -4 -18 0
1532261840833165 -1 -2 -19 29 3 11 -10 2
1532261840848125 16 -12 -17 9 7 6 -6 -1
1532261840945863 -27 -4 -9 36 2 2 0 -6
1532261840991741 6 -14 -13 -21 -3 5 3 -1
1532261841065544 -3 -2 -6 -10 2 4 12 4
1532261841103442 4 -1 2 12 1 -27 11 2
1532261841148322 -10 -2 -5 -21 -6 19 21 1
1532261841216147 -1 -1 10 62 23 -5 -28 -1
1532261841246079 -5 -16 -32 77 21 -13 -10 -3
1532261841269000 -9 -9 -17 -34 -3 -5 -4 -4
1532261841290941 4 8 -17 -13 -3 -6 4 2
1532261841313879 4 3 4 -25 -5 -8 -2 1
1532261841328839 8 -9 -1 -56 -13 -16 -3 -2
1532261841350781 22 -14 -6 -10 -3 -4 -1 1
1532261841388680 -5 -3 1 5 4 -2 -3 -1
1532261841410622 -17 7 2 8 0 3 8 -5
1532261841456499 -1 -1 -2 -6 -3 -3 -1 -2
1532261841478440 16 -16 -9 3 -1 -4 -9 -1
1532261841538279 -3 2 -2 7 2 3 15 -1
1532261841561218 3 -4 2 35 13 -8 -11 3
1532261841577176 12 4 0 4 2 27 -11 2
1532261841621058 -12 -18 -22 45 19 21 -15 -6
1532261841636018 0 5 8 -25 -6 -25 -29 0
1532261841703837 0 -1 7 -16 -5 -8 -5 -3
1532261841748717 -3 -9 -4 -6 0 -6 2 1
1532261841778637 0 1 5 -25 -11 -1 0 -2
1532261841823517 0 -2 -4 -37 -4 -2 0 0
1532261841846456 -7 -40 -34 1 3 0 0 1
1532261841883356 5 69 3 7 -1 -1 0 1
1532261841921256 -11 -7 21 -6 -7 -7 -5 -7
1532261841951175 4 44 -77 -9 5 5 1 0
1532261841981095 -3 -7 -15 1 -4 -1 0 1
1532261841996056 -3 -23 72 4 1 -2 -1 -3
1532261842070855 3 7 21 2 1 -1 -3 1
1532261842100776 -1 4 -4 6 2 1 -1 2
1532261842123715 0 -17 -27 2 1 -1 0 0
1532261842153634 0 6 48 2 -1 0 -1 -1
1532261842168594 -1 2 49 -11 -7 -2 -2 -2
1532261842221453 -12 -2 31 9 1 0 -3 -3
1532261842258354 2 -8 -80 3 0 1 6 -5
1532261842281293 3 -11 -22 0 1 0 -3 -27

1532261842333153 0 25 -46 -57 -9 9 6 -14
1532261842371053 -1 -12 -1 3 -1 3 0 -8
1532261842386013 3 -8 1 4 -2 1 2 3
1532261842400973 0 -6 -6 -1 -1 4 3 -4
1532261842430893 2 -14 -59 -4 -7 -2 -4 -2
1532261842445853 4 29 26 7 2 -2 -1 3
1532261842468791 -2 46 -2 -20 -7 -2 0 -4
1532261842513671 -4 -1 -19 1 -2 -2 -1 -1
1532261842543591 1 -9 -10 -10 3 1 0 -1
1532261842566536 0 11 -39 10 1 11 2 0
1532261842611409 2 3 -5 -1 -1 1 -2 0
1532261842633352 0 10 -4 -15 -2 0 1 6
1532261842678231 2 -8 -8 -1 -3 -3 1 1
1532261842716130 0 -12 19 19 6 0 -1 -1
1532261842746050 1 -6 5 1 -1 0 -2 0
1532261842768989 -1 -17 -90 -4 2 1 -1 0
1532261842805904 3 -4 2 -4 -1 0 -2 1
1532261842820850 -4 1 6 -1 -1 -16 -4 -2
1532261842858749 -6 -1 -29 0 0 1 0 -6
1532261842882691 9 4 -13 -1 0 26 2 5
1532261842895650 -2 24 60 5 -3 -5 -1 0
1532261842910609 1 -4 -26 -3 0 1 1 -6
1532261842933549 -5 -6 -36 -1 0 0 0 -4
1532261842948509 4 -5 -23 -1 0 1 0 0
1532261842971447 -4 -6 -6 -4 -1 0 0 -1
1532261842993389 -3 -10 -10 -5 -30 -2 -2 -1
1532261843016327 -7 0 39 -16 -15 -11 -4 -5
1532261843031287 -8 10 -33 -31 -7 1 -3 -18
1532261843061207 1 -6 33 3 6 -2 1 -1
1532261843098109 5 -30 -66 -27 -6 3 -1 23
1532261843113069 6 10 30 -12 -2 -3 6 -5
1532261843128028 -12 8 61 -3 1 -10 -6 -34
1532261843158946 -15 -18 -1 -4 -10 -20 19 2
1532261843173906 -2 31 6 -5 -13 -6 4 -17
1532261843195847 5 19 47 14 23 18 1 -2
1532261843218785 5 -9 -1 10 -109 -39 -13 14
1532261843249703 -9 -7 -39 -25 -21 1 0 -2
1532261843263665 3 9 -51 -11 21 0 -4 -1
1532261843293586 0 -6 -8 23 27 13 4 5
1532261843331485 -1 4 10 -2 4 4 -2 -5
1532261843353426 3 1 -13 -5 -10 2 -2 0
1532261843383346 -8 3 6 -27 -1 0 -1 0
1532261843421244 1 3 -10 15 10 0 -1 0
1532261843458146 -3 -12 -5 -2 -16 -7 -1 -1
1532261843481084 1 -4 1 9 6 -2 0 -1
1532261843498038 4 -4 -7 -11 -1 -1 -1 2
1532261843512002 1 6 10 11 -5 -2 -2 -1
1532261843533943 -1 -2 -1 -6 -21 -2 -1 0
1532261843548903 0 -10 -16 -5 -5 -2 1 0
1532261843563863 -1 -3 -4 -7 -1 -2 -2 0
1532261843585804 1 14 -6 27 19 5 2 1
1532261843608743 1 8 11 9 -9 -3 -1 0
1532261843653624 -1 -3 18 -18 8 -5 -2 -2
1532261843675565 -3 -9 -27 -2 -2 -1 0 1
1532261843698503 1 2 22 68 30 10 4 1
1532261843721442 -4 -13 6 -14 -7 0 -3 -3
1532261843743383 -1 4 -1 -12 -6 -2 -1 -1
1532261843774301 8 1 7 11 5 3 2 2
1532261843788263 -8 -3 -5 -20 -11 -4 -3 -2
1532261843803223 5 6 13 5 27 8 1 1
1532261843842119 -2 -1 7 -10 -18 -8 -1 -1
1532261843856097 0 0 -3 -8 -7 -3 -4 -1
1532261843879020 -2 -1 1 2 -2 3 -1 -1
1532261843900962 -2 0 0 6 8 -1 2 0
1532261843923900 1 9 4 6 2 3 1 0
1532261843945842 4 11 12 -2 16 -2 -1 1
1532261843960802 0 5 9 15 5 9 2 1
1532261844013660 0 1 -2 20 28 4 0 2
1532261844035602 -5 -9 -12 -19 -22 -7 -1 -1
1532261844081478 -6 -3 6 -17 5 -1 -1 -2
1532261844103420 4 -17 0 7 5 -1 2 2
1532261844135335 -1 1 0 6 -1 2 -1 -1
1532261844163260 11 19 2 -9 2 3 1 -1
1532261844231079 -7 1 -8 -4 -2 -5 -5 9
1532261844268977 -17 -47 -17 -1 1 2 6 -6
1532261844305879 -14 -19 18 5 -4 2 7 7
1532261844329815 -7 8 -11 -4 5 -3 5 -4
1532261844358737 19 -83 -14 -15 3 -1 -1 9
1532261844380679 -3 30 -4 -9 -11 -6 -2 1
1532261844410599 14 10 -3 -3 -3 -5 -3 6
1532261844463457 -20 -15 -5 15 6 1 8 -8
1532261844508338 -8 -15 -21 -21 -6 -2 -16 -7
1532261844553217 5 4 4 4 5 -1 -4 -1
1532261844591115 -8 17 1 -6 -2 -5 -7 -7
1532261844635996 0 18 4 1 5 2 4 -1
1532261844658935 9 26 -5 -14 -8 -1 1 -2
1532261844680876 -1 81 8 2 -8 -2 0 -1
1532261844710795 -3 -43 17 4 -3 1 6 1
1532261844770635 -12 -15 -7 8 -5 2 -2 4
1532261844823500 3 15 8 49 15 0 3 -1
1532261844876353 2 -10 -1 5 2 4 16 8
1532261844913255 -4 22 5 -9 -1 -4 -18 -5
1532261844966113 4 -33 5 3 1 -1 8 -6
1532261844988055 -2 -1 4 6 3 -3 -1 -17
1532261845063851 0 47 6 -4 -2 -1 -3 1
1532261845207468 3 -10 -8 -28 -4 -1 3 4
1532261845229417 -3 0 -12 -21 -12 -6 -4 -2
1532261845303212 4 17 -1 18 8 1 -1 -3
1532261845468770 0 -17 -7 -7 -6 0 -1 -2
1532261845499686 6 -5 -2 -10 6 -2 -1 3
1532261845528609 -1 -4 1 3 0 -1 1 0
1532261845633329 -3 -8 -4 -5 -3 -2 0 1
1532261845678209 -3 9 -1 -11 -5 -1 1 1
1532261845776945 -13 -28 1 -4 -2 -1 -1 0
1532261845805874 2 18 -1 -2 -1 -1 2 1
1532261845843766 -2 -15 -6 -3 4 0 1 -2
1532261845888651 -14 -12 10 17 16 7 4 -6
1532261845910588 4 10 2 3 16 -2 10 5
1532261845963446 5 -11 55 -36 -3 -24 -5 -3
1532261846023287 2 -5 -48 4 5 -8 7 -12
1532261846046225 0 -5 -36 -8 -6 -15 -10 7
1532261846263643 -16 6 0 2 3 2 70 -12
1532261846293564 -3 -78 -6 -1 -6 -3 -22 9
1532261846353404 -2 4 -17 71 14 6 4 7
1532261846398283 18 72 -23 -34 -3 -1 0 5
1532261846428204 -23 -38 -37 -33 -3 -3 5 -9
1532261846489041 -7 11 -35 3 3 0 -11 0
1532261846518961 2 -51 39 4 1 2 6 3
1532261846555897 15 -83 -50 9 -12 -11 -17 -16
1532261846578801 -17 -44 -4 -5 -6 -8 -5 -18
1532261846653601 -8 -9 22 -71 -22 -4 -7 -11
1532261846788241 -6 -14 -61 53 13 0 -12 -3
1532261846811180 9 44 -5 4 -7 0 15 -1
1532261846871019 27 42 4 -4 1 1 -6 21
1532261846915899 -11 6 7 -1 -5 -6 4 -47
1532261847020619 -4 -6 -11 8 3 6 -4 -14
1532261847103398 -7 -22 -31 23 6 5 0 8
1532261847178198 7 -41 -9 -10 -4 -2 -6 -42
1532261847239035 -13 27 -2 0 1 -3 2 -46
1532261847343755 2 41 -13 -20 -13 -7 -2 3
1532261847375670 -24 -15 -15 -12 0 5 35 -23
1532261847418571 -16 -14 1 -14 -4 -2 -13 -7
1532261847471431 18 15 28 15 4 3 -4 2
1532261847493372 0 20 14 2 1 1 2 0
1532261847606076 -3 0 -11 5 5 2 -4 9
1532261847643969 -7 -24 21 2 3 2 0 9
1532261847658929 0 27 1 0 -2 -1 -2 9
1532261847674886 -16 -53 0 -4 -1 0 -1 -12
1532261847703809 -6 -17 -7 -1 0 0 -1 2
1532261847733729 3 -36 13 8 5 1 0 24
1532261847770630 -27 -68 -31 4 3 1 7 19
1532261847816507 -5 -30 12 1 1 -2 1 -1
1532261847838449 -1 52 14 1 -2 1 -3 -5
1532261847876347 4 53 -31 -8 -9 -4 -5 -5
1532261847951147 0 12 -35 -16 -14 -5 -2 3
1532261847982065 4 -4 10 -7 -3 2 2 2
1532261848025947 -7 -15 -25 -18 2 2 1 -1
1532261848070827 5 7 5 -21 4 2 0 1
1532261848108726 5 3 11 -15 -11 -1 -2 -1
1532261848258326 -2 -17 -22 -1 2 18 -1 0
1532261848296225 2 -21 -16 -7 -1 2 1 2
1532261848371025 -12 -39 -25 -19 -7 9 1 -3
1532261848460785 1 -1 -6 2 -2 12 -3 -15
1532261848520625 6 8 8 1 0 -1 4 9
1532261848559521 5 6 36 4 0 -1 0 23
1532261848581462 0 -8 -14 -1 1 1 -1 -6
1532261848618363 -9 1 1 -4 -3 -3 -8 -33
1532261848671222 -7 -19 -14 -9 -6 -6 -7 -10
1532261848725078 5 8 11 0 -1 0 2 7
1532261848746022 -3 -3 -8 4 1 -3 -3 -3
1532261848760982 3 1 3 1 -2 3 7 10
1532261848805862 0 -3 -5 24 22 4 -12 -4
1532261848829798 -12 -3 -2 -15 -14 -18 -1 0
1532261848865702 -10 -4 -3 -9 -7 -15 -6 -33
1532261848880662 2 0 -4 4 -8 1 3 -20
1532261848941535 -1 0 -1 0 -3 16 3 -3
1532261848963488 1 0 0 -3 -4 -33 -6 -8
1532261849001376 3 0 1 3 5 -3 -3 8
1532261849016336 1 0 -2 -4 -5 1 1 8
1532261849053237 -3 -1 0 1 7 -2 8 -16
1532261849076176 -12 -2 -2 -2 0 -25 -10 -5
1532261849092134 5 -6 -1 6 2 2 0 17
1532261849106096 -6 1 1 2 13 -7 0 2
1532261849128037 -4 -3 0 1 2 37 -1 -3
1532261849158955 0 0 2 12 2 -3 -2 6
1532261849188875 0 -2 -1 -6 -20 -23 -4 -3
1532261849225776 2 -1 -18 -23 -4 -7 -3 4
1532261849240735 1 0 -1 2 0 1 -1 0
1532261849285616 1 3 6 -10 -7 -2 2 3
1532261849315536 -6 -9 -9 -23 -8 -1 0 -2
1532261849368394 -1 0 2 -17 -3 0 1 0
1532261849391333 -2 -5 -8 -11 -3 -1 1 -2
1532261849428234 2 -3 2 -9 -3 -3 -1 0
1532261849458160 8 -5 -16 -8 1 1 -2 0
1532261849518992 7 -1 -2 -4 -1 -1 2 0
1532261849540933 1 6 0 -5 -4 -3 -1 0
1532261849662607 17 1 0 -5 -1 -3 0 4
1532261849713472 -12 -4 -4 -4 -6 7 4 -4
1532261849736410 9 1 2 2 -5 -70 -4 3
1532261849833152 1 -5 31 89 42 8 8 0
1532261849886010 14 4 22 2 -14 0 -3 1
1532261849930890 6 -4 -19 -41 -5 -6 -8 -2
1532261850058549 4 -7 -13 1 -8 -2 0 0
1532261850163269 -9 -1 2 -3 -3 -6 5 -4
1532261850208149 -3 7 3 8 12 80 115 18
1532261850238069 -2 -2 -3 -3 -9 3 -35 -14
1532261850261007 1 2 -1 23 10 -32 -22 0
1532261850313866 4 9 -1 8 8 0 -10 1
1532261850343786 0 -6 7 -21 -23 -86 -35 -5
1532261850365727 3 -2 16 -26 -9 2 14 -3
1532261850395647 13 -7 -3 1 -1 12 -6 3
1532261850425582 5 -1 9 -16 -5 1 4 2
1532261850463466 2 -9 -21 -8 -1 3 6 1
1532261850479423 1 2 1 10 -3 -7 -4 -2
1532261850493386 2 -4 -14 6 3 -8 -12 -2
1532261850546245 -25 -4 -11 -7 -7 -4 6 -9
1532261850583146 -6 7 17 85 13 7 11 7
1532261850658942 9 -1 1 11 4 -11 -11 -14
1532261850733744 6 7 6 -22 -16 -23 -4 -4
1532261850755692 -3 1 17 5 4 61 -9 -12
1532261850801564 15 16 8 26 12 8 13 10
1532261850868383 -19 4 0 9 6 2 5 -2
1532261850906282 2 -7 -13 21 6 3 0 -1
1532261850928223 1 9 37 -29 -5 3 -1 -2
1532261850973103 5 -8 -7 15 3 -2 0 2
1532261850996041 5 3 5 13 6 0 1 9
1532261851012998 -8 2 2 11 1 -2 -4 -20
1532261851040922 0 -1 -2 4 7 10 0 32
1532261851055882 10 2 2 7 5 3 14 31
1532261851115722 -1 -1 -1 3 -1 -12 7 -6
1532261851145642 0 1 3 25 8 -16 -6 -10
1532261851206479 -26 -9 -6 -31 -5 -7 1 -61
1532261851229420 16 6 -6 -3 -3 0 0 0
1532261851251359 -11 -12 -3 17 5 0 3 -16
1532261851349098 -2 20 19 -24 0 3 4 -5
1532261851371039 5 2 34 43 6 5 2 0
1532261851393978 8 -4 -25 -25 -2 0 4 7
1532261851423916 0 -1 -5 -32 -6 -1 -1 -1
1532261851460799 -7 -10 -3 -9 -4 -1 -1 -2
1532261851483737 3 -1 0 -5 -3 -3 -2 -1
1532261851513658 0 19 10 -8 -3 -3 -2 -1
1532261851535599 -9 -10 -8 -61 -13 -3 -4 -4
1532261851551561 -6 -13 0 -9 -3 -1 -2 -2
1532261851588458 -1 53 61 10 3 1 -2 -1
1532261851611396 0 29 21 -27 -8 -2 -1 -2
1532261851701156 0 -4 17 -1 1 1 1 -1
1532261851738058 -4 -9 5 11 -1 3 1 0
1532261851820836 3 28 5 2 6 4 0 0
1532261851850756 -3 -11 -6 -6 -4 -5 -3 -1
1532261851865716 0 -11 3 -4 -2 0 -3 -2
1532261851890649 0 -6 0 -3 -1 -2 1 -2
1532261851925569 3 -4 -15 -3 0 1 -2 0
1532261852008335 -9 21 43 -12 -8 -2 -1 -4
1532261852038255 19 -3 27 10 5 2 0 -3
1532261852076154 5 16 18 -3 -1 -7 8 -25

1532261852150954 -6 -45 -47 -64 -15 4 11 5
1532261852225753 -4 14 -28 0 1 0 0 -2
1532261852338452 7 34 3 -7 0 -1 5 6
1532261852391333 2 6 -4 3 -2 -3 0 -2
1532261852473115 0 -6 0 -1 0 0 -1 0
1532261852511014 0 -12 7 -3 2 -2 -1 -1
1532261852548912 2 0 -2 -3 -1 0 1 3
1532261852578832 0 3 1 -7 -3 0 0 0
1532261852623711 0 0 -13 -2 1 -2 0 -1
1532261852660613 2 -9 -10 -3 -1 -1 0 0
1532261852675573 0 -2 10 0 2 0 0 -1
1532261852728432 -2 2 14 1 -1 -1 -3 0
1532261852766331 0 -11 -60 -3 0 1 -1 -1
1532261852826171 -4 0 14 1 1 0 0 0
1532261852894004 -3 -11 -4 -3 -2 -2 -2 -2
1532261852923908 0 -2 -1 -3 1 0 0 -2
1532261852968789 -3 0 22 5 0 0 0 -2
1532261853088469 0 1 -6 5 1 1 -1 0
1532261853103429 -3 -8 -7 -3 0 -2 0 -1
1532261853141328 1 -11 -33 1 1 -1 0 1
1532261853163269 -2 -3 7 -5 -7 -2 0 0
1532261853201168 1 7 46 2 1 -1 -1 -2
1532261853216128 0 -4 -19 -2 0 -2 -1 -1
1532261853275968 2 14 -20 1 1 1 1 1
1532261853335807 -1 -7 -4 -1 1 1 -1 -1
1532261853365728 -1 -28 -48 -3 -3 2 0 1
1532261853410608 -4 15 15 -1 -3 -2 -1 -1
1532261853516324 -1 1 -5 2 -2 1 -2 -1
1532261853568186 -9 -5 -20 4 -1 18 -3 -23
1532261853591125 -6 15 2 3 6 11 7 -2
1532261853621050 -1 2 41 -2 -1 0 -3 -8
1532261853636005 2 17 48 7 -1 -5 -7 -5
1532261853688864 -4 -22 -110 -17 -10 -2 -7 -9
1532261853725765 3 1 12 -6 -6 7 -3 2
1532261853823503 0 2 -18 -10 -10 0 0 -1
1532261853943183 3 1 4 -11 0 -2 -1 0
1532261854011001 1 10 -1 2 -9 -4 -2 -2
1532261854048902 1 -2 4 -2 -1 0 0 -1
1532261854070846 -6 -8 0 -3 4 5 -2 -2
1532261854085801 4 -7 -1 -4 -4 -4 -2 -2
1532261854102757 -1 1 2 1 -3 -1 -2 0
1532261854123701 2 4 -7 -1 4 -1 -1 1
1532261854213461 5 5 -1 -4 -1 -1 2 0
1532261854258341 8 4 -1 0 7 6 2 1
1532261854288260 4 10 -4 -2 4 4 1 1
1532261854318180 3 1 14 -7 -4 0 1 -1
1532261854333141 -16 -55 2 45 15 7 3 5
1532261854371039 -9 -28 -2 3 0 2 8 4
1532261854400959 7 48 2 -9 -9 -2 -2 1
1532261854423898 24 3 -4 -2 -8 -3 0 1
1532261854460799 3 -22 -11 -3 -3 -3 -3 -6
1532261854520639 7 75 4 -6 -3 -1 0 5
1532261854566517 -10 -12 5 -2 -1 -2 -2 -2
1532261854611396 9 -2 -1 -5 -7 -5 2 2
1532261854663258 -10 -34 -14 -7 -3 -2 -2 0
1532261854746037 11 -9 7 27 -4 -1 -1 0
1532261854829826 -3 52 6 -5 1 -1 1 3
1532261854873695 -8 -10 -5 -4 3 2 -1 -2
1532261854941514 -1 -8 0 -12 -5 -3 1 0
1532261854978415 -1 9 -3 -2 1 -1 1 0
1532261855008334 -5 -2 2 5 7 -1 0 -1
1532261855068175 10 -3 -2 -2 -3 0 0 3
1532261855135994 -4 -5 -1 3 3 0 -4 -7
1532261855225754 -1 8 0 -3 -5 -4 0 3
1532261855331471 -1 11 -4 -16 -10 -5 -1 -2
1532261855376351 5 29 -4 -7 -8 -7 -3 -1
1532261855451151 -3 -3 -5 -8 -5 -1 -2 1
1532261855510991 0 6 -3 1 -6 -2 -3 -5
1532261855593769 8 -8 -1 2 1 -1 -1 5
1532261855707466 -3 1 -1 -4 -4 -1 -2 -1
1532261855752345 2 16 -3 0 -3 -2 0 1
1532261855833129 4 -27 -4 3 1 0 1 2
1532261855885987 -5 21 6 2 -1 2 0 -1
1532261855945829 -3 5 -5 0 -1 0 2 -10
1532261855983727 -3 -15 -108 -8 -8 1 3 -26
1532261855998686 4 15 -9 13 -4 -5 -31 -10
1532261856035588 14 8 -30 6 3 -4 3 8
1532261856058527 14 4 70 10 7 -1 -14 -10
1532261856081465 -17 10 25 17 9 3 -11 -43
1532261856111386 -13 3 -24 -5 -5 -3 5 -10
1532261856178207 11 6 45 -20 -3 1 -21 -4
1532261856208127 -4 -6 33 -4 -3 -35 -53 -29
1532261856246025 0 6 23 45 9 9 -21 4
1532261856268964 -1 8 11 -20 5 13 -14 2
1532261856305866 -17 -14 -1 -92 -24 -10 -21 -13
1532261856328804 6 6 83 -41 -11 -1 11 2
1532261856350745 10 39 9 13 6 2 11 6
1532261856373684 -16 -23 -23 30 5 -2 -11 -5
1532261856493364 9 14 -13 30 21 5 -67 7
1532261856531263 0 -8 -29 29 -9 -9 18 -3
1532261856568179 -18 -29 -29 -1 1 1 -34 11
1532261856583124 8 9 25 13 6 7 -4 19
1532261856599081 -15 -24 -25 0 -5 9 24 -9
1532261856623036 22 14 12 -4 7 -4 42 18
1532261856635983 -16 -11 46 50 0 -8 11 -3
1532261856695822 -2 -14 -16 6 6 -7 -19 -1
1532261856733721 17 46 22 23 19 6 1 17
1532261856755662 -1 -4 -22 48 6 -7 8 -4
1532261856831460 -34 -11 4 -8 2 -1 -5 -39
1532261856846420 11 26 -71 1 -68 4 1 48
1532261856876340 7 0 2 0 7 -2 16 5
1532261856898280 11 -4 2 5 18 2 -9 13
1532261856928202 -13 -18 -12 -17 -13 -4 0 6
1532261857018958 2 -13 -6 15 14 7 18 18
1532261857146632 -4 -22 -36 12 6 -2 -40 40
1532261857176537 -9 -51 44 6 -7 -7 -23 0
1532261857213439 6 -6 -29 -7 -1 1 -21 -2
1532261857243359 2 8 19 -3 3 4 6 -13
1532261857296217 -20 -35 -25 -7 -1 3 9 -21
1532261857364052 -7 5 3 -2 -2 0 0 -11
1532261857438838 4 -1 5 -7 0 -2 3 0
1532261857468756 -2 42 16 10 -1 -1 1 -1
1532261857483715 -2 -15 9 -2 -2 0 0 14
1532261857566494 -4 -4 -23 1 3 0 2 -25
1532261857596414 -3 -2 -41 -7 0 0 2 4
1532261857633316 2 -41 -32 -8 -2 1 2 3
1532261857656254 14 21 10 1 0 -1 -4 36
1532261857671214 -3 -6 -19 -5 -1 1 -1 -6
1532261857708116 0 -13 8 2 3 -1 2 34
1532261857731054 -5 13 18 -8 -9 -3 -2 -17
1532261857753993 -2 -11 12 6 7 1 -2 0
1532261857843753 -1 -4 13 26 10 4 2 -5
1532261857865695 0 -22 -17 6 6 3 2 2
1532261857942492 3 3 -1 -31 -14 -5 -2 -2
1532261857972410 -2 1 8 -15 -10 -3 -3 -1
1532261858091091 4 12 3 70 11 1 2 -1
1532261858143949 -8 -1 -34 -68 -18 -5 -2 -4
1532261858287567 2 12 17 4 0 -3 -1 4
1532261858331449 9 53 92 4 7 1 -3 0
1532261858443150 -8 -9 2 -1 -8 -2 -5 -9
1532261858541886 4 4 -12 -3 -1 0 -1 9
1532261858570809 17 7 24 -2 -10 -2 -1 45
1532261858593747 11 -6 5 0 -5 7 10 45
1532261858623667 8 0 2 2 4 -2 12 68
1532261858661566 -4 18 -5 -1 -2 -2 2 -63
1532261858698467 17 -59 -6 3 6 15 12 56
1532261858721406 -25 -8 -5 -2 -4 4 12 64
1532261858827127 15 31 1 3 6 5 2 -1
1532261858841086 6 -17 -3 -4 -6 -11 -22 3
1532261858930846 -6 -20 -5 -8 -8 -2 -6 -6
1532261858975726 -3 -4 -11 0 7 0 -6 -2
1532261859020606 6 -2 4 28 5 1 5 3
1532261859058505 -16 3 -2 -37 -14 -7 -3 -2
1532261859103385 -3 -1 3 -4 -1 5 19 2
1532261859126323 -9 2 -1 -3 -3 0 -2 1
1532261859298861 13 -12 3 -3 -2 12 27 -4
1532261859493342 -2 -1 -10 26 2 0 2 4
1532261859531240 -16 4 13 -9 1 5 1 -3
1532261859553181 -6 5 -20 -49 -12 -2 -1 1
1532261859598061 5 -9 3 6 -1 -2 -3 -1
1532261859621000 0 -2 1 -3 0 20 10 -9
1532261859688819 -8 -17 1 10 2 -7 -5 -4
1532261859763619 2 -3 -3 4 0 0 8 -4
1532261859876318 0 -5 18 11 -4 -7 10 1
1532261859921198 8 -18 -12 -31 -13 -5 -11 -3
1532261859951118 4 10 -3 -17 1 -1 2 4
1532261860025917 -3 -31 -10 -18 -8 -4 -2 -5
1532261860070798 -5 15 3 11 6 0 1 -4
1532261860168536 -10 -66 -5 2 2 2 -55 5
1532261860228376 6 -3 1 -2 -5 -39 -9 -6
1532261860348056 -7 -12 7 43 11 1 15 -3
1532261860468734 16 3 -42 61 23 3 5 2
1532261860513614 -4 0 -4 -15 -6 -1 -1 -3
1532261860536552 -8 1 -7 -11 -3 -1 -41 -3
1532261860603373 1 -11 -11 9 3 5 1 6
1532261860686152 -4 -75 -3 -3 -3 -6 44 14
1532261860792866 15 24 25 74 30 7 1 4
1532261860820792 0 13 22 51 2 -3 -1 -3
1532261860895591 4 5 -2 -25 -4 -2 0 1
1532261860918531 -3 -8 -19 -17 -4 -1 -1 -2
1532261860956429 -3 0 -16 -5 -4 0 1 0
1532261860993330 -3 -9 18 -17 0 0 0 -3
1532261861084088 1 16 87 -3 0 0 -2 -2
1532261861106029 2 8 -7 -27 -4 4 1 -1
1532261861173848 -2 -6 -18 16 7 2 0 1
1532261861203768 -3 23 70 11 -2 -1 -2 -2
1532261861255629 -2 -5 -12 -3 -3 0 0 0
1532261861278567 1 -5 1 0 0 -1 -2 0
1532261861293528 16 -7 -78 4 1 1 -2 3
1532261861323458 25 -11 -82 6 5 10 -2 38
1532261861338407 -13 89 28 1 3 19 3 -41
1532261861361346 -1 -30 -40 3 -1 -1 -1 -37
1532261861383288 -3 30 -6 -10 -5 3 8 -4
1532261861398248 -2 -57 -123 74 40 11 -1 -9

1532261861436147 -2 22 -48 -40 -10 -8 -13 1
1532261861474047 -5 -5 -24 44 17 8 1 -11
1532261861495987 -10 -2 21 -16 -5 -14 -1 -5
1532261861533884 0 -7 11 9 6 -9 10 -17
1532261861548844 6 4 -3 -7 -3 6 2 1
1532261861570787 -3 3 18 -11 -3 -7 -2 -8
1532261861593732 6 24 -7 10 0 1 -1 1
1532261861615674 1 -8 12 9 -2 -5 -1 5
1532261861661561 -4 -1 16 -5 1 9 0 -1
1532261861691470 1 0 -14 2 2 -3 -3 1
1532261861728372 -4 4 -2 -5 0 10 5 2
1532261861751310 1 10 18 -2 -4 -6 -5 -3
1532261861781231 -2 -5 0 25 -2 -4 -2 -2
1532261861803172 -1 -1 -4 -1 2 2 0 -1
1532261861841071 4 -5 -16 -11 -2 1 -1 0
1532261861856030 -1 -3 -2 2 0 5 0 -6
1532261861870991 0 -4 -4 -5 0 3 -1 1
1532261861945791 -1 50 23 8 -1 -2 2 3
1532261861983690 -11 -5 -3 1 -1 1 1 -17
1532261862028569 1 -25 9 2 -1 -2 0 2
1532261862081443 0 8 -22 -4 -1 -3 0 -2
1532261862118330 0 0 -13 2 3 0 4 5
1532261862133289 -1 4 8 3 1 14 2 -1
1532261862157226 -6 12 -29 -13 -8 -7 0 -6
1532261862239023 -1 -7 -30 2 3 2 5 33
1532261862268926 -7 -5 -5 -3 4 -7 -10 -27
1532261862283887 -1 -3 -10 6 11 3 3 3
1532261862298847 -4 36 100 47 13 10 -1 -10
1532261862313808 -8 -33 -42 -51 -11 4 4 -10
1532261862358687 -1 -13 -4 7 9 -4 4 0
1532261862395588 0 6 11 12 19 -2 6 -4
1532261862426505 0 -4 -1 2 -2 -3 0 -4
1532261862471385 -1 23 24 -9 -4 -2 0 -1
1532261862501305 1 -9 7 -4 -5 -2 0 -3
1532261862546185 -1 1 -7 -19 -9 -3 -1 -3
1532261862606040 -3 -3 -4 -2 -5 -1 -2 -1
1532261862644921 3 2 0 -4 -8 -3 -3 1
1532261862733684 -2 -2 -4 8 9 1 -1 -1
1532261862770585 -6 -2 19 48 15 2 1 -2
1532261862928164 -1 -4 -6 -9 -8 -2 -4 -1
1532261862982034 -4 -8 -7 -3 2 1 -2 -4
1532261863003961 3 -7 -6 -6 2 2 -1 5
1532261863025902 -5 -1 13 -3 -4 -13 -1 16
1532261863070782 -17 -6 -10 -3 -1 -1 -3 -16
1532261863115662 2 47 0 5 6 4 0 7
1532261863138600 18 -61 -8 -15 -12 -1 0 4
1532261863168521 -21 -54 -2 3 2 -5 -2 -7
1532261863183481 2 42 -6 -3 -6 -3 -4 -3
1532261863199438 -10 19 3 8 3 2 3 2
1532261863243321 -3 12 5 -2 6 4 3 5
1532261863281220 5 -30 -11 -1 3 0 1 0
1532261863364006 -11 -56 -7 1 2 2 -1 -3
1532261863499636 -8 -3 -3 29 -2 -1 0 -5
1532261863522574 -2 5 -4 -19 -4 -2 0 -5
1532261863543518 -16 -36 5 -18 -15 -5 -1 -4
1532261863626297 10 19 -1 -14 2 3 2 10
1532261863671177 -9 -17 2 7 0 -4 -2 2
1532261863753956 2 -3 -1 8 -6 -1 -2 -1
1532261863828755 17 27 -2 -5 -4 -3 0 3
1532261863993316 -1 -3 -5 -1 -7 -2 0 -2
1532261864061134 -2 8 4 1 0 1 -1 -1
1532261864188794 -12 7 -6 -19 -9 -6 -6 -3
1532261864285550 -6 45 2 -1 0 6 1 0
1532261864413197 -3 -3 -3 -2 -2 0 1 5
1532261864443113 1 2 -1 -1 -2 -4 2 -5
1532261864518910 -1 -2 -2 0 1 -1 0 3
1532261864593726 1 -11 -1 2 -2 -3 1 -1
1532261864632606 -22 -12 0 2 -3 -2 1 6
1532261864645572 19 9 1 2 3 9 25 -14
1532261864660531 18 1 -1 -2 -1 -7 -7 14
1532261864691449 2 -5 1 1 3 -3 -13 -2
1532261864736329 -3 4 0 6 5 7 -4 -7
1532261864758270 23 14 1 2 6 -3 1 18
1532261864863987 -5 10 -19 1 -9 -15 7 -12
1532261864900889 -3 -10 2 -4 1 9 15 6
1532261864953751 -5 13 -3 2 -3 -18 -27 -6
1532261864998627 7 2 -80 25 4 11 4 0
1532261865081405 4 -57 121 15 6 3 -13 -9
1532261865133267 -14 -10 24 3 -5 2 5 1
1532261865156205 5 14 0 6 5 -3 -16 8
1532261865201086 -3 -2 5 -10 -8 -5 3 0
1532261865224024 -4 -9 0 69 20 5 21 2
1532261865253944 -2 -7 -16 0 -3 2 15 5
1532261865373625 -8 -17 62 0 3 3 36 -4
1532261865411523 7 -40 -113 -15 1 12 2 57
1532261865441443 22 8 5 13 6 2 -17 82
1532261865471362 -15 -10 -25 -6 -11 -1 -15 -35
1532261865486323 14 -2 -68 85 28 9 93 -24
1532261865523225 -9 5 5 -50 -18 -14 -21 -11
1532261865553145 4 41 -2 1 3 9 -4 -1
1532261865591043 -2 -5 -31 -4 2 0 13 -3
1532261865613982 14 11 -20 -22 -10 -2 -25 -3
1532261865635923 4 5 -29 14 5 -2 8 4
1532261865658862 -5 79 127 0 5 3 9 -9
1532261865688782 0 75 26 -20 -14 -14 -24 -32
1532261865710723 27 10 46 6 -1 3 2 37
1532261865725683 13 18 35 11 4 4 8 9
1532261865763582 0 -47 -18 -4 1 -3 -39 -46
1532261865778541 -4 -49 -28 -10 -1 -3 -13 7
1532261865831400 -3 -19 -3 -8 -1 -2 -13 -11
1532261865868301 -20 -50 -21 -74 -34 -15 -4 -21
1532261865913182 0 45 -16 26 1 -4 -41 -3
1532261865943102 -7 -32 8 33 15 13 26 3
1532261866010920 -13 -109 -8 19 3 2 -24 -2
1532261866040840 -8 -12 -15 -4 -6 -4 15 -74
1532261866078739 14 -22 19 -1 -4 -3 22 48
1532261866198418 10 -7 -19 -18 1 0 10 11
1532261866258265 -1 -16 -9 -35 -9 -1 11 3
1532261866297161 1 23 3 -4 -4 -4 6 9
1532261866408856 25 4 12 0 0 0 4 58
1532261866505598 0 0 5 0 4 10 -1 -6
1532261866566435 12 25 -14 -8 -9 0 -1 10
1532261866611315 -1 15 4 -25 0 1 1 4
1532261866663176 -2 -14 -2 -19 0 -1 1 1
1532261866835714 -11 -13 -8 -26 -5 -2 -2 -4
1532261866888574 3 34 24 -2 0 -5 -5 0
1532261866963378 0 16 43 3 -1 1 -1 -2
1532261867091031 2 0 -16 8 2 -2 0 0
1532261867173821 -11 -18 -12 0 -2 -16 -8 -11
1532261867203730 -3 -5 -12 -2 4 -2 -1 1
1532261867255593 -4 15 65 1 -3 -7 -2 -11
1532261867301469 6 13 4 0 1 -1 0 16
1532261867398211 -19 12 -3 1 0 -3 -10 -45
1532261867430125 6 10 5 1 3 -2 -6 -18
1532261867466029 4 1 -3 1 12 21 20 13
1532261867510909 6 -7 0 0 -10 7 9 6
1532261867542823 -7 -10 -1 0 -13 -17 -5 -13
1532261867563781 -4 0 0 27 -30 6 -26 24
1532261867585709 11 -2 1 7 18 8 7 -7
1532261867623613 -1 -1 0 -6 8 -10 -6 1
1532261867638567 12 3 1 -2 8 4 18 10
1532261867653528 -3 -5 -3 -6 12 6 4 -6
1532261867668488 -4 1 7 8 -4 0 -3 7
1532261867691427 0 -4 0 43 0 -8 0 -4
1532261867706392 6 -6 -10 -28 -23 -5 0 -4
1532261867751267 -2 4 -1 2 9 12 -3 -2
1532261867788168 -1 13 -3 -24 6 -5 -5 -7
1532261867803128 -10 -1 8 -35 -7 -2 5 -1
1532261867849005 -3 -17 -3 -33 -4 -1 4 1
1532261867885906 6 8 -14 1 1 -4 -5 4
1532261867915826 29 -9 -13 -18 -7 -5 -4 5
1532261867938766 -11 -11 -4 19 1 -1 -3 -2
1532261867953725 -10 4 5 5 2 2 6 -2
1532261867983650 1 -11 -5 -1 -2 -5 -6 0
1532261868043494 4 2 4 0 3 24 6 -1
1532261868073405 0 1 -1 4 1 2 9 3
1532261868141224 -4 3 2 11 -4 -19 -25 -5
1532261868163165 1 2 -2 2 3 5 7 0
1532261868186104 3 2 8 22 10 2 20 5
1532261868209042 -1 2 -5 -8 -10 -15 23 5
1532261868260904 0 -2 -8 -29 -21 15 -11 -4
1532261868283843 11 1 -22 46 12 12 3 4
1532261868320743 -3 -3 -21 -46 -16 0 1 -2
1532261868360637 3 1 26 -3 -13 -5 -7 1
1532261868426461 -9 -2 35 15 1 1 1 -2
1532261868456381 4 6 -2 0 0 -2 1 4
1532261868518230 3 0 -1 -17 -4 -6 -1 -3
1532261868620941 -4 -5 5 14 4 -22 -9 -10
1532261868673799 -1 4 -1 -10 -2 16 16 2
1532261868718685 -3 -5 4 -33 -7 24 17 0
1532261868778519 -3 3 -11 19 8 -10 7 -1
1532261868816418 5 0 11 70 18 -3 6 -2
1532261868838359 -3 38 22 10 -2 -14 2 -1
1532261868853319 0 -31 -9 3 -1 -5 -7 -3
1532261868943079 11 -5 -10 -1 0 -7 5 -3
1532261869055778 9 -12 -4 -1 -3 -12 -13 -7
1532261869078729 -4 2 1 -2 -3 28 26 -2
1532261869108637 -4 0 -3 -3 -3 -18 -21 -4
1532261869161495 -2 -5 -5 -4 -7 -18 -2 -3
1532261869184434 -1 5 2 29 2 8 46 8
1532261869221336 -1 5 13 -11 -3 -8 -6 9
1532261869281175 8 4 9 -43 0 -11 -11 4
1532261869364952 -22 1 7 12 3 1 5 -1
1532261869415815 10 0 -3 19 5 3 3 1
1532261869475655 1 1 0 11 -1 -4 -3 -3
1532261869513554 -3 2 3 -3 0 0 -2 -1
1532261869536492 3 -1 -2 -1 -1 -6 -8 0
1532261869566413 8 2 1 -1 4 17 2 0
1532261869596332 -3 -2 -4 -4 -1 -9 -3 -3
1532261869663154 -3 -1 -3 -5 1 5 -3 3
1532261869686093 2 0 0 6 9 17 11 -6
1532261869730973 -2 0 -3 -11 -5 -5 -8 -2
1532261869798791 4 6 17 -13 -8 0 -2 3
1532261869828711 -3 -13 4 -10 -8 -3 -1 -1
1532261869850652 -5 0 -20 5 12 6 3 -3
1532261869873592 2 3 -20 -2 1 -2 0 -1
1532261869888551 -4 10 -36 28 7 0 -2 0
1532261869911494 3 13 28 0 -1 1 -1 2
1532261869948391 -2 -11 -35 -8 0 0 -1 0
1532261870008231 -1 -14 -31 -7 -1 -1 1 -2
1532261870031169 -1 -6 -4 1 1 -1 -1 -2
1532261870061090 -2 1 -10 0 2 1 -2 -1
1532261870084028 4 -27 -34 -2 0 2 -1 2
1532261870128908 2 -1 8 6 5 3 2 2
1532261870158828 -2 27 73 -14 -2 -1 0 0
1532261870188754 -3 -2 1 12 -1 -3 0 0
1532261870219673 1 15 21 0 -2 0 -2 1
1532261870301447 5 -8 -22 -9 -1 -2 -1 2
1532261870368268 1 6 -13 75 21 4 3 0
1532261870391207 -3 5 71 -3 -5 -4 -7 -30
1532261870428117 -13 -54 -58 -6 -5 7 17 0
1532261870480972 2 29 -47 -8 -4 -2 -22 -36

1532261870540807 11 -3 -60 -6 9 2 6 13
1532261870593666 -7 -17 -32 20 6 3 1 1
1532261870646523 -3 -32 -25 -18 -2 1 -3 2
1532261870676444 -2 2 -13 -1 -2 1 0 1
1532261870721324 -1 15 13 2 -3 -1 0 5
1532261870751244 2 -5 -29 -10 -2 2 4 6
1532261870766204 0 -2 -18 1 -1 -1 -3 -3
1532261870811084 -6 -16 -2 -1 1 -2 -2 -5
1532261870863943 11 2 18 -2 -1 1 1 16
1532261870908822 -3 1 -4 0 1 0 -1 -4
1532261870930763 0 5 3 4 0 0 2 -5
1532261870960684 -1 5 4 -12 -11 -2 -2 -1
1532261870983623 -2 -14 8 4 1 3 2 -2
1532261870998583 0 -4 -1 10 -1 -4 -2 -1
1532261871058423 -7 5 -5 -26 -8 -2 0 -4
1532261871141202 0 2 -2 1 -3 -5 0 1
1532261871163143 -2 -3 -2 -3 -1 -2 -3 -2
1532261871216001 2 0 -13 -3 0 -1 1 0
1532261871253899 -1 -1 16 -2 -2 -3 -1 -2
1532261871283820 -1 -10 -13 0 0 3 1 -1
1532261871313740 -2 -10 -9 -20 -9 -1 -2 -2
1532261871358620 -3 -2 32 -7 -3 1 3 -2
1532261871471318 8 6 -6 8 2 7 19 4
1532261871508220 -9 -10 -7 -2 3 10 4 6
1532261871569070 -2 -3 -16 11 3 -1 2 2
1532261871584017 -3 -4 -19 -6 -12 -1 2 -3
1532261871620918 -1 18 -7 -7 -3 0 -7 -7
1532261871650839 -4 2 13 -14 -6 -2 -1 -4
1532261871703697 2 -1 -27 -8 -5 -2 -1 1
1532261871725639 1 -2 -4 3 7 4 3 4
1532261871771520 -2 -5 -5 8 3 -2 1 -2
1532261871793457 0 1 -10 -23 -9 -5 0 0
1532261871816396 4 1 5 -1 3 -1 -1 2
1532261871831356 -1 -2 -2 2 2 3 1 -1
1532261871853297 -3 4 -2 -4 0 0 1 0
1532261871868257 -6 -2 -6 -11 -3 0 0 -1
1532261871906155 -5 -6 -4 -2 -2 -1 -2 0
1532261871928097 3 0 -9 -4 -1 1 -1 -1
1532261872003901 -13 -3 -3 1 4 1 -1 0
1532261872123575 17 20 8 -2 4 -1 -2 3
1532261872147511 -3 -4 -9 -32 -9 1 -2 -2
1532261872168454 -17 -6 1 -39 -9 0 -1 1
1532261872191393 -3 1 -7 -35 -9 -1 1 0
1532261872236273 4 -7 -10 4 -5 -5 0 0
1532261872258215 6 0 7 6 3 -1 -7 0
1532261872326033 -8 5 11 1 -12 1 -1 -7
1532261872363932 -4 -44 11 3 -5 -6 -21 5
1532261872393851 16 -67 3 2 -6 -9 -19 0
1532261872408812 -4 13 9 16 2 2 27 1
1532261872483612 6 -9 -1 -1 0 0 -7 6
1532261872573389 7 -3 -9 -11 -8 -5 -5 -5
1532261872679089 7 -17 -17 -16 -4 0 -1 -2
1532261872715990 -4 -4 -8 -9 -1 1 -3 -3
1532261872745910 17 -29 -5 -22 -7 -3 0 3
1532261872850631 8 -52 -3 8 0 -3 -2 -2
1532261872934406 -2 -4 -4 -6 -5 -1 -4 0
1532261872971307 8 1 1 9 -2 -7 -1 2
1532261872993249 1 6 0 -3 -3 -2 0 -1
1532261873038144 4 47 4 3 1 1 -1 1
1532261873068049 7 -7 -1 -1 -1 0 1 0
1532261873165787 12 -4 -1 -2 7 1 -1 0
1532261873255592 3 10 1 -10 5 10 3 -2
1532261873316429 -7 -59 -17 -9 -8 -1 -1 -1
1532261873383250 -3 -5 -13 -18 -18 -3 0 -5
1532261873428130 0 -2 -6 -35 -13 -5 1 -1
1532261873525869 -17 -8 0 2 1 1 -1 -3
1532261873555800 1 -5 2 3 4 -1 1 1
1532261873600669 1 2 2 1 3 3 0 -2
1532261873638567 -2 -2 -2 -2 -3 2 0 -1
1532261873706387 -3 -3 2 -1 3 0 -2 -2
1532261873773207 0 27 1 -2 -5 1 -5 -4
1532261873805122 6 -7 0 -3 2 1 2 -2
1532261873819085 1 -9 -2 0 -13 -1 -5 -8
1532261873849005 4 -9 -6 -6 11 -2 0 -1
1532261873878925 7 -8 7 -1 -7 -10 -2 13
1532261873960706 -10 4 19 12 17 2 -2 -6
1532261873975666 -1 9 -62 -45 -11 -15 -2 -6
1532261874028525 -10 10 18 9 19 10 5 -21
1532261874088365 -23 12 -64 -18 2 -34 -28 -64
1532261874224013 0 -22 -44 -11 -15 6 -14 29
1532261874486301 -12 -14 -2 -63 5 -14 -12 -10
1532261874516221 2 -33 -57 29 -56 -15 -14 0
1532261874576060 0 2 -43 -10 -8 -7 -10 -10
1532261874733639 -11 -35 41 5 8 -2 -11 36
1532261874853319 -7 11 41 -40 -10 -3 3 -5
1532261874966018 -6 -8 -99 4 2 1 21 4
1532261875100658 0 -43 1 -7 -4 -4 -24 2
1532261875138556 11 8 37 -36 -10 -7 -6 9
1532261875273212 -8 -12 26 -21 -8 -2 -22 -6
1532261875311095 -5 -7 13 6 5 7 -26 3
1532261875370935 2 33 20 -15 5 3 8 -8
1532261875408834 -16 -112 -6 3 8 2 -88 -17
1532261875447730 -4 -1 10 -16 -4 -5 27 -15
1532261875460695 2 5 17 33 7 7 62 6
1532261875483634 -2 -27 -64 5 -1 -4 35 -7
1532261875558433 3 35 30 -4 4 5 -7 -1
1532261875603314 -1 -6 -19 8 7 3 30 1
1532261875635229 3 3 -12 -8 -4 -1 -12 0
1532261875649190 -2 -33 -8 -10 -6 6 -3 -10
1532261875678114 10 7 -28 -8 1 1 -4 20
1532261875693073 -2 -28 -23 -6 0 1 -1 25
1532261875732967 -11 -2 -9 -4 -2 8 0 41
1532261875754912 8 3 -3 3 1 2 -8 -9
1532261875820732 6 -31 -7 1 -3 -2 5 38
1532261875850652 11 -1 -18 0 0 1 6 30
1532261875880572 -4 -16 -26 0 0 0 1 -12
1532261875911489 7 37 1 17 0 -1 -1 9
1532261876001249 4 -2 -28 -15 -7 -3 2 7
1532261876016210 -4 -14 -5 -17 -1 -2 1 -5
1532261876046130 5 17 23 48 14 3 1 1
1532261876061090 3 -9 7 -29 3 1 0 -1
1532261876113948 0 -13 -36 20 4 0 -1 2
1532261876158828 0 -4 7 14 -3 -4 -3 -1
1532261876225649 -1 -19 -5 2 7 1 1 3
1532261876391207 3 6 10 1 -1 0 0 1
1532261876525847 0 6 20 -3 -6 -4 -2 1
1532261876542810 2 23 85 14 6 3 -1 -3
1532261876564743 -3 -18 10 2 -2 -3 0 5
1532261876585687 -5 -1 -17 1 2 8 3 7
1532261876623585 6 12 12 9 4 0 2 6
1532261876653505 -2 -2 80 1 -3 -4 -2 2
1532261876676444 -1 -8 -22 -1 2 1 -1 -5
1532261876804103 1 3 -2 0 3 -13 -3 7
1532261876842998 0 2 -2 0 0 3 -1 14
1532261876863943 -20 -1 -2 0 1 -6 -1 -18
1532261876900844 -7 -2 -3 -1 -4 -11 -13 2
1532261876915804 2 1 0 -2 1 23 -3 -8
1532261876990604 5 -1 0 -1 -9 -9 -1 -2
1532261877021521 3 1 0 0 -3 -3 1 -11
1532261877058423 -4 0 -1 -4 -6 -11 1 7
1532261877096321 -5 -5 -6 8 -3 5 4 -2
1532261877111281 4 0 -3 -7 1 -8 -2 -6
1532261877148182 -7 -3 2 -6 2 -1 9 -1
1532261877163142 3 -1 -3 -19 -9 -7 -6 -2
1532261877186081 -10 0 -11 6 3 2 -5 1
1532261877216001 8 1 -2 -15 -3 2 7 -1
1532261877238940 5 -1 3 -16 -14 -10 -9 -2
1532261877284817 -15 -6 -15 -21 -4 -1 -3 -3
1532261877313739 -3 1 -1 3 2 -3 -2 -2
1532261877335681 -35 -12 -18 -15 -6 2 20 -6
1532261877358620 -1 0 -4 -29 -5 -2 -1 -1
1532261877412476 0 -4 -8 8 1 -3 -16 0
1532261877463340 0 -4 1 23 11 -1 -6 -1
1532261877501238 -7 -1 1 6 2 6 2 -3
1532261877531158 0 2 -4 -10 -3 -7 -11 1
1532261877576038 -5 -1 -4 -7 1 -8 -6 -2
1532261877689734 8 0 -18 -8 1 6 -8 -2
1532261877733617 -1 3 30 -3 -3 -3 -14 -2
1532261877763537 0 2 0 12 9 3 18 2
1532261877808417 -10 -3 -8 -23 -3 11 6 0
1532261877832353 -3 4 17 84 22 2 -18 -1
1532261877876235 -8 12 -2 -25 -4 5 14 2
1532261877898177 3 -8 -4 -22 -6 -2 1 -4
1532261877959014 -5 4 10 15 5 1 -2 -1
1532261877988935 16 -6 -5 -4 -4 -4 -2 -1
1532261878018854 -2 -1 5 -4 3 5 -1 -3
1532261878123574 -6 5 6 -8 -3 1 -9 -4
1532261878198374 -2 -6 -7 0 -2 4 2 4
1532261878213333 -12 -1 14 22 7 13 -9 -1
1532261878268188 4 10 16 49 14 -13 -6 4
1532261878288134 8 7 -1 -28 -12 -10 -8 -1
1532261878311073 -4 -12 -4 -4 -7 -1 -8 -4
1532261878340993 -19 4 -24 -15 -4 -4 -6 -3
1532261878378891 1 -8 6 3 -6 1 -4 0
1532261878400833 7 11 14 2 0 1 -3 0
1532261878468652 3 -7 0 1 -2 2 -2 2
1532261878513531 -8 -1 -1 -2 3 6 -1 -9
1532261878551430 1 -2 -1 -6 -2 -5 -1 3
1532261878596310 -7 -2 -8 -1 -2 -2 1 -2
1532261878618251 11 -3 -3 -10 -10 -51 7 2
1532261878641190 -12 2 0 -12 4 33 -25 -7
1532261878678091 8 2 -1 1 -1 22 5 8
1532261878709009 -18 -8 -27 -27 -1 16 6 1
1532261878723969 1 5 -10 18 7 10 5 4
1532261878768849 -12 -10 0 16 -7 -6 -6 -6
1532261878807745 10 6 17 -36 -9 -2 -1 1
1532261878820710 16 -5 -6 -7 1 -3 0 4
1532261878843649 3 -4 1 -17 -9 -3 -3 -1
1532261878888528 24 -20 -14 12 3 -3 -3 -4
1532261878956347 0 -9 3 4 2 1 0 2
1532261879031147 -4 0 1 2 0 12 2 13
1532261879120907 -5 -1 -1 0 -1 -6 -5 -2
1532261879143846 3 3 -1 -1 3 -2 -1 -2
1532261879180747 4 -7 -17 62 12 -1 3 2
1532261879210667 -6 -1 18 -17 -12 -9 -7 -1
1532261879233606 11 15 15 -3 -3 2 2 7
1532261879255547 -4 10 22 -11 -18 -8 -2 -2
1532261879286464 -9 9 23 -25 -9 -1 -1 -3
1532261879316385 5 -14 -9 18 6 -2 -1 -2
1532261879346304 -17 10 -7 -1 7 1 3 0
1532261879361264 -2 -5 -4 42 0 2 -2 -3
1532261879383206 11 -10 -17 -21 -5 -3 -3 1
1532261879451024 6 10 0 11 3 0 1 3
1532261879540784 2 13 -104 -53 -8 -1 -4 2
1532261879585664 -4 -18 36 15 5 1 1 0
1532261879615584 0 -3 74 7 -4 -5 -3 -2
1532261879653483 -5 53 -1 14 13 2 -1 0
1532261879706350 3 48 19 -7 1 1 2 -3
1532261879773163 -1 16 29 1 -2 -1 0 0
1532261879796102 1 10 27 10 1 1 -1 0
1532261879819040 3 14 -57 13 3 -2 1 0
1532261879900822 -3 -8 8 -5 -2 -1 0 -1
1532261879990582 -2 28 13 7 1 5 -1 -27

1532261880051419 50 -1 -10 3 2 -31 -36 -49
1532261880118240 2 -11 34 32 3 4 6 4
1532261880141179 -10 -1 -16 -20 -7 -11 4 -4
1532261880178087 0 11 -12 7 24 14 0 -1
1532261880208997 -4 -7 -31 -43 -20 0 -4 -4
1532261880253886 -5 0 -5 -5 -1 0 1 8
1532261880275819 -4 6 24 -1 -3 -1 -2 -6
1532261880388517 0 4 -24 -8 -3 -1 0 -1
1532261880403477 2 -4 4 -3 -2 2 -3 -3
1532261880441376 3 3 -3 -1 5 4 -1 0
1532261880486256 1 10 17 -9 -5 0 -1 -2
1532261880546096 -2 1 -13 -9 -5 -1 -2 -2
1532261880605938 1 -8 -3 4 6 6 1 0
1532261880676747 0 -3 3 -5 -4 4 0 -2
1532261880703675 -2 3 12 -1 -1 3 -1 -1
1532261880725616 0 4 -19 -26 -12 -2 -3 -2
1532261880741574 -1 5 20 -5 -1 6 1 1
1532261880778475 -4 -1 1 1 0 -1 0 -2
1532261880793435 0 -5 3 -4 2 0 -1 -1
1532261880838315 1 -8 11 -5 -1 4 1 6
1532261880876213 1 8 19 -2 0 -3 -2 2
1532261880921093 -1 7 -6 -6 -1 3 1 2
1532261880973984 -1 8 28 4 1 -1 1 2
1532261880995925 -1 2 -72 -3 -10 -30 -37 6
1532261881018864 -19 15 -19 0 -3 -22 -7 12
1532261881115605 0 7 -59 -21 -7 5 0 -4
1532261881138544 -9 -33 55 16 2 15 -5 -6
1532261881176443 -4 -2 33 5 0 -17 -2 0
1532261881198384 3 5 15 4 2 1 -4 4
1532261881303104 -1 -8 -3 7 4 -3 1 1
1532261881363941 3 6 13 15 1 3 1 0
1532261881415803 5 1 10 9 4 -1 -1 0
1532261881453701 4 -2 -2 -2 8 1 0 2
1532261881475643 -1 -5 -8 -7 -1 1 -1 0
1532261881498581 -2 2 3 1 -2 -1 -1 -1
1532261881528501 2 6 3 6 -8 -2 3 1
1532261881558421 4 -3 5 -9 -2 -3 -3 -3
1532261881581360 -1 2 2 -5 -5 -3 -1 1
1532261881596333 -9 -3 -7 2 1 -1 -1 1
1532261881626239 -1 1 -18 4 -3 3 0 2
1532261881656176 -3 -4 -30 -5 -5 -2 0 -1
1532261881695057 2 9 8 -1 -1 -1 1 3
1532261881716000 14 -8 6 0 4 2 0 1
1532261881745920 16 3 3 6 0 1 4 17
1532261881775840 -6 3 12 -6 5 -2 -6 -18
1532261881798791 -25 -48 -15 4 1 -3 -4 -11
1532261881813739 -36 -30 -13 -3 -5 -2 0 -25
1532261881835704 22 26 1 6 4 3 1 6
1532261881865624 16 -10 -3 1 -4 -2 3 55
1532261881880584 5 5 1 0 -10 0 0 12
1532261881948403 -43 -44 -4 -6 -4 -2 -3 -36
1532261881971342 18 1 8 2 0 -3 -4 3
1532261881993283 9 21 -2 1 -1 0 1 2
1532261882031181 35 40 17 27 9 2 6 13
1532261882085038 3 -10 -8 -3 0 -1 -7 7
1532261882099000 -5 -15 -15 -6 -5 -3 4 0
1532261882135901 -3 -56 5 -1 -3 -4 -3 1
1532261882160835 -8 12 5 0 -3 -1 0 -2
1532261882203720 -13 -39 0 1 1 1 2 0
1532261882233640 -2 51 2 -1 -11 -3 -2 0
1532261882263560 2 -10 -24 -5 1 -2 -2 0
1532261882286508 -7 13 4 15 10 5 2 -1
1532261882338360 3 -30 6 2 6 4 3 0
1532261882376259 3 -18 6 -1 -2 2 1 10
1532261882406179 1 -25 17 1 9 4 0 -5
1532261882451059 -21 -67 -24 -3 -3 -5 2 2
1532261882495938 -16 -41 -18 -48 -19 -7 -2 -1
1532261882578717 19 -8 -18 -4 -1 0 -2 -16
1532261882638557 7 7 -19 -6 -2 -1 -12 -12
1532261882661495 14 8 7 -3 1 0 5 11
1532261882691416 1 -1 1 0 -5 -3 -2 0
1532261882751255 17 17 0 -4 -6 -5 -4 12
1532261882819074 2 -42 0 -8 -1 0 3 3
1532261882855992 11 70 1 5 -1 -1 -3 -6
1532261882960696 8 -1 -1 -14 -2 0 1 7
1532261882983634 6 44 8 10 2 -1 12 12
1532261883073406 9 13 -16 24 -1 -2 -6 -4
1532261883118274 -24 -37 -2 13 5 -4 -5 -7
1532261883305772 -13 -13 1 14 1 -1 1 -2
1532261883381570 -10 -9 -5 -1 3 -3 -1 -2
1532261883426450 0 7 1 -4 -2 -5 -4 -2
1532261883480307 5 -7 -2 2 6 1 2 1
1532261883517208 -30 -13 -2 -4 -15 -5 -4 -4
1532261883531170 8 7 6 7 8 4 -7 5
1532261883561090 -6 -2 3 1 -5 -2 2 3
1532261883643869 -10 0 1 -3 5 5 9 11
1532261883725651 1 18 -16 12 0 -2 4 -18
1532261883779506 -7 4 1 0 0 39 65 3
1532261883838349 -1 4 -52 3 4 2 30 4
1532261883861288 -3 4 -47 8 0 -12 -107 -6
1532261883951047 -7 -8 19 8 -3 -3 -18 -9
1532261883995928 -3 15 -14 -4 -5 0 13 -2
1532261884040808 -6 -20 -22 -9 18 8 24 3
1532261884063746 -14 -22 25 75 20 6 -13 -5
1532261884093666 -12 -21 -33 -24 -2 -2 -8 -3
1532261884108626 -5 -4 -12 -6 -5 -1 0 -9
1532261884146525 0 -7 13 -12 -8 -4 3 2
1532261884206365 -2 -16 -31 25 0 -3 -1 0
1532261884236285 -12 -14 26 3 3 5 -8 2
1532261884296125 12 37 -20 -3 -5 -1 -16 26
1532261884311085 -12 -30 -41 -10 -2 0 21 -81
1532261884348983 6 10 0 2 0 -5 17 7
1532261884393863 0 5 11 -24 -9 -6 -39 -19
1532261884423783 -6 9 0 -26 -19 -7 -7 -22
1532261884468669 -21 -43 -38 -36 -10 -4 13 -16
1532261884491602 -4 -31 -22 -8 7 2 13 -1
1532261884528503 8 8 -13 -3 2 0 -56 -2
1532261884551442 -2 1 -14 -2 -6 -5 1 -15
1532261884566401 6 23 26 2 -8 -2 15 20
1532261884588343 -6 -31 -45 15 4 3 -5 11
1532261884611281 -7 -4 -10 -13 -1 -1 -27 36
1532261884626242 7 -56 -21 4 8 8 -8 -72
1532261884641202 -13 -128 -25 4 8 5 24 -18
1532261884678103 4 14 3 0 -2 -7 -17 -32
1532261884709020 1 17 -10 -11 -10 -2 9 -8
1532261884738950 -20 -34 -41 -29 -3 1 -90 -3
1532261884790801 5 22 -23 -23 -10 -4 20 2
1532261884835682 -5 13 -3 16 1 -1 17 1
1532261884850642 3 5 -12 9 -1 1 1 -4
1532261884882557 6 2 -18 12 5 3 5 4
1532261884903501 -2 5 -1 8 1 -2 -36 -3
1532261884926439 5 7 34 -24 -3 1 5 1
1532261884948380 -1 -24 -21 12 1 2 -16 0
1532261884978301 4 18 26 10 -3 -3 -2 2
1532261885023181 -2 -9 -58 5 -4 -6 -15 -3
1532261885061079 8 58 104 29 10 7 -3 -4
1532261885084018 7 60 -19 -4 3 1 62 26
1532261885128898 1 4 19 12 -1 2 3 15
1532261885143858 9 4 22 9 5 -1 -11 10
1532261885188738 4 11 -7 22 -3 0 12 3
1532261885210679 -6 -5 7 29 15 4 14 2
1532261885233618 1 2 6 16 5 1 -1 2
1532261885271516 -9 -17 -20 -19 -4 -1 13 -4
1532261885293458 3 -49 -9 -14 -6 -4 0 -9
1532261885323387 6 37 -1 -2 -1 2 6 6
1532261885368258 0 1 -11 2 2 5 5 38
1532261885391196 -2 13 -24 1 1 -4 -6 -19
1532261885413138 1 -8 -15 -5 -2 -5 -7 4
1532261885444055 6 -17 7 -1 0 -5 4 -10
1532261885473975 8 12 23 -1 -4 -1 -5 -4
1532261885503895 10 15 24 0 2 8 1 21
1532261885548775 1 -1 5 1 2 4 -2 1
1532261885638535 -5 52 15 -8 -5 -5 -2 -8
1532261885668454 5 -17 -16 -25 -7 -4 0 -2
1532261885706353 -1 -12 -26 72 27 4 2 -1
1532261885728307 3 5 -12 -9 -9 -3 -1 0
1532261885743254 -19 -47 -50 -7 0 -2 -2 -9
1532261885766193 -2 3 -12 -12 -9 -2 1 0
1532261885781154 2 3 26 -38 -2 2 0 -1
1532261885803095 1 1 -18 12 6 0 1 0
1532261885818055 8 20 44 27 -1 1 1 2
1532261885870913 9 7 10 -6 2 1 1 1
1532261885945728 -2 0 1 -2 1 1 0 1
1532261885977628 -8 -29 -34 -6 1 1 -1 -4
1532261885999577 2 -4 -17 -6 -1 -4 1 1
1532261886103292 -6 1 24 1 0 -6 -2 -4
1532261886148172 -4 -9 -26 -2 0 0 -2 -3
1532261886314744 7 29 14 7 2 -1 1 22
1532261886365590 -1 -1 2 -4 -1 -1 1 -1
1532261886426428 0 7 -4 -2 -1 -2 3 0
1532261886501227 4 9 2 -1 -2 -8 2 26
1532261886584006 -3 0 -1 -3 -1 3 2 0
1532261886598967 11 -2 -3 -2 -4 1 6 69
1532261886658807 -5 1 1 1 2 -5 -3 -16
1532261886680748 1 0 0 -1 -3 -14 0 3
1532261886703687 3 -3 -1 2 2 23 -14 -23
1532261886765521 -17 3 0 -2 -8 -13 -2 -45
1532261886802423 6 0 0 0 5 18 -16 -19
1532261886831345 -15 -2 13 39 16 8 18 -2
1532261886853287 14 -1 -8 -14 -3 0 23 -1
1532261886891185 8 3 -33 21 -1 15 -1 4
1532261886913126 -5 -7 -17 -44 -12 -26 -1 -4
1532261886980945 -6 -2 12 -14 2 -2 -8 -1
1532261887025825 -10 0 18 25 11 2 1 -2
1532261887040785 2 0 -2 -4 0 -3 1 1
1532261887070705 5 1 9 -14 -3 -3 -10 3
1532261887093644 1 4 6 26 3 7 14 2
1532261887326022 -4 0 0 9 -2 11 11 -1
1532261887409799 -4 -2 -19 -23 -10 18 -3 -5
1532261887483601 3 3 -5 -19 -14 8 -6 0
1532261887544438 2 2 -1 -9 0 3 -2 1
1532261887745899 5 -6 -3 -8 -2 -7 -5 -1
1532261887843645 5 2 -6 -24 13 -23 -15 -4
1532261887880540 -2 -9 -2 -20 -39 -7 26 0
1532261887963318 -4 -13 21 -46 4 6 -5 -2
1532261888001217 5 11 22 -2 3 0 1 0
1532261888054076 7 -4 5 26 -4 -4 -3 1
1532261888135856 -12 -5 3 10 0 -10 -2 -3
1532261888233596 -6 -3 1 3 1 8 5 18
1532261888308395 -6 -6 3 13 12 6 -4 -28
1532261888346294 7 3 2 3 0 -12 -23 0
1532261888408129 -5 -1 -4 44 4 34 12 17
1532261888548753 -11 -20 -5 -28 -5 -2 -3 -6
1532261888578673 -26 17 17 14 2 3 6 3
1532261888721291 4 2 3 -9 -4 4 17 20
1532261888751211 -8 -2 -1 11 6 11 7 6
1532261888797089 9 -3 1 6 -5 -6 -28 -6
1532261888811052 8 4 -1 -15 -2 8 9 16
1532261888840971 -10 -16 -18 -7 6 -12 -9 -6
1532261888878869 4 8 12 -19 -5 5 15 0
1532261888945691 -8 -10 29 31 7 2 3 -13
1532261889007526 -2 -14 10 -11 -8 -4 -4 -5
1532261889096289 4 17 25 14 3 1 -1 2
1532261889133190 6 62 36 3 2 0 0 -1
1532261889201009 -5 -78 -71 -4 3 -1 -1 2
1532261889260848 3 5 33 9 -1 2 0 1
1532261889283787 -2 -5 11 18 13 1 -1 -2
1532261889343627 -2 -27 11 -5 -2 -6 0 -1
1532261889388507 -8 0 -5 -5 0 0 1 -1
1532261889464305 -4 18 6 -3 2 1 1 15
1532261889493228 -20 -28 -91 -12 -4 -5 0 -52
1532261889523147 3 27 31 2 -1 12 0 -6
1532261889553067 6 -3 -62 -29 -7 5 0 4

1532261889569025 -13 -25 -110 32 12 8 3 -2
1532261889598944 6 11 -15 -9 1 -6 -1 6
1532261889658784 0 4 20 -11 -10 3 2 -1
1532261889741577 -3 23 -6 -21 -8 1 0 -5
1532261889763511 8 29 5 -28 -9 -1 2 6
1532261889810379 -2 -7 -10 8 2 -2 -1 -5
1532261889831323 -5 -18 -10 -2 -2 2 -1 -3
1532261889846283 -2 -5 -1 0 2 0 -1 -5
1532261889876203 -1 -16 -22 0 -1 0 2 2
1532261889891163 5 33 18 1 -1 0 3 11
1532261889921083 -6 35 -2 4 1 -2 2 -2
1532261889951003 3 11 -15 -3 -2 -1 -2 -2
1532261890033781 -1 6 -2 -1 0 0 -2 -1
1532261890049739 2 -12 -51 -4 -2 0 1 -1
1532261890063702 5 1 5 -2 -2 -4 -2 4
1532261890085643 -2 -5 5 7 1 1 0 1
1532261890111576 2 -1 4 -7 -2 -1 1 2
1532261890138502 -5 -13 -41 8 4 -1 0 -3
1532261890168422 -4 -28 -1 -13 -3 0 0 -9
1532261890296097 -1 9 103 -1 1 3 0 -2
1532261890319040 3 10 38 -1 -3 -1 4 0
1532261890348955 2 -2 -43 -14 -5 0 -3 0
1532261890393835 0 1 -43 -32 -6 13 9 3
1532261890430736 -2 8 39 33 12 -21 7 9
1532261890521494 1 -3 1 0 -6 -6 -1 5
1532261890551414 3 4 14 8 6 3 2 3
1532261890633195 1 -4 -11 -6 9 2 1 -1
1532261890709989 0 2 -16 -6 0 1 -1 1
1532261890730933 2 -3 -1 11 -1 -2 -2 -1
1532261890745894 -2 -5 4 -1 -6 -6 -3 -2
1532261890775813 2 0 -5 -4 -1 0 -1 -1
1532261890798752 -4 -1 12 12 1 4 -1 0
1532261890835654 1 -3 0 -3 0 -1 1 -2
1532261890858592 0 9 14 3 1 -5 -1 0
1532261890896491 -1 -1 -6 7 -1 1 0 0
1532261890941370 1 -4 -4 -18 -13 -1 -1 -3
1532261890963313 -2 2 8 0 -5 -2 -5 -4
1532261890986250 -3 -2 6 15 2 1 -2 -2
1532261891038112 2 -1 -3 12 2 0 5 2
1532261891061050 9 7 -17 -22 -7 -4 3 1
1532261891083990 -11 -4 5 -1 6 1 -2 -1
1532261891113910 2 -1 -4 -7 1 1 0 -2
1532261891180784 0 -19 3 5 0 0 4 -5
1532261891210703 -23 -2 5 0 5 3 0 -4
1532261891249600 27 14 3 -6 -1 0 0 5
1532261891263563 -57 23 6 1 4 -1 -4 -3
1532261891286501 -8 -62 -21 -10 -2 0 1 3
1532261891323408 -9 50 78 4 2 -1 -4 -10
1532261891361301 1 24 -2 -2 -4 -4 -1 -3
1532261891444080 -31 -110 -18 -2 1 4 6 12
1532261891525861 8 -5 5 2 3 1 -2 -2
1532261891549798 0 4 -12 2 -3 -3 -2 -4
1532261891600661 -7 28 0 6 -1 0 -3 6
1532261891638560 0 -31 -25 0 0 0 -17 -8
1532261891670475 20 7 -28 5 1 -6 -8 -2
1532261891758240 6 6 -47 36 23 8 15 -4
1532261891782176 -8 -48 -24 -13 -20 0 25 -5
1532261891863957 6 28 -25 -9 1 3 6 1
1532261891885899 -2 45 6 -1 5 0 3 -6
1532261891908837 5 10 -4 -7 8 1 -3 -3
1532261891975659 -24 12 -4 -9 -5 -2 -6 -9
1532261892021536 -7 64 10 -1 0 -5 -1 -10
1532261892112293 -8 -41 -9 0 -5 -3 -11 -3
1532261892178118 9 21 4 -21 -14 -3 1 2
1532261892253915 10 0 1 2 -7 -6 -4 3
1532261892283835 0 -40 -8 -26 -6 0 0 -1
1532261892350656 4 -23 -2 2 -6 0 -2 1
1532261892373601 -3 5 -1 9 1 0 1 -1
1532261892554111 -1 1 -2 0 -1 -2 1 -3
1532261892576053 -4 -3 3 -2 -2 -2 -4 -5
1532261892650852 -2 -3 4 -8 -3 -1 -3 -2
1532261892673792 -3 -25 -5 -1 -1 -2 1 2
1532261892763552 -8 -18 -12 -9 -5 -2 0 -3
1532261892876249 -1 -5 2 -8 -13 -3 -1 -2
1532261892959029 -7 -6 -63 -6 -9 -5 -46 -4
1532261893123589 -6 -7 30 11 4 -3 9 -7
1532261893198389 1 -14 -20 8 7 32 16 -7
1532261893228309 -8 33 46 13 9 6 13 -1
1532261893266208 10 -20 58 -18 0 52 7 13
1532261893303109 5 -11 15 -8 -3 -5 -10 4
1532261893408826 -10 -23 2 -14 0 10 14 4
1532261893445728 14 27 17 -21 -11 -1 -1 1
1532261893528506 -1 -3 94 -7 -2 3 10 7
1532261893558426 7 51 -13 7 3 2 -25 -5
1532261893709030 2 2 2 0 -4 -5 -36 3
1532261893723984 -6 -42 3 1 2 5 21 12
1532261893798783 -8 -35 -39 -8 -8 -8 51 -6
1532261893828703 1 7 -8 13 9 1 10 1
1532261894038143 -11 20 6 47 10 1 -19 9
1532261894091001 -7 17 15 -14 -5 23 -10 -2
1532261894225642 -9 -47 -32 -58 -12 -6 -18 -4
1532261894391199 5 -3 7 13 4 2 -8 -2
1532261894459018 2 -9 -39 -54 -7 -1 -8 -10
1532261894495919 -1 14 -26 29 -2 -3 -5 -11
1532261894525839 1 -7 -23 23 2 0 -28 0
1532261894556756 3 11 -4 2 -1 -2 -13 0
1532261894570719 -2 5 6 -1 0 0 -3 -1
1532261894600639 18 45 -11 7 4 17 5 53
1532261894615599 7 -15 4 -9 -9 -21 -8 9
1532261894646516 -2 10 19 1 0 -5 -4 -3
1532261894691396 -2 -2 -33 3 3 4 -1 16
1532261894736276 -3 24 -1 1 -1 -3 1 -16
1532261894758229 -10 -56 9 -3 -3 2 -2 -23
1532261894796116 17 16 37 -1 -1 -1 5 59
1532261894840996 17 29 11 -4 -1 7 8 52
1532261894870916 -11 20 29 -3 -6 -3 -9 -35
1532261894885876 -7 -24 -5 -8 -1 2 -4 -15
1532261894915796 -3 -25 9 -1 -1 1 -1 3
1532261894945716 0 23 -6 1 0 1 -1 8
1532261894983615 5 15 2 -16 -9 -2 -2 9
1532261895013535 4 0 5 9 -7 -3 0 5
1532261895081353 0 1 -22 -7 -10 2 1 -3
1532261895141194 0 8 57 16 -4 -4 -2 -1
1532261895238932 -3 -13 -2 -2 5 0 -1 -3
1532261895283812 0 5 13 2 3 -6 0 -1
1532261895373572 1 0 -22 -7 -2 0 -1 0
1532261895658809 -6 4 -4 2 3 10 0 -18
1532261895733609 -1 -9 -3 0 -2 4 1 -5
1532261895756548 -4 -21 9 -3 -3 -6 -5 7
1532261895786468 0 0 -6 -2 -4 -1 -3 -1
1532261895816388 -7 8 26 -5 32 4 -4 -20
1532261895951028 7 -2 1 -4 -2 -41 -9 -31
1532261895973967 8 2 -1 -5 -6 14 10 17
1532261895995908 -10 -2 0 3 1 7 2 -25
1532261896025828 3 -2 -2 -6 -5 -3 3 24
1532261896040788 -4 1 0 -4 -1 19 13 11
1532261896108607 -2 -1 0 1 -7 -15 -4 24
1532261896168447 7 -4 -5 -1 -1 20 6 -1
1532261896303087 -6 6 -10 -30 -11 4 16 -1
1532261896319043 6 -6 -3 6 -1 -6 -13 1
1532261896385865 0 -7 -7 -12 1 1 5 -2
1532261896445705 -5 -2 -22 -2 0 -2 -5 -5
1532261896490585 18 -2 5 -10 -2 2 6 1
1532261896551423 -5 -2 1 1 8 -1 -3 -1
1532261896618244 4 2 -3 3 6 27 5 -2
1532261896656143 2 -4 -4 -16 -10 -30 -2 0
1532261896694053 -3 0 2 5 -2 -20 -14 -1
1532261896738921 -1 2 7 28 21 2 -5 -2
1532261896775822 -5 -8 -22 -10 -25 -13 -8 -4
1532261896791780 -17 -7 -4 10 16 12 -4 -3
1532261896805742 2 5 3 -2 24 5 14 2
1532261896821700 -11 14 7 13 26 7 -6 -8
1532261896858601 -2 1 15 8 8 1 -2 -3
1532261896971300 -1 -9 1 19 4 -2 -1 3
1532261897016179 14 -10 -7 7 1 -7 -11 0
1532261897046100 -4 1 0 -12 -8 3 -6 1
1532261897076020 12 7 11 13 1 4 33 3
1532261897113918 14 0 -2 3 -7 78 -23 4
1532261897128878 13 1 -6 4 6 -11 14 -7
1532261897195700 3 3 -19 27 13 13 5 4
1532261897240580 -3 11 15 102 5 -8 -4 1
1532261897332335 16 -26 1 11 -1 -10 -11 2
1532261897399157 4 -5 -8 -9 -2 -7 -3 2
1532261897413118 -7 -8 -1 2 3 2 -3 -5
1532261897436057 3 -14 -11 9 1 0 9 -1
1532261897510868 25 -16 -3 -13 -3 2 7 3
1532261897555737 0 3 0 -9 -4 -2 -4 0
1532261897578676 -8 1 -1 -3 -1 2 2 -1
1532261897653475 2 8 7 24 -5 -8 -4 1
1532261897698356 -6 -6 0 22 8 -1 6 1
1532261897728276 0 2 7 -4 0 1 -7 0
1532261897773165 -2 -16 -35 -18 -5 -22 -3 -4
1532261897789116 -2 5 13 46 11 7 2 1
1532261897833993 -2 9 20 -28 -7 -6 0 -2
1532261897855938 2 -1 -1 -26 -2 1 -1 2
1532261897885854 -1 -6 0 -11 -6 -5 -1 2
1532261897908793 -4 -3 -5 -12 -5 0 -1 -2
1532261897960654 1 0 1 6 0 0 0 -3
1532261897991571 -1 -29 -5 -2 -1 6 4 30
1532261898013513 3 -3 -1 -5 -4 -12 -13 35
1532261898066371 0 -25 -7 -4 1 12 4 -1
1532261898148153 4 10 5 2 -2 -34 -24 -1
1532261898179070 4 5 -13 16 7 -18 -41 6
1532261898223950 -1 -2 31 -37 -5 5 15 7
1532261898253870 -1 1 -14 -63 -4 7 12 4
1532261898313710 -4 -2 54 55 10 3 4 -1
1532261898365571 -1 35 23 6 -5 -2 0 1
1532261898418429 -8 -76 -16 1 3 -7 2 1
1532261898448350 3 17 97 14 1 0 1 -3
1532261898478271 0 86 -25 -3 -1 2 1 -2
1532261898501209 0 13 60 27 8 0 2 1
1532261898561048 -3 -22 -83 -9 -3 -3 -4 -1
1532261898613907 -1 -4 0 2 1 -1 0 -2
1532261898650808 0 19 38 6 2 -2 1 -1
1532261898698693 -8 48 33 8 1 -56 -3 -11
1532261898712643 13 14 -62 -7 -6 -5 -30 -33
1532261898733587 -10 6 118 12 -4 23 3 -22
1532261898748562 6 7 -103 16 -2 5 -4 -16

1532261898763506 -4 11 40 -21 -8 0 -5 -22
1532261898786446 -1 -24 -4 -29 -15 3 5 5
1532261898808387 -5 -13 -48 -6 -2 5 1 -7
1532261898831326 3 5 -25 -11 -12 -2 0 -8
1532261898861274 1 1 19 -5 -1 2 -4 -8
1532261898891195 0 24 -1 -15 -4 5 13 6
1532261898906165 2 4 6 0 -1 0 -4 -3
1532261898921115 -25 -40 -46 2 -2 -2 -6 -22
1532261898944053 4 0 -9 1 3 4 2 4
1532261898965995 2 -3 8 -1 0 -6 1 6
1532261898997910 -2 -33 4 0 -1 -6 -3 -19
1532261899018862 7 -3 13 4 0 1 1 8
1532261899040795 5 -6 15 3 -2 1 -2 2
1532261899085675 -1 -14 2 -33 -13 0 -1 -2
1532261899123574 4 -4 9 -8 -2 -1 0 3
1532261899191391 3 1 -1 1 -2 -2 0 1
1532261899221312 1 10 20 12 7 3 -1 -1
1532261899273173 2 -11 -15 2 3 3 -1 0
1532261899319051 1 0 -20 -7 -1 0 -1 1
1532261899348970 2 7 -6 0 -2 2 -1 -1
1532261899430752 -1 -8 -10 -7 -1 -1 1 0
1532261899460672 -2 14 2 -3 -2 0 -3 3
1532261899528490 -13 -30 4 7 6 11 8 5
1532261899551428 -17 -10 4 -39 -9 0 3 -8
1532261899581353 -1 -18 -47 -29 -13 -21 -16 0
1532261899633211 0 3 20 1 -2 -6 -5 1
1532261899648170 11 13 6 13 2 7 -2 17
1532261899730948 -2 -5 2 7 1 -4 -2 -7
1532261899775829 1 13 0 13 0 -6 -2 0
1532261899813728 -1 -12 -7 -4 -3 -4 -3 -2
1532261899859605 0 0 12 -1 -3 -2 -2 -1
1532261899896506 -3 -17 -2 -5 -4 -3 -2 -3
1532261899941387 2 35 4 -6 1 2 2 -4
1532261899963328 -7 -45 -11 6 2 -1 -4 -3
1532261900023168 2 -3 -14 -7 -6 -1 1 1
1532261900061065 -2 -7 -5 2 -1 5 2 -1
1532261900084005 -2 5 -10 2 1 1 -1 -2
1532261900120906 0 -1 5 10 4 1 2 2
1532261900150826 -2 -25 -16 -22 -5 -1 -1 -1
1532261900173765 1 1 3 -1 10 -3 -3 1
1532261900210666 -2 -7 -1 -3 8 -1 0 -3
1532261900256543 -1 13 1 3 -9 0 0 1
1532261900316383 0 3 -5 6 8 8 4 0
1532261900338325 1 -2 12 28 -1 -4 -1 1
1532261900353284 -2 1 -4 -6 0 2 1 -2
1532261900391184 -6 -1 0 10 2 -5 1 1
1532261900421103 9 0 -4 -5 0 -5 0 1
1532261900465983 -6 7 19 -36 -6 -8 -1 -5
1532261900480944 -3 -5 -12 -31 -15 -8 -1 -1
1532261900525823 13 4 9 4 7 2 1 3
1532261900585663 -1 9 -31 0 -5 2 9 2
1532261900638522 -23 0 3 2 -1 -1 -3 -3
1532261900676420 16 22 21 13 3 15 10 -10
1532261900713322 -4 1 5 -5 -7 7 1 0
1532261900766181 -13 -68 -4 -22 -10 -8 -4 -9
1532261900788121 0 11 -37 1 1 -3 -7 -5
1532261900870900 -9 -4 28 -1 3 -8 -2 0
1532261900900820 15 13 15 41 19 1 -1 3
1532261900938719 -9 -7 25 16 10 2 -3 -4
1532261900999556 -14 -28 9 21 -6 -3 -10 -10
1532261901013519 -11 -15 -23 -16 -12 -2 1 -1
1532261901051418 19 -17 12 23 13 5 6 2
1532261901088319 10 -20 5 24 1 0 1 -3
1532261901186058 -14 -28 -8 0 6 3 4 2
1532261901276815 -2 -39 1 -3 1 5 -2 -3
1532261901320698 -3 3 -4 -10 -5 -4 2 -2
1532261901365578 20 19 15 1 -1 -5 -3 7
1532261901418437 -4 19 11 -9 -6 -3 -1 -3
1532261901471295 0 22 20 10 10 3 2 1
1532261901501215 0 19 1 16 2 1 -3 -1
1532261901546095 -2 -59 3 26 1 2 0 -1
1532261901576014 3 0 2 8 -4 -2 1 0
1532261901688714 -3 10 1 -1 -10 -5 -1 -2
1532261901710654 -3 -15 -23 2 -4 -1 -3 -1
1532261901861253 -9 6 -1 7 1 3 -1 -2
1532261901898154 2 4 0 -7 -6 -3 1 1
1532261901921092 -1 -6 2 -1 2 1 -3 -1
1532261902048751 8 10 -7 -7 1 -1 -1 1
1532261902094629 14 -3 2 4 2 2 13 2
1532261902146490 -4 10 -6 -8 -1 -8 -14 4
1532261902168431 15 12 23 1 -6 1 8 34
1532261902243231 9 13 -22 17 -4 -4 -15 -18
1532261902281130 -7 -16 -44 7 -1 6 0 6
1532261902320026 -6 -17 46 -14 -3 5 -6 3
1532261902370889 -12 -6 14 -4 -2 1 11 -11
1532261902430730 1 8 6 2 2 -3 5 6
1532261902498548 4 -15 -15 -4 -3 -6 -5 29
1532261902521487 -5 -17 -39 24 9 9 22 -2
1532261902596287 5 18 -41 4 3 4 -14 0
1532261902627204 7 -38 -11 -17 -6 0 -8 34
1532261902648148 4 -4 9 3 0 -4 89 5
1532261902678068 -9 -20 -2 -10 -6 -8 -35 -4
1532261902708985 8 25 11 -5 4 2 -11 -4
1532261902738905 -5 6 18 -20 -10 -1 1 -8
1532261902798745 8 0 46 -32 -12 -3 -2 2
1532261902850607 -18 -19 -36 -76 -12 -3 9 -3
1532261902866563 3 11 3 8 2 4 20 5
1532261902918425 15 -5 16 -8 0 2 9 34
1532261902948346 -16 -83 -11 10 8 10 34 5
1532261902986245 3 19 12 -3 0 -1 -55 7
1532261903031124 4 -25 4 8 4 0 -10 -9
1532261903076003 -21 -45 7 6 7 4 43 8
1532261903105928 -14 16 12 -2 -5 -1 -16 -15
1532261903181722 -10 -10 -10 -62 -11 -5 6 -4
1532261903203663 6 11 9 8 3 0 -4 4
1532261903225604 6 22 15 15 0 -2 14 1
1532261903248542 7 -37 -72 16 8 2 -17 -1
1532261903271481 11 44 51 -6 -5 -2 -8 12
1532261903353262 -5 -66 17 -1 2 1 2 -16
1532261903398143 8 73 24 3 2 -4 -8 8
1532261903444020 -16 -24 -14 -27 -11 -8 -14 -9
1532261903473940 1 19 34 -38 -17 -8 -6 1
1532261903503860 -12 -17 -4 -40 -13 -7 16 -7
1532261903548740 -11 -18 4 -7 3 0 -10 -3
1532261903570681 -12 -28 1 34 3 1 9 -1
1532261903593620 -1 -15 9 -27 -10 -1 -3 -1
1532261903623540 -8 -25 25 -12 -3 1 -3 2
1532261903683380 -7 8 -50 2 0 -5 28 -60
1532261903706319 -5 29 22 -8 -8 -4 -29 20
1532261903758180 -12 -23 26 -57 -23 -9 2 -14
1532261903781118 22 46 28 41 3 5 41 -5
1532261903804057 -9 -4 6 -25 -12 -4 -4 -11
1532261903840958 -3 40 26 83 29 14 1 1
1532261903885838 0 -5 -1 -5 -3 -3 -26 -7
1532261903908777 1 39 -4 1 -6 -3 -2 -2
1532261904013496 9 -49 -2 7 -1 -3 -2 52
1532261904037433 2 6 -10 0 -2 -1 -4 8
1532261904073337 -7 40 16 1 -1 0 0 -11
1532261904090291 -2 17 1 0 0 0 -2 -4
1532261904186036 1 -13 -18 -2 0 1 2 3
1532261904253854 -5 8 2 2 0 5 1 -9
1532261904268814 -6 -5 -4 -4 -6 -5 -5 -45
1532261904313694 -2 -13 -12 -8 -2 -3 0 4
1532261904358574 -2 -8 14 -25 0 0 -1 0
1532261904388494 -2 10 80 16 -10 -4 -1 0
1532261904403454 2 2 -11 12 -1 1 -2 0
1532261904486233 -5 -11 12 -61 -21 -7 -2 -2
1532261904516153 0 0 -55 6 -1 -5 -4 -3
1532261904598932 -14 -31 -54 -23 0 3 0 -4
1532261904628851 -3 -15 -6 -4 -3 -8 -7 -8
1532261904771470 -5 -15 -8 -3 -5 -9 -3 -3
1532261904950990 3 1 -26 1 -1 5 3 0
1532261905176387 -3 -2 2 5 0 12 -6 -5
1532261905207321 -2 -1 -3 0 1 20 35 18
1532261905258169 5 0 0 1 1 13 27 0
1532261905363886 3 0 0 -3 -2 -10 -24 2
1532261905393806 4 -1 -4 -3 0 -4 4 -3
1532261905423725 6 -5 -8 0 0 -6 3 1
1532261905460627 -5 -1 0 0 -10 22 6 -2
1532261905513486 4 -3 1 24 -5 2 17 3
1532261905543421 -12 -6 -5 -8 -2 30 27 -2
1532261905618206 4 5 4 1 4 -10 -2 -1
1532261905694003 -8 -2 -9 -22 -5 -2 -6 -2
1532261905708963 -3 0 10 7 0 5 11 2
1532261905738883 -9 5 0 -11 0 -3 -5 -3
1532261905783762 8 -2 4 -1 -4 -10 -27 1
1532261905813683 8 1 -6 -10 -2 4 21 3
1532261905835624 -5 -1 0 -14 -5 -9 -26 -5
1532261905933363 -2 -1 3 27 0 -8 5 -4
1532261905979240 4 -2 -7 -26 -7 3 0 -1
1532261906023136 1 -5 3 -9 -18 -17 -42 -4
1532261906046062 4 2 5 28 13 45 2 4
1532261906098920 1 3 38 99 5 -2 6 4
1532261906128840 2 7 -27 -29 -2 -8 -10 -2
1532261906173720 -10 7 14 -4 -2 -4 -7 -3
1532261906212617 -23 7 6 11 1 -5 -12 0
1532261906225582 2 -2 -5 8 4 13 -12 0
1532261906256501 6 -5 -5 -5 -4 1 2 1
1532261906293400 -6 -3 -6 -2 1 4 26 -2
1532261906346259 -2 0 -6 5 -1 4 -1 -1
1532261906391139 7 -1 -8 1 1 6 3 1
1532261906436019 2 -2 -5 -11 -1 5 0 3
1532261906488884 5 -2 -2 41 14 7 31 4
1532261906525786 1 -2 -13 8 7 -18 -38 -5
1532261906540746 1 -1 39 -44 16 -5 -26 -3
1532261906623525 -12 7 12 -55 -8 0 -9 -5
1532261906661423 6 -2 -13 -42 -14 5 -6 0
1532261906713284 9 1 4 15 -1 2 7 3
1532261906819001 -1 -2 3 40 10 19 11 2
1532261906900783 -8 0 -4 -7 -1 6 7 -1
1532261906969599 -2 0 6 24 5 -13 3 2
1532261907006501 1 4 3 -10 -12 -27 -24 -2
1532261907036420 12 8 3 -8 -7 7 22 6
1532261907073383 -1 -18 -46 -32 -3 -7 -9 0
1532261907103289 -6 6 23 41 11 -1 1 -1
1532261907118248 -15 -2 -10 -7 2 -1 -4 -2
1532261907171107 -1 -1 -1 3 1 0 0 -2
1532261907260867 -4 8 6 -10 -2 2 0 0
1532261907305762 4 -3 -5 -3 -1 -5 -3 -1
1532261907335667 0 3 1 0 1 0 2 -1
1532261907448365 -1 2 15 32 14 10 4 4
1532261907590984 -2 -5 -15 -18 -13 -5 -1 -3
1532261907635864 -2 -3 18 2 2 1 0 -3
1532261907703683 -2 -31 -23 -4 -1 0 0 0
1532261907748563 -1 29 -48 -3 -2 0 -2 -2
1532261907801421 -1 -10 -12 5 1 0 2 2
1532261907891181 -4 -13 -19 -3 -1 -4 -4 -2
1532261907936068 -1 -12 -2 4 5 2 4 2
1532261907980941 1 0 -26 -23 -1 -2 -2 -1
1532261908003879 -7 -19 -34 14 3 2 1 -1
1532261908048760 1 -7 -19 -2 -2 1 0 2
1532261908070700 -1 -18 11 2 -2 -1 0 -1
1532261908115581 0 1 -34 -4 -3 -2 -2 9
1532261908161458 -20 24 58 1 0 -6 -10 -40
1532261908183400 25 -20 25 5 7 19 18 -66
1532261908213320 -58 15 72 2 -4 -28 0 -15

1532261908281138 -4 -24 73 4 0 7 4 19
1532261908312056 -16 32 85 -31 -11 -1 4 9
1532261908378885 -2 27 -39 11 -2 -3 1 1
1532261908400819 1 1 0 10 -2 1 0 -1
1532261908430738 3 38 1 -16 -5 0 -1 4
1532261908460658 -2 -13 -16 -1 4 -1 2 -1
1532261908536455 0 -9 -22 -9 -5 -1 0 -4
1532261908618236 4 11 -1 1 -2 4 -4 -3
1532261908663117 -9 12 51 -6 -3 -2 -2 -4
1532261908686056 2 3 7 -2 1 -3 1 1
1532261908715975 5 7 -17 -6 -6 -2 -1 -1
1532261908738924 3 -3 0 -1 -1 -1 0 2
1532261908775815 2 -2 -6 1 0 0 0 0
1532261908790779 1 1 -9 5 2 2 0 3
1532261908805735 -2 -5 41 0 1 0 0 -3
1532261908843634 1 0 -7 1 -1 0 1 1
1532261908865575 -2 0 4 -2 -1 9 -1 -1
1532261908911452 0 2 8 0 0 -1 -2 1
1532261908948354 -3 -6 -47 -2 0 -7 -2 0
1532261908980269 -1 -13 -64 -2 -1 0 -2 1
1532261908994231 -1 9 63 2 3 3 2 -5
1532261909054071 4 10 17 -2 0 0 3 -18
1532261909083991 1 -8 24 -2 -3 -15 -1 -9
1532261909165773 4 10 17 -2 0 0 3 -18
1532261909210653 1 -8 24 -2 -3 -15 -1 -9
1532261909248551 -1 14 67 15 12 7 1 8
1532261909278472 1 8 -12 -3 0 0 6 15
1532261909323351 -2 -5 -30 -1 -4 4 -2 -4
1532261909346290 -2 8 39 -3 -1 -5 -1 -3
1532261909391170 3 -6 -12 -6 -2 -2 -2 1
1532261909406131 0 3 -7 5 1 -3 -2 -1
1532261909421090 0 -2 -14 0 -1 0 0 -3
1532261909458995 0 1 5 -2 -2 0 -1 1
1532261909497884 -1 7 3 2 0 -3 0 -2
1532261909518829 0 5 14 -3 0 3 1 1
1532261909564706 0 -1 -5 14 1 2 -3 0
1532261909602605 0 2 -19 -1 5 0 2 2
1532261909616567 1 4 -14 6 6 3 0 -1
1532261909638509 0 4 -2 -22 -6 -2 -2 -2
1532261909653469 0 6 5 -30 -8 -6 -1 -1
1532261909698349 -1 0 12 -13 -13 0 -1 0
1532261909759186 -1 -1 6 20 -6 -1 0 -2
1532261909781127 -1 -4 -5 13 -2 -6 -1 0
1532261909811047 -3 4 -1 -20 -4 -5 0 -2
1532261909848946 6 20 11 10 -2 -2 0 0
1532261909885847 9 21 -5 4 -5 1 0 3
1532261909923746 17 -13 -7 -11 -6 -1 1 2
1532261909953665 -8 20 -3 -5 -3 -2 -2 -6
1532261910021485 5 0 -14 -1 -6 -6 -1 -2
1532261910081324 -3 -56 -4 6 1 6 1 10
1532261910141165 6 -2 4 -2 4 -1 -3 2
1532261910163106 4 1 0 7 3 0 0 -5
1532261910223943 10 -53 -5 -7 3 2 6 18
1532261910245885 -29 0 1 -1 6 4 0 -7
1532261910268823 27 16 0 5 3 -2 -4 7
1532261910313703 -18 -31 -7 -14 -11 -6 -3 -8
1532261910403463 3 35 11 2 -2 -4 -6 -9
1532261910426402 -3 52 -6 -22 8 4 0 -9
1532261910471281 -11 13 38 6 -13 -3 5 -2
1532261910508182 22 22 0 -1 3 4 -12 0
1532261910598941 2 77 -1 -6 -8 -2 -15 1
1532261910673740 6 -17 -4 0 -1 -3 2 -1
1532261910711639 7 2 1 3 1 2 3 1
1532261910742557 -2 -14 -2 0 -6 -10 1 3
1532261910756519 -8 1 -1 -1 -3 47 -7 -8
1532261910786438 21 3 5 4 10 0 0 6
1532261910831319 -10 -2 -5 -4 -4 -3 -2 -2
1532261910898140 19 -9 -13 -10 -13 -12 -4 3
1532261910930055 -4 -45 -2 1 3 -5 -1 -4
1532261910965958 -7 -19 -14 -36 -11 -2 -2 0
1532261910989912 -2 12 0 5 2 0 -1 0
1532261911003858 1 -7 5 7 1 -1 0 1
1532261911040759 -9 15 2 -2 -15 -2 0 -3
1532261911146477 0 25 1 -4 0 -2 -1 0
1532261911236236 1 9 -1 0 -2 -2 0 -1
1532261911267154 -1 -7 -2 -3 -3 0 0 0
1532261911325996 -4 -9 -3 0 -9 1 1 -3
1532261911393814 11 -9 -4 -13 0 0 -2 -2
1532261911430716 8 -12 -3 0 -1 -1 1 1
1532261911462631 -3 6 -3 -19 -4 -1 -1 -2
1532261911498535 2 10 7 -11 -3 4 2 1
1532261911513495 -1 11 3 12 -13 -3 -2 -2
1532261911558375 8 0 2 -1 -2 1 1 -1
1532261911581314 2 6 0 17 17 6 1 -2
1532261911618215 -1 2 -1 4 3 -2 4 0
1532261911694012 5 -2 -1 -3 5 0 5 11
1532261911753852 -12 3 -14 -1 -2 -16 -4 -18
1532261911963292 4 15 24 17 0 14 -29 -4
1532261912069009 -16 52 2 -2 -2 -3 8 -27
1532261912106908 9 13 7 -6 -2 -1 -13 2
1532261912128849 -1 3 38 -25 -4 0 -5 1
1532261912195671 -8 -10 -11 -11 0 -1 19 -4
1532261912286428 -6 32 47 -10 0 4 1 4
1532261912323329 4 -6 -43 -10 -6 -4 2 11
1532261912368209 3 -28 6 -1 -8 -7 -13 -64
1532261912480908 10 29 29 22 16 8 2 31
1532261912578647 -13 -15 -9 -8 -6 1 56 4
1532261912608567 -26 -59 -29 26 -3 -9 -26 -10
1532261912653446 0 -14 2 -7 -2 -2 12 -10
1532261912683383 13 28 -15 -18 -5 -2 21 60
1532261912796064 -12 -35 17 -12 -4 -5 -3 -62
1532261912840946 -2 59 -29 -11 -6 -3 1 32
1532261912887820 2 -1 -29 -15 -2 -5 -4 3
1532261912917739 11 4 11 21 7 1 3 4
1532261912975585 4 -15 15 3 2 2 -26 3
1532261913036422 1 11 -29 5 -3 -5 -3 -2
1532261913118204 -4 -23 19 3 -2 -4 -1 2
1532261913148123 -7 2 -2 -13 1 -1 -8 -24
1532261913172060 9 -18 17 10 3 -1 -27 3
1532261913418400 -1 37 -9 34 9 2 1 -3
1532261913433361 0 -2 -4 -10 -2 -1 6 0
1532261913554038 4 94 10 0 -1 -1 2 21
1532261913688678 -24 -11 20 0 -2 -4 6 -61
1532261913751510 -9 -14 22 4 1 0 -3 -18
1532261913786417 0 -11 2 -3 -3 -2 0 -14
1532261913861217 0 6 -3 15 6 1 0 -9
1532261913921057 5 -22 -67 75 51 11 6 3
1532261913980897 0 14 -12 -19 -14 -4 -3 -1
1532261914176374 5 12 -36 5 -2 -4 -2 0
1532261914281094 4 5 -27 4 -2 2 -2 3
1532261914385813 -1 -21 -22 -2 -2 1 -1 2
1532261914598246 0 -10 22 -3 -5 4 1 2
1532261914641131 -1 -2 -27 -6 -4 -7 -10 -10
1532261914813670 4 -1 -4 -1 4 3 -2 -7
1532261914881488 0 -7 -1 -1 1 -22 2 -19
1532261915061008 3 -2 -4 -8 -7 0 -2 -5
1532261915135808 3 -1 -12 -21 -6 -6 0 2
1532261915218587 -4 -13 -2 19 6 -11 -8 0
1532261915248507 13 5 4 -5 -4 5 16 5
1532261915383146 1 0 5 4 1 -24 0 -4
1532261915414073 -1 1 -1 0 -6 -24 -3 -5
1532261915525765 -3 -1 -1 -20 -9 5 -7 -2
1532261915563664 1 -5 -19 -10 -8 -26 -12 0
1532261915616523 -5 -4 5 68 9 6 0 -3
1532261915653423 12 -6 -6 -6 1 0 1 4
1532261915707281 0 2 9 2 -1 2 2 0
1532261915840923 1 -3 -5 15 4 2 -2 0
1532261915870843 5 3 0 0 -6 1 3 -1
1532261915915723 -4 4 2 -4 -2 4 13 -1
1532261915953622 -3 3 -10 -4 2 -5 79 12
1532261916051360 10 -1 5 -22 6 25 25 5
1532261916186000 1 -2 -20 12 8 2 0 4
1532261916262795 -14 -4 3 0 2 5 6 0
1532261916336606 9 -2 -1 -12 -3 12 -3 2
1532261916411397 4 -5 -1 4 1 1 6 4
1532261916480213 -2 2 11 -23 -9 -6 42 2
1532261916525093 5 7 -13 2 7 -22 11 0
1532261916560997 -14 6 -7 26 -4 -2 -17 -6
1532261916628816 8 -7 -10 -19 1 -2 5 1
1532261916673695 -6 1 -12 48 5 -1 3 0
1532261916703616 2 -4 -1 -4 -2 2 3 -1
1532261916763456 0 -2 3 15 4 -2 -2 0
1532261916786394 -5 -4 -2 3 3 26 1 4
1532261916802352 3 -2 4 2 -2 -4 4 -3
1532261916838255 -4 -16 -6 -3 -6 -21 -27 -2
1532261916914053 4 15 -1 -1 -1 -8 7 2
1532261916965914 5 -7 4 8 4 -2 -16 -7
1532261917025754 0 -17 -61 22 6 -36 -29 -5
1532261917057670 -16 2 9 46 2 -26 -36 -14
1532261917116512 5 11 14 13 7 2 4 1
1532261917138453 2 2 -4 -16 -7 -7 -9 -2
1532261917168374 -5 3 -6 11 6 5 20 1
1532261917348890 3 0 7 3 0 -2 -5 1
1532261917460591 3 5 -45 7 3 -1 1 -1
1532261917558330 -10 -42 5 -15 -3 0 0 -2
1532261917693968 -1 3 -3 -7 -1 1 2 0
1532261917715909 -3 -6 12 -23 -4 -4 1 -1
1532261917753808 -1 -13 -65 -25 -4 -1 -1 -2
1532261917813647 -2 16 28 9 3 1 1 1
1532261917858527 -1 14 42 8 1 -1 -1 0
1532261917881466 44 -34 57 11 5 -8 -10 65
1532261917897423 8 -4 -25 1 2 -27 -1 94
1532261917933327 43 89 127 6 3 -22 -20 -32

1532261917993167 9 17 102 21 -4 4 6 -25
1532261918008127 -1 -1 -108 -34 -8 9 4 -11
1532261918068964 -8 -4 27 -1 -2 -6 -9 -5
1532261918090906 -2 1 1 0 0 1 5 -3
1532261918115840 5 13 8 47 28 6 5 6
1532261918173685 2 4 -6 6 -3 -2 2 -1
1532261918188645 -2 -2 11 8 6 2 1 -4
1532261918226543 -3 -7 -2 -1 -1 6 6 2
1532261918271423 2 9 -4 -18 -4 -5 -1 -3
1532261918301343 2 9 -4 6 9 2 3 2
1532261918338245 3 2 6 19 9 2 0 5
1532261918368165 1 28 6 3 0 2 1 0
1532261918406063 0 2 2 -6 -3 -2 -1 0
1532261918422021 -4 -9 -7 -1 -2 1 2 -8
1532261918450943 -6 -4 -8 4 4 3 1 1
1532261918503810 1 4 -12 -3 1 2 -1 2
1532261918533730 2 7 9 0 -2 -1 -1 0
1532261918661387 -1 5 15 3 3 0 0 0
1532261918698290 -1 -2 -3 1 -2 -5 1 -1
1532261918736188 1 -3 -28 -2 0 1 -1 2
1532261918759126 0 2 4 -1 -3 -1 -2 -4
1532261918789047 -3 -2 -26 0 0 -1 -3 -3
1532261918863847 -5 5 6 -1 -1 1 2 2
1532261918878807 3 3 18 2 0 1 7 10
1532261918946626 -1 1 -1 0 -1 0 1 -4
1532261918998494 3 -4 -2 -1 -2 -1 1 0
1532261919066312 -3 -3 -7 1 2 -1 -3 -11
1532261919111192 -5 -4 -14 0 -1 -2 -3 -1
1532261919179011 0 7 28 1 1 2 0 2
1532261919283763 -4 0 10 1 2 -2 -1 -3
1532261919298723 -2 3 9 1 -1 1 1 -1
1532261919328643 0 -4 -27 -2 -3 -1 -2 1
1532261919350584 1 -4 -16 0 0 1 4 14
1532261919366559 1 -2 2 2 2 -2 -2 -2
1532261919396461 -1 2 4 -3 -3 -4 -2 -1
1532261919426426 -2 -1 -4 1 1 1 -2 -8
1532261919448367 -3 8 48 0 0 1 -1 1
1532261919478287 -2 -1 -3 -2 -1 0 -2 -1
1532261919508207 -4 0 -12 -1 1 -1 2 3
1532261919546117 2 -1 -7 1 0 -1 -3 -9
1532261919561066 2 -1 -1 -1 -1 0 -2 0
1532261919576026 -2 -2 0 0 -1 1 0 1
1532261919635866 3 -5 -5 0 -2 -2 1 7
1532261919673765 2 -1 9 1 1 0 1 0
1532261919703684 1 -2 -26 -2 0 1 0 -1
1532261919725626 -2 2 -4 -3 -2 -2 -1 -8
1532261919748564 2 -2 3 1 0 2 1 4
1532261919778484 0 1 10 -2 0 0 -1 2
1532261919793444 2 -8 -17 -2 -1 -3 0 3
1532261919838348 1 0 -16 -4 -3 1 1 -2
1532261919868268 -4 5 17 -2 0 -1 -1 0
1532261919943069 4 -4 2 -2 0 1 3 2
1532261920065739 2 -3 -3 1 -1 1 0 7
1532261920093665 2 -4 -11 0 -1 -4 1 4
1532261920138545 2 -2 3 -2 -4 -3 -2 0
1532261920161483 2 1 -13 1 -1 0 1 4
1532261920213345 -6 5 23 0 0 0 0 -5
1532261920281164 -2 -2 -10 -1 0 -7 -1 4
1532261920334023 1 3 2 -2 -2 -3 -1 2
1532261920393863 2 0 9 2 -1 -1 2 4
1532261920453702 0 2 14 2 -1 6 0 14
1532261920498583 -3 2 15 -2 -1 0 -1 -7
1532261920544460 0 -14 -27 -3 0 -2 1 -3
1532261920581382 1 -3 8 0 -1 2 1 1
1532261920657181 -2 2 15 -2 -1 -1 -1 1
1532261920724999 1 3 8 1 0 -2 0 0
1532261920775863 0 -3 11 -1 -3 -1 -1 -1
1532261920822738 -3 3 -1 1 0 -2 2 10
1532261920850663 -2 -2 -7 0 -1 1 -2 -3
1532261920881583 -1 10 60 2 4 1 1 1
1532261920933441 0 -7 -15 2 -1 0 -1 -6
1532261920993282 -3 -4 -22 -4 0 2 -2 1
1532261921030897 1 0 -7 -4 -4 -3 0 -1
1532261921068795 -1 -11 -3 1 0 1 -2 -7
1532261921166533 -1 -6 58 0 0 -2 -1 -1
1532261921257291 0 23 23 0 -5 -21 -15 11
1532261921293195 17 -10 -14 -3 -6 -9 -8 -16
1532261921346053 -3 10 -14 1 -5 -32 -8 -13
1532261921368995 -1 3 -66 -29 -5 -8 -11 -13
1532261921413872 -3 9 19 23 5 1 -1 -4
1532261921435815 0 -3 10 -13 -9 -5 2 1
1532261921496660 0 1 7 63 9 2 2 0
1532261921533553 0 16 4 -20 -16 2 -1 -1
1532261921578433 0 8 5 -13 -3 -3 -3 0
1532261921623316 2 -2 -7 0 -4 -2 -1 -1
1532261921706091 1 3 -1 1 -1 2 0 0
1532261921743989 3 -2 -1 5 -2 0 1 1
1532261921803830 -1 -4 -11 -12 -5 -1 0 -1
1532261921840731 6 8 9 8 -4 -4 -2 -1
1532261921863669 9 8 5 -2 0 2 3 3
1532261921946449 -3 -23 -15 -15 -5 -5 -1 -1
1532261921968390 0 1 8 3 9 0 -2 -1
1532261922013270 27 -11 6 -2 6 1 6 5
1532261922036208 4 53 -1 -10 -6 -3 4 -2
1532261922058149 4 -7 -4 1 -4 -4 -2 3
1532261922074106 -16 -58 4 -5 -7 -2 -5 0
1532261922089067 -2 -11 -8 -1 -2 -6 -5 -9
1532261922118986 -21 4 -4 4 -4 -6 -14 -16
1532261922163867 11 21 5 4 2 2 1 8
1532261922208747 3 -69 -1 -5 6 -7 -23 -5
1532261922298507 3 64 6 0 1 0 6 -1
1532261922329425 4 -11 -3 -4 -5 -7 -4 -3
1532261922358347 -5 -18 -7 -9 1 3 1 0
1532261922396246 8 27 7 11 5 2 1 -1
1532261922441126 1 26 6 23 20 6 2 4
1532261922456086 15 33 8 -6 -11 -6 -4 -1
1532261922486005 1 22 17 8 7 3 -1 1
1532261922575766 -13 -32 -14 -6 1 -1 2 -5
1532261922605695 7 29 8 -6 4 -4 -1 -3
1532261922666523 -4 -9 -2 -9 7 0 -1 -3
1532261922688464 4 -11 2 -3 -1 2 0 1
1532261922741323 11 14 3 1 0 -1 -4 3
1532261922846043 -10 7 -4 -2 -2 -1 -1 -3
1532261922883941 -3 -23 2 2 -3 -1 2 -1
1532261922920843 -6 4 -4 1 3 0 0 0
1532261922988662 -1 21 4 -6 -18 -8 -3 0
1532261923048501 -9 7 -9 -3 1 -4 -1 0
1532261923117318 -14 14 10 6 4 1 -1 -4
1532261923168181 2 -8 -4 -13 -8 0 -1 -4
1532261923198101 -8 14 -1 45 5 1 -2 -3
1532261923250960 -5 9 -6 3 -1 3 1 -1
1532261923288858 -11 -12 -4 -11 -1 0 0 -2
1532261923355691 -5 -14 -4 -8 0 0 -1 -2
1532261923400560 -14 -13 -5 -3 -2 -3 0 -4
1532261923446437 0 -6 -1 -2 -7 0 -2 -3
1532261923521237 3 -1 -3 -3 -5 -1 -1 4
1532261923640917 -11 -7 -5 -3 -6 -5 -1 -3
1532261923678816 0 -31 1 2 2 2 -1 0
1532261923754613 -4 5 -3 -6 -5 -2 -2 -2
1532261923806475 -3 0 -5 0 5 4 0 1
1532261923873296 2 3 11 3 11 1 -3 -4
1532261923918176 -1 6 1 -6 0 0 -1 -2
1532261924008933 8 -1 88 -1 -4 1 -9 -5
1532261924060794 0 9 -38 12 -2 0 4 3
1532261924166511 2 1 1 1 3 1 0 1
1532261924218379 3 -9 -9 -4 -1 0 -11 -4
1532261924263253 3 -57 -26 -5 -11 -9 -2 1
1532261924286192 2 14 -20 -1 -4 -1 -5 3
1532261924301152 -15 -7 -1 -6 -6 -6 -30 1
1532261924390912 -4 11 11 48 15 3 -12 -8
1532261924465712 -9 -28 0 -38 -11 -3 48 -1
1532261924488650 9 28 9 -40 -14 -8 1 -2
1532261924541509 8 15 -30 15 7 3 -16 20
1532261924563451 12 5 -21 5 -1 0 -17 5
1532261924593370 -12 3 -17 -6 -6 -4 -11 -22
1532261924691109 20 21 2 -9 -8 0 -28 40
1532261924744964 0 17 3 5 -3 -2 3 0
1532261924825749 4 -4 -36 20 3 1 -5 1
1532261924855675 4 67 48 28 15 7 1 -13
1532261924893568 17 42 -57 1 5 2 21 10
1532261924931466 8 -19 43 13 3 1 10 -36
1532261924976346 -19 -33 17 -2 -3 -2 13 24
1532261925066106 -14 -27 -9 -8 2 2 -28 -30
1532261925110986 -2 16 -3 -45 -10 -5 0 -8
1532261925133925 -17 29 103 -1 -3 3 -7 2
1532261925170825 -2 7 43 -8 -3 -1 6 17
1532261925215706 0 49 -37 19 7 10 20 -12
1532261925298485 6 92 33 17 -3 2 15 33
1532261925328404 -6 -42 9 -9 -4 -2 0 -25
1532261925381264 21 47 -21 3 -5 -5 -12 10
1532261925396223 -10 -71 -43 33 -3 -8 0 -4
1532261925426143 -10 -40 -23 -3 -6 -3 -13 -8
1532261925471023 1 13 19 -21 -5 -4 -1 -2
1532261925546821 0 7 27 -7 -10 -5 19 -4
1532261925605663 -1 2 -2 -2 -3 0 0 21
1532261925620623 1 22 5 -1 -2 -1 2 -29
1532261925658522 -21 -41 -5 3 0 -1 -3 -32
1532261925696423 -1 -4 7 -4 -2 1 -5 4
1532261925726340 -14 -33 15 -2 -1 -2 -6 -40
1532261925756262 2 12 17 -1 1 -10 -1 -34
1532261925771221 -22 -48 2 0 -2 -3 -2 1
1532261925831061 4 31 -3 1 -1 2 -7 35
1532261925890901 2 -2 -18 -6 -4 0 -2 -27
1532261925913840 -1 10 0 9 4 1 0 -19
1532261925980660 -3 5 18 -13 -1 1 0 -8
1532261926041498 -4 4 0 -25 -11 -4 -1 -6
1532261926163173 -2 -8 -3 -40 -17 -2 -2 -3
1532261926207055 -5 -5 31 3 -4 -3 -3 -4
1532261926235978 2 14 24 -1 -4 -1 0 0
1532261926250938 -2 -8 14 -1 -3 2 1 3
1532261926340698 -5 -21 -47 -15 -5 -6 4 4
1532261926385577 -2 -2 1 -7 -3 -2 3 2
1532261926438436 -3 9 -1 -1 -1 -1 -2 -6
1532261926552132 2 0 -19 4 -1 -1 1 5
1532261926597012 -9 -44 -104 -21 -1 2 -1 -4
1532261926618954 6 6 7 9 3 -2 -1 2
1532261926829391 -20 5 10 1 0 19 8 -31
1532261926851332 6 -2 0 -2 -1 -6 -4 -10
1532261926918154 0 -3 -3 -4 -15 14 -1 13
1532261927008911 -4 1 1 -3 2 10 1 -31
1532261927053790 2 1 2 -2 -1 -8 2 6
1532261927105652 -2 1 0 -14 -8 -12 2 3
1532261927173471 -4 -7 -6 -2 -16 15 8 1
1532261927241289 -2 -3 7 5 -8 -7 0 1
1532261927286170 8 -5 -4 -17 -2 -2 -3 1
1532261927668147 -1 -5 -8 -59 -8 18 -7 2
1532261927773865 -1 -15 -12 -1 -5 4 -1 -4
1532261927848665 5 18 -13 -2 -1 5 3 0
1532261927863625 8 -5 -7 -11 -6 -1 -2 1
1532261927946405 4 0 -1 -2 9 2 1 5
1532261928028185 2 -9 0 -3 -6 25 6 9
1532261928081045 -13 -3 1 -7 7 23 12 0
1532261928140884 -2 2 -23 -31 -3 -34 -10 -1
1532261928163822 -6 -7 6 12 -2 -26 -4 -3
1532261928179787 9 -2 -7 -6 0 -20 -13 2
1532261928208703 -8 17 12 -33 -5 -14 -11 -1
1532261928291481 -6 10 8 4 2 -9 -1 0
1532261928351323 6 -5 -1 -13 -5 -6 -3 1
1532261928373273 21 -16 -12 9 -1 -4 -4 0
1532261928426121 -3 -1 0 -3 4 2 -2 18
1532261928471000 -11 -7 -3 -1 2 5 -14 -50
1532261928560761 -8 -8 -2 -21 1 19 16 -4
1532261928575721 -13 10 11 -14 1 26 33 -23
1532261928605649 -4 19 20 -9 6 -9 -20 -17
1532261928636558 -4 -1 40 30 2 3 -24 -3
1532261928667476 -9 -19 -45 -22 6 23 24 -9
1532261928690414 1 -3 -52 -2 1 -3 -5 -2
1532261928703380 14 -2 -6 -73 -16 -1 1 -4
1532261928718355 5 0 9 25 7 8 13 2
1532261928741278 -4 2 7 20 4 3 2 -2
1532261928756258 -5 0 -20 -60 -10 -2 4 2
1532261928801118 -3 -5 -15 -16 -3 -3 0 -1
1532261928860958 -6 3 3 -2 2 -1 10 -3
1532261928913817 3 -1 -5 -19 -5 -3 -46 12
1532261928958697 -8 1 0 -1 3 -4 -15 -28
1532261928995598 10 5 4 -4 1 14 31 73
1532261929033497 -11 -2 2 64 16 0 -15 -19
1532261929071396 -2 1 5 5 3 -3 -13 -6
1532261929108297 5 0 -3 -5 -4 2 59 7
1532261929161156 -5 -13 -17 -29 -4 -8 -1 -3
1532261929184094 0 6 3 3 2 1 -6 -3
1532261929206055 -1 -8 -13 13 19 0 -3 -2
1532261929235955 -7 -8 19 -12 -6 -1 -4 -5
1532261929273854 5 1 0 -23 0 0 5 1
1532261929318735 5 3 8 3 0 0 -1 2
1532261929333695 -1 7 -11 7 0 -2 2 -1
1532261929513214 0 2 6 0 0 0 -2 -2
1532261929551112 3 18 4 45 5 0 -14 -2
1532261929574052 1 -9 67 20 3 -1 3 2
1532261929589011 0 5 -56 10 3 3 -1 -3
1532261929633891 2 0 -30 -1 -1 -1 -1 2
1532261929670793 2 7 15 -2 2 -1 1 6
1532261929746589 -1 11 1 2 1 1 1 1
1532261929783492 -5 -30 -17 -2 -5 -2 -1 -5
1532261929828371 2 17 15 1 -2 0 -3 0
1532261929851310 -7 11 -48 3 4 3 0 -3
1532261929881230 -1 -6 -39 -6 -2 -1 -3 -2
1532261929903172 -1 -6 46 1 0 -6 3 46
1532261929964009 48 11 15 4 14 25 18 77
