1532257755814775 1 3 1 -1 -4 -19 5 2
1532257755834721 -4 -6 -5 -5 -8 0 -2 -3
1532257755894561 -1 2 -5 8 1 -13 -4 -1
1532257755942433 -4 -5 4 -4 6 -4 5 -1
1532257755962380 0 0 -1 0 10 7 4 0
1532257755977340 1 -3 0 -3 -3 1 1 -1
1532257756017234 0 -3 -3 -7 -8 -15 -4 0
1532257756029201 -2 0 1 -1 -7 -12 -5 -2
1532257756044161 -1 -2 -2 0 3 18 14 -1
1532257756067100 0 -2 10 5 -7 -17 7 2
1532257756090038 -2 -3 -3 -1 2 13 -1 -1
1532257756104997 -2 -5 1 -1 6 -6 -7 -3
1532257756135916 -2 0 8 4 0 4 10 -3
1532257756156860 -1 -1 -1 -3 -5 -3 0 1
1532257756224678 0 2 -1 -3 -1 0 3 0
1532257756246620 -1 -2 -3 0 4 9 3 0
1532257756292497 -2 -2 1 6 8 6 1 -1
1532257756344357 -1 -3 -4 -5 -21 -25 -5 0
1532257756435115 -3 -3 0 1 -22 14 -16 -5
1532257756472017 -2 -2 -3 -12 -62 7 2 -3
1532257756516897 1 -2 -5 6 15 13 7 1
1532257756712373 -2 -2 -4 3 -25 -13 32 10
1532257756727334 2 3 13 24 -35 -15 -7 1
1532257756787174 -2 -1 3 4 -42 -62 -15 -3
1532257756891911 0 0 5 34 105 74 7 -3
1532257756959712 4 -2 3 11 -18 17 1 1
1532257757049472 -1 -7 -8 -15 -10 37 -7 -5
1532257757102332 -3 -3 -2 2 -4 -20 -15 -6
1532257757192091 3 3 2 -7 20 14 -4 -10
1532257757215029 -5 -5 -4 -24 -4 48 -7 -5
1532257757229990 -2 -10 -15 -9 3 -13 -4 -5
1532257757266891 -11 1 0 -3 -1 7 3 1
1532257757289830 8 1 -1 8 5 5 -2 0
1532257757311771 1 -2 0 -4 -16 -32 -2 0
1532257757334710 1 -5 -2 -4 3 16 0 -1
1532257757349670 -4 3 -16 -7 -2 -13 4 2
1532257757379590 -1 10 7 -1 -1 -12 -2 0
1532257757416491 -2 0 -11 -7 -12 -64 -12 -7
1532257757469350 9 -7 3 11 -1 1 -13 3
1532257757507248 -1 -5 -12 -4 -31 32 12 -6
1532257757567088 -4 10 -24 -15 -20 6 2 4
1532257757589030 -5 -11 -11 -1 18 52 -2 -1
1532257757641889 -2 6 -4 -4 -11 -19 -3 -1
1532257757686768 -2 -3 -4 -1 -4 19 11 2
1532257757731649 2 -1 4 16 10 10 -3 2
1532257757769547 2 -7 -22 -10 -8 -28 1 -1
1532257757807446 -13 9 10 0 -12 -27 8 1
1532257757859307 15 4 19 0 2 -6 8 4
1532257757889227 44 3 4 -2 5 60 -17 -6
1532257758136576 -14 -2 -3 -2 16 -3 -11 5
1532257758274197 2 1 3 2 -3 -88 -5 -1
1532257758347003 -1 0 2 1 -4 -2 3 -2
1532257758421803 -12 -2 0 -1 -4 -20 13 3
1532257758451723 -4 -4 -4 -2 0 22 -1 -2
1532257758481642 5 -1 -1 -2 -1 11 8 1
1532257758504581 -1 -6 -1 -1 4 1 -2 11
1532257758542480 17 2 -2 -2 2 51 -2 0
1532257758565418 -1 -4 -3 -5 -2 11 1 -1
1532257758647200 18 -1 0 1 1 -9 0 -2
1532257758669142 6 -1 -2 -1 -5 -6 0 -2
1532257758722000 -4 3 -2 0 3 -10 2 1
1532257758766880 -14 1 0 -1 -2 -14 5 -6
1532257758781840 -4 1 2 -2 -5 3 -1 -5
1532257758796800 0 -3 -1 1 4 35 16 6
1532257758819738 -12 3 1 -2 -4 -20 -6 -5
1532257758871600 -4 -1 3 0 -2 27 1 0
1532257758894555 2 0 2 1 0 -9 4 4
1532257758932437 -13 -8 -4 -3 -4 6 -9 -3
1532257758955376 6 0 -1 2 4 26 9 2
1532257758977317 -8 -1 -1 -2 -1 -21 1 0
1532257759023195 0 -2 0 2 5 -2 1 -2
1532257759082037 9 0 1 -2 -3 -6 -1 1
1532257759096997 8 1 2 -1 -1 4 0 2
1532257759149855 9 1 3 3 2 1 6 0
1532257759171797 -19 -2 -2 -1 5 1 -4 2
1532257759224656 8 1 -3 -1 -6 -6 1 2
1532257759254576 -9 -8 0 -1 5 78 -11 -2
1532257759276517 2 -2 -1 -3 -11 -19 1 -3
1532257759299455 -6 -1 -1 1 6 -3 10 4
1532257759314416 3 0 1 0 4 39 9 4
1532257759329375 7 1 -5 -7 -9 1 -9 -8
1532257759359296 -5 -3 -2 -1 -9 -11 -4 -7
1532257759390213 -8 4 1 -2 -14 -21 -16 -4
1532257759413165 -7 -4 -2 -1 -8 -27 7 0
1532257759434095 5 -3 0 -1 -8 -5 -2 3
1532257759457035 11 -4 -4 -1 -1 -17 -22 -4
1532257759494933 -7 -3 -3 -4 -8 -46 8 -3
1532257759524853 -2 -6 -2 -3 -2 -3 5 -3
1532257759576714 -2 0 -3 -5 -5 9 8 1
1532257759629573 -8 3 -3 -1 0 -4 1 1
1532257759668475 28 14 2 -3 -19 2 -11 1
1532257759704373 26 -19 -5 -4 -9 -9 -10 16
1532257759719334 -58 12 -21 2 4 -12 9 -33
1532257759734293 32 36 15 3 -6 29 23 4
1532257759764213 -41 -19 -1 -2 2 -13 -5 -5
1532257759787151 12 38 5 0 -9 -19 -30 3
1532257759817072 -26 21 18 -1 11 25 -1 17
1532257759854971 -22 -4 16 3 1 -9 7 -7
1532257759876911 42 1 -17 -6 5 -1 15 1
1532257759899850 21 -4 11 -2 5 15 14 7
1532257759936752 -32 -19 -8 0 7 0 6 10
1532257759981632 8 -3 -13 -6 -18 -22 -2 1
1532257759996591 -4 4 4 2 -3 -17 5 -9
1532257760042469 -26 6 0 1 7 15 5 -9
1532257760057429 -15 3 3 0 1 14 7 7
1532257760094330 -31 -3 2 0 -7 2 12 -11
1532257760109291 -10 -10 -12 0 14 6 -13 -5
1532257760132229 8 4 9 -1 8 13 -7 -4
1532257760147189 -12 -6 2 2 0 7 -1 -1
1532257760169131 -8 0 0 -1 -4 6 0 -7
1532257760192069 6 0 0 -1 -1 0 -1 4
1532257760214010 8 -3 -1 2 0 -13 -11 7
1532257760244928 8 0 1 0 -2 -5 -2 0
1532257760266869 -2 -3 -5 -2 -1 3 -3 -1
1532257760304767 -8 2 3 0 2 10 6 0
1532257760334688 -29 0 -4 -5 -2 -4 -1 -9
1532257760364607 8 -7 -4 -2 -1 2 2 2
1532257760394528 10 -1 0 1 -2 -8 -8 1
1532257760409488 4 -1 0 0 -1 1 2 3
1532257760424447 -12 -5 -4 -2 -1 -6 0 -5
1532257760454368 -5 0 1 0 -1 -6 -2 1
1532257760477306 8 3 1 -1 -2 -17 1 1
1532257760499248 -23 -4 -4 -3 6 -11 7 -2
1532257760559088 1 -1 -1 -2 -2 6 1 3
1532257760589008 -2 0 -1 0 3 10 3 0
1532257760604966 5 8 5 3 13 13 4 4
1532257760619925 7 -3 -5 -3 -3 -3 -1 1
1532257760671786 -1 3 5 1 -2 0 0 1
1532257760739605 -1 -2 -3 0 -2 1 0 -1
1532257760761547 -5 -1 -3 -2 -2 0 2 -3
1532257760784485 -4 -3 12 -2 -2 -1 -4 -3
1532257760814405 2 5 14 -1 -2 -1 0 3
1532257760844325 -2 -8 -16 -1 -2 -2 -2 -1
1532257760867263 -6 -8 -13 -1 -1 -1 -1 -2
1532257760889205 -4 -6 -13 0 -1 -1 0 -1
1532257760904164 28 3 8 -5 -2 -3 -3 1
1532257760927103 2 3 -3 0 -1 -1 -1 -2
1532257760964005 -3 -1 -3 0 1 -1 0 1
1532257761009882 1 39 0 3 0 -1 0 0
1532257761046783 -1 -4 2 -2 -1 -2 -2 0
1532257761084682 -3 -7 -4 -3 -3 0 -1 -1
1532257761114602 -3 -4 -2 -1 0 -1 0 -1
1532257761144522 -1 -2 0 0 -3 -3 1 -4
1532257761197381 -2 -1 0 1 -1 0 -10 1
1532257761219322 -1 0 -1 -2 0 0 -7 -2
1532257761257221 0 0 -2 -1 -1 0 0 1
1532257761279161 0 0 0 -2 -3 -2 -2 -1
1532257761309083 -2 -3 1 -1 0 -2 -1 -3
1532257761332021 -1 0 -2 -2 -3 -2 -2 1
1532257761346980 1 -1 -1 -1 -1 -1 -2 -2
1532257761369919 0 0 1 -1 -1 0 0 -1
1532257761391861 -1 -2 -1 -2 2 2 -1 -1
1532257761451701 0 -2 0 1 1 0 3 0
1532257761542458 -2 -2 -3 -2 -1 0 -2 -1
1532257761609279 -1 2 0 -1 2 1 1 1
1532257761684079 -2 -2 -2 -1 0 1 -2 0
1532257761699038 -2 -2 1 0 -5 -2 -1 -1
1532257761766868 0 0 1 -1 -1 -2 0 0
1532257761796778 -3 -1 -1 -2 -1 0 -3 -3
1532257761819717 0 -2 -1 0 -2 0 1 -1
1532257761871578 0 -1 -1 -3 -1 -2 -2 -1
1532257761977295 -1 0 -1 1 -1 -1 1 -1
1532257762014196 -1 0 0 0 -1 0 0 -1
1532257762052108 -1 -3 -1 -1 -2 -4 -4 -1
1532257762082021 0 0 -1 -2 0 0 0 -1
1532257762119920 1 0 -3 -1 -3 -1 0 -1
1532257762201718 -2 0 1 -1 -1 0 0 0
1532257762231636 -1 -2 -1 1 -4 -1 -2 -3
1532257762292474 -2 -1 -1 0 -1 -1 -1 -1
1532257762307433 -1 -1 0 -1 -1 -1 0 -1
1532257762329375 -2 -1 -3 0 0 -1 -1 2
1532257762359295 -2 -1 0 -2 -2 -2 -1 -2
1532257762428111 0 0 0 1 -2 -1 0 -1
1532257762471994 0 -3 -1 -2 0 -1 -1 0
1532257762531834 0 -1 -1 0 -1 1 1 0
1532257762569733 -3 -1 0 -1 -2 -1 1 -1
1532257762629572 -1 0 -3 1 -2 -3 -2 -2
1532257762682430 0 -2 1 -1 0 -1 -2 0
1532257762698388 1 -2 -1 0 2 -1 0 0
1532257762766207 -1 -3 -1 0 1 1 0 0
1532257762854970 -2 0 -1 -2 -4 -4 -1 -1
1532257762899850 1 -1 -1 -1 -2 -2 -1 -1
1532257762914810 -2 -1 -2 0 -3 -2 -2 0
1532257762959690 -1 1 -1 0 -2 -3 -1 -1
1532257763042469 -1 -1 0 -2 1 -2 -3 -1
1532257763124250 -1 0 -1 0 -2 -2 -4 -3
1532257763139209 1 1 0 0 -1 -2 1 0
1532257763229967 0 -2 -2 -2 0 0 0 0
1532257763424447 0 0 0 1 2 1 0 0

1532257763619116 -1 -2 -1 -1 0 -2 -1 -1
1532257763664999 -1 0 -1 -2 -2 -2 1 1
1532257763709879 0 -1 -1 -1 -1 0 -4 -2
1532257763739799 0 0 0 -1 -1 -1 1 0
1532257763791686 1 -1 -2 1 0 -1 -2 0
1532257763814625 -1 0 0 0 1 -1 -4 -2
1532257763852523 -2 0 0 -1 -1 -2 0 1
1532257763882444 -1 -1 -1 -1 -1 -2 -1 -1
1532257763934311 0 -1 -1 -2 -2 -1 -1 -2
1532257764017097 -2 -2 -1 -2 -2 -1 -1 -1
1532257764039039 0 0 -1 -1 -1 -2 -2 -3
1532257764076937 -1 -1 0 0 -1 -1 -2 -1
1532257764136777 -2 -2 -1 -1 -1 1 -2 -2
1532257764226537 0 -2 -1 1 -2 0 0 -1
1532257764242494 -1 -1 -1 -1 2 1 0 2
1532257764302576 -1 -2 -2 -1 -2 -1 0 3
1532257764339480 1 -2 1 -1 0 -2 0 1
1532257764376539 -1 0 -1 -1 -1 -2 0 0
1532257764414437 1 0 -1 -2 0 0 -1 4
1532257764429397 -1 1 -1 -1 -1 -1 -1 -1
1532257764467296 -3 0 -2 0 -1 -2 -4 -1
1532257764497477 0 0 0 -1 2 1 1 1
1532257764534380 -1 0 -1 0 0 -1 -3 0
1532257764564301 -2 -2 0 0 -1 1 0 2
1532257764579261 -2 0 -1 -2 1 -1 -2 -3
1532257764617159 -1 -2 -2 -2 -3 -2 -4 -3
1532257764654077 1 -2 0 -1 1 2 -1 -1
1532257764722427 -1 -2 -1 -1 0 -1 0 1
1532257764782542 0 -2 0 -1 -2 -1 -3 -1
1532257764827422 -1 1 2 0 -2 -1 -1 -1
1532257764849345 0 0 -1 -2 -1 1 0 -1
1532257764872285 -2 0 -2 -1 0 -2 -2 -2
1532257764939106 -2 -2 0 -1 -3 1 2 -1
1532257764962045 0 0 0 1 -1 0 0 2
1532257765059783 -1 -1 -2 -1 -1 -3 -3 -2
1532257765096684 -1 -3 -3 -2 -4 -1 -1 1
1532257765134583 -3 0 -2 0 1 -3 3 1
1532257765187458 0 -1 -1 -2 0 -1 1 1
1532257765262258 0 -1 0 0 2 0 -1 5
1532257765314118 -3 0 -3 -1 -2 1 -2 -5
1532257765337058 -1 0 0 1 -1 0 1 1
1532257765352017 -1 -1 -2 -2 -2 -2 -1 -1
1532257765389916 -3 0 0 -1 -1 -1 -1 -1
1532257765426818 2 -1 0 2 -1 -2 -1 0
1532257765479676 -3 -2 0 1 -1 -2 -1 -1
1532257765502177 -2 -2 -1 -1 -1 -2 -2 -2
1532257765532098 -2 -3 0 -1 -3 -3 0 -2
1532257765576955 -2 -3 -1 -3 1 -1 0 2
1532257765599894 -1 2 0 -1 0 -1 2 0
1532257765614854 -2 -2 -1 -2 0 -1 -2 -3
1532257765666715 3 -2 -1 0 -1 0 2 11
1532257765712120 3 -1 0 -2 1 -6 4 1
1532257765742041 -9 -3 -3 -1 -2 18 -5 -8
1532257765816840 1 1 -5 -4 -4 -22 -3 -20
1532257765861720 0 2 1 1 -2 -11 -1 8
1532257765891640 -4 -2 -1 0 -1 2 -2 -1
1532257765921560 6 6 1 1 -5 21 9 5
1532257765937517 -5 11 2 5 11 -7 -4 -27
1532257765967437 5 4 1 -1 15 14 -2 36
1532257765982397 -9 -14 -5 -10 0 16 -21 -35
1532257765997357 4 -1 0 4 -10 15 9 -19
1532257766042237 -5 11 9 19 14 16 12 -30
1532257766057197 -2 20 -3 -8 5 10 1 32
1532257766079139 8 1 0 -1 -23 6 8 66
1532257766094099 12 -32 -4 6 -23 -22 6 106
1532257766131996 10 16 -1 0 24 12 1 34
1532257766146957 -3 -10 -2 3 14 3 20 4
1532257766191837 3 -9 -4 -3 -1 0 -33 -91
1532257766214775 -8 -10 0 0 -7 -5 -31 -57
1532257766266636 3 -3 0 6 5 -21 -34 -12
1532257766281597 7 25 -15 -13 -16 -18 -27 -1
1532257766311517 -13 -3 3 -12 47 9 -16 -34
1532257766327475 -14 -4 3 2 24 -11 -37 -32
1532257766342435 23 -24 -40 -39 -103 11 17 35
1532257766387315 -3 16 55 116 126 23 23 -15
1532257766417234 14 10 -20 3 -32 -4 13 50
1532257766447154 -14 -2 -3 2 12 -1 22 -7
1532257766477074 -10 -12 -1 -9 15 -3 6 11
1532257766506995 1 4 2 4 7 6 0 -5
1532257766521955 3 4 -6 -4 -9 1 5 6
1532257766551874 10 2 -1 -2 1 27 6 3
1532257766574813 16 9 6 -2 -16 -60 -8 8
1532257766626674 1 -4 -1 5 2 -47 2 11
1532257766664573 -19 -12 -4 -4 3 -53 -9 -7
1532257766702472 -11 -4 -5 -9 -16 48 -14 -13
1532257766769293 -11 2 -2 -2 0 38 -11 -11
1532257766866984 22 1 3 2 9 13 15 0
1532257766934805 3 -1 1 -3 -7 -13 -6 1
1532257766979684 -20 3 1 -4 -11 -25 -10 -3
1532257767001625 -2 2 -2 2 10 5 5 0
1532257767151628 -6 2 1 -2 -14 -13 -1 -2
1532257767166579 -11 -1 -3 -2 12 10 5 -6
1532257767204477 0 0 -1 -1 11 59 0 -7
1532257767304210 -1 -3 -2 -4 -6 -28 -14 -4
1532257767354077 -19 -1 -2 0 7 2 6 1
1532257767385005 -6 -1 0 -3 -8 10 5 3
1532257767414915 -10 -6 -2 -4 -6 -26 -16 -5
1532257767444835 -9 -6 -5 -5 -16 -16 5 -6
1532257767466776 12 0 -2 -3 -3 -11 -2 -1
1532257767489715 -2 2 2 1 -3 -2 1 0
1532257767511656 4 -2 0 2 13 1 0 -5
1532257767549555 -4 3 3 -1 3 -3 10 3
1532257767587454 18 0 1 1 3 3 -5 9
1532257767639315 -2 1 1 0 18 27 -11 0
1532257767692174 10 -7 0 0 -6 -5 -7 1
1532257767722093 13 -4 -4 -6 -16 -9 -11 -3
1532257767759992 7 2 -1 1 -2 -3 1 1
1532257767796893 5 -1 -1 -3 2 3 4 1
1532257767849752 6 1 -1 -1 -4 -19 -3 2
1532257767864712 4 1 0 1 1 7 1 0
1532257767917576 6 -1 -1 2 2 4 8 8
1532257767962450 -4 -2 -1 0 11 18 -1 -5
1532257767984392 0 -4 -2 0 9 4 0 3
1532257768037258 -11 -1 -2 -1 0 10 8 -5
1532257768096818 17 -5 -5 -1 -3 4 3 -6
1532257768141697 16 -3 -3 -4 -3 9 -10 3
1532257768262375 -2 -2 -1 0 1 -6 -9 -1
1532257768307255 -1 -4 0 -3 -13 9 -2 -1
1532257768367094 -1 -2 -4 -3 1 18 -5 -1
1532257768389037 -8 2 1 2 2 5 2 0
1532257768426952 -12 -1 -2 -1 -3 -5 -7 0
1532257768486792 -3 1 2 3 6 25 0 -2
1532257768554611 -5 1 -2 0 0 9 -1 -1
1532257768629411 -5 0 -1 -2 6 2 2 1
1532257768659331 8 1 -2 -1 4 -2 -7 -1
1532257768704211 4 -7 -2 -3 -3 -5 -4 0
1532257768719171 -6 0 1 0 -4 4 4 -4
1532257768764051 0 -2 0 -1 -3 0 -4 -2
1532257768803943 20 -6 -1 -1 -8 2 -1 -4
1532257768854962 -8 1 -2 -4 8 16 0 -2
1532257768907302 -7 5 2 -1 1 1 2 -3
1532257768967367 -1 -2 -4 -3 3 -5 -7 -2
1532257769154866 0 0 1 0 -2 -12 -8 0
1532257769349346 1 2 -1 1 15 21 25 3
1532257769387245 -3 -4 -2 -1 0 -9 -4 -2
1532257769529864 7 -3 0 3 1 -43 -13 2
1532257769544824 -43 8 3 -2 -8 -23 -8 -9
1532257769649544 -38 -11 -1 -2 -5 -32 15 -11
1532257769702403 -64 7 41 -11 -10 1 16 -4
1532257769769223 -37 4 -4 1 -4 4 1 -15
1532257769799316 15 -4 -3 1 2 -2 -8 6
1532257769859157 9 -7 -5 -5 -6 -8 -15 0
1532257769882096 -5 2 -1 0 -2 7 20 -2
1532257769927989 14 -4 -1 -1 -5 -6 1 10
1532257769994795 -12 -2 -2 -2 -1 -6 -13 -3
1532257770046655 -24 1 2 0 0 0 8 8
1532257770084554 -6 -3 -3 -1 -4 -1 6 -1
1532257770234154 6 -1 -2 -1 -2 -15 -2 -1
1532257770309951 1 -3 0 0 1 4 0 1
1532257770324912 -17 -5 -3 0 -1 -21 -4 -1
1532257770436613 3 4 -2 -2 -7 -49 -8 -4
1532257770459551 0 2 4 0 -3 9 4 2
1532257770527370 0 -4 -5 1 1 0 -8 0
1532257770587211 -1 -2 -5 -3 0 0 2 -1
1532257770774709 -3 -1 -1 -2 0 2 0 -1
1532257770841530 -2 -3 -2 -2 -1 -2 0 -1
1532257770864469 -1 -1 -1 -2 -5 -26 -3 -3
1532257770887407 0 -2 0 1 1 9 2 -1
1532257770924309 2 -1 -1 -2 -2 4 -3 -1
1532257770939269 0 -1 0 -1 -1 7 1 1
1532257770969189 -1 -1 -2 0 -1 -2 -7 -1
1532257770984149 0 0 0 0 -1 -6 -4 -1
1532257771007087 0 -1 -1 -1 1 -2 1 -1
1532257771029029 -3 -1 0 1 4 4 3 -1
1532257771074906 -3 -2 -1 -1 1 -1 -3 -1
1532257771089869 -1 -2 -1 -2 -2 -4 2 -1
1532257771104826 1 -1 0 -1 -2 -2 -3 -2
1532257771119786 -3 -1 -1 -2 -4 -2 -4 -2
1532257771141727 -2 0 -1 -2 0 1 1 0
1532257771171648 0 -2 -1 -1 -4 -2 -2 0
1532257771202571 -2 -2 -3 -1 0 1 0 -1
1532257771216527 -1 1 -2 0 0 -1 0 -2
1532257771239581 -2 -1 -1 -1 -2 -2 -2 -1
1532257771269527 -2 0 -1 -1 -1 4 -4 -1
1532257771307415 -1 0 -1 0 0 2 0 0
1532257771329356 0 -1 1 0 -2 -5 -2 -1
1532257771359276 -2 0 -1 -1 2 -2 0 -1
1532257771397175 -1 -3 -1 -2 -1 0 -2 -2
1532257771427163 -1 -1 -2 0 -3 -4 -2 -2
1532257771442124 -1 0 0 0 1 0 -1 -2
1532257771464061 1 0 -2 -3 0 -1 -1 0
1532257771494979 -2 -2 -2 -2 1 -1 -2 -2
1532257771509938 -3 -2 0 -1 -2 -3 -3 0
1532257771524899 0 -2 1 0 -4 -1 1 0
1532257771539859 -1 0 1 -1 0 0 -1 -1
1532257771569784 0 -1 -1 -1 -1 -2 -1 0
1532257771591720 1 -2 0 -2 -1 0 3 0
1532257771614659 -1 -2 0 1 -2 0 -1 -2
1532257771644579 -1 -1 -3 1 -1 -3 -1 -1
1532257771674499 -2 -2 0 -1 -1 -1 0 -2
1532257771697437 -1 0 1 -1 1 -2 -1 -2
1532257771712397 -2 -1 -3 -2 0 -1 -2 0
1532257771734339 -1 -1 -2 -1 -1 -1 -2 -1
1532257771757277 0 -2 0 -3 0 1 -1 0
1532257771779219 -2 -1 0 -2 1 -2 0 -1
1532257771802157 -1 -2 -1 -1 0 -1 -1 -1
1532257771817118 -1 -1 -1 1 -3 1 2 -1
1532257771847037 0 0 -1 -1 -2 -2 0 -1
1532257771861997 1 -2 0 -1 -2 0 0 1
1532257771884935 -2 -3 -1 0 -2 -2 -2 -1
1532257771906877 0 -1 0 0 -3 1 -2 -2
1532257771936797 -3 -1 -1 0 0 -3 -1 -2
1532257771959736 -1 -1 -1 -1 -2 -1 -1 -1
1532257771981677 -2 -2 -1 -2 0 -2 -1 0
1532257772019576 0 -1 0 0 1 -1 0 -1
1532257772034536 -2 -1 -3 0 0 1 0 0
1532257772057475 -1 -2 0 1 1 -3 -3 -3
1532257772072434 1 -2 -2 -2 -2 -2 -2 -1
1532257772102354 -1 0 -2 1 0 1 -1 1
1532257772117314 -2 0 0 -1 -2 0 1 -1
1532257772132275 0 -2 -1 -1 -1 -1 -2 -2
1532257772162194 -1 -1 0 -4 -2 0 -1 0
1532257772192115 -2 -2 1 -1 0 -2 -4 -1
1532257772221990 0 -1 -1 -2 -2 0 1 0
1532257772236950 0 -1 -2 -1 -1 -1 -2 -2
1532257772259889 -2 -2 -2 -1 0 0 -2 -1
1532257772274849 -1 0 -1 1 0 0 0 -1
1532257772296790 -1 -1 0 0 1 -2 -1 0
1532257772311846 -1 -1 -1 -1 -1 -2 0 0
1532257772334784 0 0 -2 -1 1 0 -2 -1
1532257772364705 0 -2 0 -1 -1 -1 1 0
1532257772394668 -2 1 0 -1 -1 1 1 1
1532257772424589 -1 -1 0 -1 0 -4 -2 -2
1532257772439549 -1 -3 -1 1 -2 0 -2 0
1532257772462508 0 -1 -1 0 0 -2 -1 0
1532257772492435 -1 -1 0 -2 0 -1 0 0
1532257772522336 0 1 -2 -2 1 0 -1 0
1532257772537297 -1 -4 -1 -2 1 -1 0 -2
1532257772551857 -1 -3 -2 -1 -2 0 -2 -1
1532257772574796 -3 -2 -1 0 1 -2 -1 0
1532257772589756 0 -2 0 -2 -2 -1 -1 -1
1532257772619677 0 2 -2 -1 -2 -2 -1 1
1532257772634212 0 -1 -1 -1 -1 -3 -2 -1
1532257772687070 -1 -1 -1 -1 -1 0 1 -1
1532257772702030 -1 0 0 -1 -1 0 3 0
1532257772746910 -2 -1 -2 -1 2 0 -1 -1
1532257772776830 -1 -3 1 -2 -3 0 0 -1
1532257772799769 -1 0 0 1 1 -3 -2 0
1532257772814734 -1 -1 -2 -1 0 0 -2 0
1532257772829688 -2 -1 -3 -1 1 -1 -2 -1
1532257772851630 1 -1 -1 -1 1 -1 0 -1
1532257772874569 -2 -1 0 0 -2 -2 1 -2
1532257772896553 0 -1 1 -1 -2 -1 1 0
1532257772919492 -1 -1 -1 0 -2 0 0 1
1532257772934452 -2 1 -1 1 1 1 1 -1
1532257772994291 0 -2 -3 -1 -1 1 -3 -2
1532257773009251 -1 -1 -2 0 -1 0 -2 0
1532257773024211 -2 0 -1 -1 -2 1 1 -1
1532257773039171 -2 0 -1 -4 1 1 0 0
1532257773054132 0 -1 -2 -1 -1 -2 -1 -2
1532257773077070 -3 -2 -1 0 -2 -3 -2 1
1532257773100026 -2 -1 -1 0 -1 -2 -1 -3
1532257773129929 1 0 -2 -1 1 0 0 -2
1532257773151870 0 0 0 0 -1 -3 0 -1
1532257773174809 -2 -1 -1 -1 1 -1 -3 -2
1532257773189769 -2 0 -2 0 -2 -1 -3 0
1532257773213705 0 0 -2 -1 -2 -2 1 -1
1532257773226669 -2 -1 -2 -1 -1 -1 1 -1
1532257773249609 0 1 -2 -2 -2 1 0 0
1532257773279529 0 -2 0 -1 0 -1 -3 -2
1532257773294524 -2 -2 0 0 1 0 -1 -1
1532257773317463 -2 0 -1 1 0 -1 -3 1
1532257773347382 -1 -1 -3 -1 1 -1 -1 0
1532257773369341 -2 0 1 -1 1 0 -3 -3
1532257773399244 -1 -1 -3 -3 -2 0 1 -1
1532257773414216 -1 0 1 -1 -3 -5 -1 0
1532257773452104 -3 -2 -1 -2 -2 0 -2 -2
1532257773490036 0 1 1 -2 -2 -2 0 1
1532257773526903 1 0 -3 -4 -2 -3 0 0
1532257773556823 -2 0 1 -3 2 8 0 0
1532257773586743 -1 -5 -7 6 0 12 1 -2
1532257773609682 -1 2 -2 -1 -2 -10 -4 -3
1532257773639602 -2 -2 -1 -4 -4 -8 -1 0
1532257773669523 -1 4 -4 -9 0 -1 -1 -1
1532257773699442 1 5 1 13 2 2 2 0
1532257773737340 -3 -5 -6 -3 -2 -6 -2 -4
1532257773774242 0 2 5 9 -2 -3 -1 3
1532257773820122 0 -2 -4 1 -5 26 0 -1
1532257773879959 0 -4 5 3 4 14 -1 -2
1532257773901911 -4 -3 -14 -45 -46 -20 0 -1
1532257773931820 -1 0 0 8 49 -7 -11 -4
1532257773946780 -1 2 -2 -2 -3 44 8 0
1532257773969719 -1 0 4 -1 -8 8 -1 0
1532257773991661 2 1 0 -18 10 12 3 0
1532257774029559 -1 0 5 22 54 28 -2 -2
1532257774082417 -4 -4 -5 -6 -2 15 -1 -2
1532257774127298 -3 -3 -6 -10 -21 -24 4 -1
1532257774142274 0 -4 3 -5 37 -10 -1 -1
1532257774179159 -1 -5 20 0 -14 44 1 -3
1532257774202098 -3 -4 -13 -26 -14 -35 -9 -4
1532257774225036 -1 -5 -10 -13 -4 -6 1 -1
1532257774246978 -4 -3 9 9 -10 0 -4 -3
1532257774269916 1 4 1 9 -12 25 -2 -1
1532257774291858 1 0 -1 7 22 -10 4 0
1532257774306818 -1 -6 -7 -6 15 72 -2 -2
1532257774321787 1 3 13 0 -6 -7 2 1
1532257774359676 1 -6 -13 10 6 -15 -5 0
1532257774374645 -2 -6 -5 -4 -23 -37 -3 -1
1532257774404556 0 3 10 0 17 50 10 2
1532257774427494 -2 0 -3 0 5 -26 -6 -2
1532257774442458 -1 4 9 -5 44 21 -2 0
1532257774457415 -2 -5 -10 -25 -14 -37 9 -1
1532257774487335 -1 -2 1 3 1 -7 9 1
1532257774509277 -1 1 7 -4 -14 31 6 -1
1532257774532214 1 -2 3 6 -1 6 -16 -2
1532257774556151 0 0 2 10 0 2 -1 2
1532257774592055 0 1 6 -3 -8 -4 3 -7
1532257774607014 -5 -9 6 3 0 10 13 5
1532257774637942 -3 1 2 -5 -15 -54 -19 -7
1532257774666854 -5 -2 1 -5 3 38 4 -4
1532257774704753 -2 -2 -1 -1 3 6 -1 -2
1532257774719713 -2 0 -1 1 -3 31 8 0
1532257774741655 -4 0 -4 -6 4 7 -6 -4
1532257774756615 -5 -6 -15 -7 -10 0 -12 -7
1532257774787532 -1 1 5 1 -9 0 -5 -3
1532257774802492 0 -3 -4 1 9 -31 -4 -3
1532257774832412 2 0 -14 -3 -6 -49 -4 0
1532257774854353 0 0 -12 -2 -7 -12 -7 -3
1532257774869313 -5 -1 -6 5 15 27 1 1
1532257774899233 0 0 2 -1 -5 -21 -10 -5
1532257774914193 -2 -1 -2 1 0 -27 -4 1
1532257774983010 0 2 10 -2 5 31 2 -1
1532257774996972 -54 -2 6 4 -8 28 14 0
1532257775026892 31 3 9 2 11 -5 9 0
1532257775049831 -14 -14 -4 -5 12 -25 -21 -1
1532257775079751 17 0 2 5 5 10 19 8
1532257775094711 -12 -2 -2 1 2 -10 14 2
1532257775147583 -12 -6 -4 -11 -15 -84 -39 -13
1532257775214391 -5 -8 -8 -12 -30 -11 6 1
1532257775238327 7 1 2 -4 -18 -39 -44 -8
1532257775289191 2 -3 -6 -6 4 36 -6 -7
1532257775342049 15 -1 0 2 5 -38 -16 1
1532257775416849 -3 -2 1 2 0 -16 -6 1
1532257775529547 -3 -3 -6 -7 -7 10 2 -3
1532257775597372 -1 0 -1 5 -21 -19 6 -3
1532257775627287 -3 -2 -3 -6 7 -6 1 0
1532257775657207 -2 -3 0 -2 -9 -40 -4 2
1532257775694108 -1 -2 -3 0 7 46 -1 0
1532257775725025 -3 -3 -5 -5 -3 -17 -16 -3
1532257775746966 -1 -1 -2 -1 -7 6 -6 -2
1532257775769905 0 0 0 -1 -1 -15 1 1
1532257775806806 -2 -4 -1 1 10 25 0 -1
1532257775829745 -2 -1 -1 -2 0 17 2 -2
1532257775859665 -1 -2 -1 -1 2 -33 6 -1
1532257775874625 -2 -1 -3 -1 1 0 -4 -1
1532257775911526 -1 1 -1 -2 -3 -10 -5 -1
1532257775949426 -2 -1 1 -3 -6 2 -3 -2
1532257775972363 -20 2 0 -1 -1 2 -6 -2
1532257776009265 4 -2 -4 -2 -3 -13 -8 -1
1532257776047164 -10 -6 6 0 3 13 1 3
1532257776077084 -12 0 -1 0 -1 -6 -4 -4
1532257776100022 5 -1 1 -1 -2 -13 2 -2
1532257776181803 -14 -1 -4 -4 -1 1 -14 -8
1532257776204742 12 1 4 -1 -4 -11 4 2
1532257776249622 -17 -1 -2 2 9 10 -2 -9
1532257776324422 0 0 2 2 -3 -9 6 7
1532257776354342 -4 -5 -2 -5 -1 -29 10 0
1532257776467041 16 1 2 0 -6 9 -8 3
1532257776489980 12 -4 -2 -4 -3 -5 0 5
1532257776519900 -23 -3 5 -3 -2 16 2 -3
1532257776588716 0 6 1 1 3 23 1 -2
1532257776610657 15 -7 -4 -3 -5 51 -12 -1
1532257776639580 3 24 4 1 -1 -13 4 -6
1532257776654540 -8 -9 -7 -5 -15 -25 -11 -4
1532257776789179 2 1 16 5 2 15 9 -7
1532257776804139 -22 -1 -9 1 -22 -38 -6 11
1532257776835068 -54 -6 24 2 7 24 13 -43
1532257776850016 11 -3 -2 -3 -1 12 -5 2
1532257776864977 -13 -7 5 -3 -2 2 -5 -4
1532257776879937 25 3 -8 -4 -6 0 -9 14
1532257776931798 -3 0 -13 -1 -1 7 1 3
1532257776969697 -27 -11 1 -4 0 -15 -3 -18
1532257776991638 -16 -30 -1 -4 -6 -5 1 -4
1532257777014577 3 10 0 -5 -7 -7 -7 1
1532257777037515 -3 4 -2 -2 -3 0 -2 1
1532257777067435 3 3 2 0 -3 -5 -5 -2
1532257777119297 -6 0 0 -1 -2 2 0 -2
1532257777142235 -3 0 -1 -3 -2 -4 -2 1
1532257777194098 1 -3 -3 -2 -1 3 1 4
1532257777261915 -1 4 4 0 -1 -6 -1 -2
1532257777306795 0 0 0 -1 0 -6 -2 -1
1532257777359654 2 -2 -7 0 2 -1 0 -2
1532257777382593 0 3 1 -1 0 0 1 -1
1532257777419495 -3 4 6 -1 -1 -3 -1 0
1532257777472353 -2 -2 2 -3 -4 -20 -9 -6
1532257777502273 -1 -1 -9 -1 2 4 1 1
1532257777532192 -1 0 2 2 -2 0 -1 0
1532257777547153 0 -3 4 -2 1 3 1 0
1532257777592032 0 0 2 -1 1 1 6 2
1532257777629931 1 -1 0 -1 -1 -2 -4 -2
1532257777651872 0 1 1 -1 -1 1 12 0
1532257777696759 -1 0 0 0 -1 0 -11 -1
1532257777734652 2 0 0 -1 -1 -2 -1 -2
1532257777771553 1 -1 -2 2 -3 -2 2 -1
1532257777899211 0 -1 -1 -1 -2 -2 -4 -1
1532257777967029 0 -1 -2 -1 0 -5 -2 -2
1532257778056789 -1 0 -2 -1 0 0 3 0
1532257778101669 -1 0 0 0 -1 0 -2 0
1532257778139568 -1 -1 -1 -2 -1 -1 1 -1
1532257778169489 -3 -1 0 0 -1 -1 0 0
1532257778192427 0 -2 0 1 -1 -2 1 0
1532257778229328 -1 -1 -1 0 0 -1 -1 -1
1532257778259249 1 0 -1 0 -1 -1 -1 -2
1532257778304128 -1 0 1 0 -1 -1 -3 -1
1532257778342027 0 0 -2 -2 0 -1 0 -1
1532257778371947 -2 0 -1 -2 -2 -1 1 -2
1532257778386907 -1 0 1 -1 -1 5 -1 -1
1532257778409846 4 -1 -1 -1 -2 -4 0 -2
1532257778439766 1 1 -1 0 -1 2 -2 -1
1532257778454726 0 -2 0 0 2 -4 -1 -1
1532257778469686 -3 -1 -2 -1 -3 -2 -2 -1
1532257778484646 -1 0 -1 -2 -1 -1 0 0
1532257778514565 0 -1 -1 0 -4 -1 1 -2
1532257778537504 0 -1 -2 0 0 -1 -3 -1
1532257778574406 0 0 -1 -3 0 -1 -1 -1
1532257778597344 -2 -2 -2 -1 -2 -3 -1 -2
1532257778619286 -2 0 -2 1 -1 -1 -2 -1
1532257778649205 -3 -3 -1 -1 0 0 0 -2
1532257778679126 -1 0 -3 0 -1 -1 0 -1
1532257778717024 -1 -3 1 -1 0 -2 -1 0
1532257778791824 -2 -1 -1 -1 1 -2 0 0
1532257778874603 -1 -1 -1 0 -2 -1 2 1
1532257778896544 -1 -2 -1 1 0 0 1 0
1532257778942422 -2 -2 -3 -1 0 -3 -3 0
1532257778988309 0 -1 -3 -3 -1 0 0 0
1532257779026201 0 -1 -2 -2 -1 -2 0 -1
1532257779054122 -2 -1 -2 -2 -1 1 -2 0
1532257779106981 -1 -1 0 1 -2 0 -1 -2
1532257779136902 -1 -1 -3 -2 -1 -2 0 0
1532257779166830 -1 0 -1 -1 -1 -1 -1 -1
1532257779204720 0 -2 -1 0 -2 0 0 -3
1532257779226661 -1 -2 -1 -1 -1 -1 1 -2
1532257779249600 0 0 -1 0 -1 -1 -2 0
1532257779287499 -1 -1 -1 1 -1 -1 -1 -2
1532257779317419 0 -2 0 -2 -1 -1 -2 -1
1532257779339360 -1 0 0 0 0 -2 -2 1
1532257779399200 0 -2 0 -1 0 0 -2 -3
1532257779429119 -3 -1 1 -2 -2 -2 -2 -1
1532257779481979 0 0 0 -2 0 0 1 0
1532257779504917 -1 -2 -1 -1 0 -2 -1 0
1532257779534845 0 -1 0 1 -2 -1 -1 -1
1532257779556779 -1 0 0 0 -1 -1 -4 -1
1532257779579717 0 -1 0 -2 -2 -2 0 -1
1532257779594677 -2 -1 -2 0 1 -1 -1 -1
1532257779654517 1 -4 0 -1 -1 1 1 -1
1532257779714357 -2 1 -4 -1 -3 -1 0 -2
1532257779797135 0 -1 -1 0 -3 -1 -2 -1
1532257779819088 -3 1 0 -1 0 -1 -2 -2
1532257779835042 -2 0 -1 -1 -1 0 0 -1
1532257779894875 0 -1 0 0 -1 -2 -2 -1
1532257779909835 -2 0 -1 -1 0 -1 -2 -2
1532257779961696 -1 -1 0 -2 -2 -2 -2 -2
1532257779976656 -1 0 1 -2 -1 -2 0 0

1532257779991619 0 -1 -1 -2 -2 -1 -1 -1
1532257780014555 -1 -1 0 -1 0 0 -1 -1
1532257780044474 -1 -1 -1 -1 -2 -2 -2 -1
1532257780067413 -2 0 -2 -1 -1 -1 -2 -1
1532257780097333 0 -2 -1 -1 0 1 -1 -1
1532257780127253 0 0 -1 -2 -3 -2 0 0
1532257780142213 -1 0 -1 0 -1 -1 -1 -3
1532257780157173 0 -2 0 1 -1 0 -1 -2
1532257780187093 -3 0 0 -4 0 0 0 0
1532257780210035 -2 -1 2 5 1 2 -1 1
1532257780239951 -2 -2 2 -2 -1 -1 -2 -1
1532257780254912 -2 3 5 -3 0 -1 -2 -3
1532257780284838 -3 -1 -2 -1 -2 1 2 -3
1532257780314757 -2 -2 -4 0 -1 -1 0 -2
1532257780336699 -3 -2 0 -2 -2 0 -1 1
1532257780404517 -3 -1 -1 1 1 -1 -2 1
1532257780427464 0 0 0 -1 -2 1 -2 -2
1532257780449406 -1 0 -1 0 -1 -1 -1 -2
1532257780472344 0 -2 -1 0 -1 -1 -3 -2
1532257780517224 -1 0 0 0 0 -2 -1 1
1532257780539165 0 -1 -3 0 -2 1 3 -1
1532257780554126 -1 -2 -1 -1 0 -1 2 1
1532257780577065 2 -1 0 0 -1 0 -1 0
1532257780600002 -3 -2 0 -2 0 1 5 0
1532257780621944 -2 -1 0 0 -2 -3 -3 -2
1532257780636904 -1 -2 -2 -1 -3 -2 -1 -1
1532257780666824 -2 -1 -1 -2 -1 0 -3 -1
1532257780690760 -1 -1 0 -1 1 2 1 0
1532257780719683 -1 -3 -3 -2 -3 -2 -2 -1
1532257780734643 -2 -2 -1 0 -2 -2 0 1
1532257780758579 0 -2 -2 0 0 -1 1 0
1532257780787502 0 0 0 -2 0 1 1 -1
1532257780817421 -2 -2 -2 1 1 0 -1 -1
1532257780839362 0 -1 -3 -1 0 -1 0 -1
1532257780862302 0 -1 0 0 -2 -3 -4 -2
1532257780877262 0 0 -1 -1 0 0 1 -3
1532257780914163 -2 -1 -2 1 -1 -1 -1 -1
1532257780929122 -1 0 -1 -1 1 2 1 0
1532257780944083 -1 -1 0 -2 -1 -1 0 1
1532257780975005 -1 -2 0 1 0 -1 -3 -1
1532257781019880 0 -2 -2 0 0 -3 1 -1
1532257781056782 -1 -2 -1 -4 -1 -3 -4 -2
1532257781094680 -1 -2 0 1 -1 -3 1 0
1532257781109640 -1 0 -2 -1 -3 0 0 -1
1532257781132578 -2 -2 -1 -1 -4 0 0 -3
1532257781147539 -1 0 -1 -3 -1 0 2 0
1532257781184439 -1 -2 -2 1 2 -3 -1 -2
1532257781229319 -3 -1 -1 -1 -1 -2 -2 0
1532257781259240 0 0 -2 -1 2 0 0 0
1532257781342019 -1 1 1 -2 -2 -2 -2 -1
1532257781356979 0 -1 -3 -1 -2 0 0 -1
1532257781401871 -1 -1 -2 -2 -1 -3 0 0
1532257781424797 -2 0 -2 -2 -1 1 -1 1
1532257781461699 0 -2 -3 -1 -2 0 -2 -1
1532257781499597 0 1 -1 0 0 1 -2 -1
1532257781514557 0 -1 -2 0 0 -1 -7 -4
1532257781544477 -1 0 0 -2 0 0 -1 0
1532257781567416 0 0 -1 -1 -2 -1 -1 -2
1532257781582375 0 1 1 0 -3 -1 -1 -1
1532257781597336 -2 -3 -1 -3 -1 -2 -2 -3
1532257781627256 -1 12 4 -4 -1 1 -2 -2
1532257781642216 -2 -2 1 -2 -2 -3 -1 0
1532257781664157 -1 -3 -5 -3 -2 0 0 -2
1532257781687096 -2 -3 -13 -9 1 -1 -2 -3
1532257781709037 -1 8 84 45 4 3 2 2
1532257781739954 -2 -11 -40 -23 -6 5 1 -2
1532257781754914 -2 -2 2 1 -2 -10 -2 0
1532257781799795 -1 4 -5 -7 -14 -26 0 -1
1532257781814754 0 -3 -12 -6 6 20 -4 -2
1532257781836696 1 -4 -13 0 -12 -6 4 3
1532257781874594 0 1 3 15 -5 -10 2 0
1532257781912493 -1 -3 -13 -21 22 37 -1 -3
1532257781964355 1 5 17 59 8 20 3 2
1532257782039155 -15 -2 -8 -42 -22 -40 -15 -3
1532257782249592 3 -4 -11 7 1 17 7 1
1532257782354312 3 5 5 3 -7 14 -3 -8
1532257782377250 -5 -1 -5 -6 0 -20 0 -1
1532257782422130 2 3 -5 -6 -10 17 -5 -2
1532257782444072 1 1 2 5 0 -26 9 2
1532257782459032 -3 -3 -2 -3 19 36 -3 -3
1532257782481970 -1 -9 -12 -8 -9 -17 -6 -2
1532257782496931 -2 3 7 -4 -12 -31 -9 -1
1532257782534828 18 0 -11 1 -32 -62 -2 2
1532257782556770 -2 8 20 4 -2 7 -1 -3
1532257782571730 -3 -3 0 6 12 54 5 -1
1532257782594669 9 -4 -22 -7 -2 13 2 3
1532257782639549 -4 -2 -9 0 -12 22 1 -7
1532257782684428 7 0 -23 -21 -9 -27 2 0
1532257782707367 -2 -2 11 15 6 32 -1 -1
1532257782759229 5 2 16 13 -27 -33 -7 -1
1532257782804109 -13 18 25 -11 -14 0 3 -1
1532257782871928 -15 -24 -14 2 -17 -19 -6 -4
1532257782961688 10 6 -16 -4 3 79 13 2
1532257783082365 8 2 0 0 11 -44 9 1
1532257783172125 2 -4 -6 -10 -29 -53 -30 10
1532257783225981 -6 0 -1 0 21 64 27 5
1532257783276845 -1 -2 -1 -8 3 25 1 -8
1532257783351645 1 -9 -11 -4 -2 11 -3 -7
1532257783374583 3 2 2 3 15 49 -2 0
1532257783419464 -2 -3 0 1 2 -14 -2 2
1532257783481297 63 7 2 -1 9 2 0 4
1532257783592002 -1 2 1 1 1 -15 12 2
1532257783614941 5 -3 -2 -1 13 38 12 2
1532257783651853 5 -1 2 7 9 -2 2 3
1532257783689741 -25 -6 -5 -5 -5 -34 -6 -3
1532257783719660 -14 -2 1 2 1 4 8 0
1532257783779501 -5 -3 -4 -5 -9 -9 -7 -2
1532257783862279 -4 0 2 2 5 1 4 -2
1532257783899181 18 0 -2 -2 -4 -13 7 8
1532257783966999 21 -9 -3 -3 -1 9 -13 14
1532257784079698 2 1 -1 2 -7 -83 -13 0
1532257784184432 -8 2 5 4 6 49 -18 -2
1532257784244258 33 -13 11 -1 5 45 -15 -7
1532257784259218 38 3 -3 -2 -21 -4 23 8
1532257784476637 4 12 12 5 11 44 22 2
1532257784619255 1 -2 -2 0 0 -5 12 -3
1532257784672123 3 -1 -3 -1 4 -5 1 -3
1532257784814732 -4 -3 -2 -7 -14 -33 -1 -3
1532257784912471 3 -2 -3 -7 -20 -9 4 4
1532257784949372 0 1 4 10 15 -18 3 1
1532257784979292 -1 -6 -3 1 -9 15 -2 -2
1532257785024172 4 6 -7 -9 2 -10 0 2
1532257785054092 -1 -7 -8 2 14 15 1 -1
1532257785069052 3 2 0 -6 -14 -7 0 1
1532257785106951 -2 -2 -4 -6 16 10 0 -3
1532257785129890 -2 -3 -6 -3 4 -13 -1 0
1532257785166790 -1 -2 0 -1 -2 0 -1 0
1532257785196710 -1 0 -1 0 25 12 0 -2
1532257785249569 0 -2 1 1 -5 2 2 -1
1532257785294449 0 0 -1 -3 -8 7 -1 -1
1532257785324369 -1 1 1 -2 -1 -11 -1 -2
1532257785377228 0 -3 -2 -1 7 14 -1 -1
1532257785407147 -2 -1 -3 -1 -1 -10 1 -1
1532257785444049 -1 -1 -1 -3 0 -5 -1 -1
1532257785474967 0 -1 1 2 1 -4 -1 -2
1532257785489927 -1 -2 -1 -1 -3 -3 0 0
1532257785519847 0 0 0 1 1 0 -1 0
1532257785541788 -1 -2 -2 -1 -3 -1 -1 -4
1532257785564727 1 -1 -3 -1 -1 -1 -1 0
1532257785586668 0 -2 0 -1 -4 -2 0 -2
1532257785609607 -3 -1 -2 -1 3 1 0 -1
1532257785632546 -2 -1 -1 -2 -2 1 0 0
1532257785647505 -2 -1 -1 1 -2 -2 0 -1
1532257785662465 -1 0 1 -2 -2 -3 -2 -1
1532257785684407 0 0 2 4 2 2 1 1
1532257785707346 -1 -1 -1 -2 -3 -6 -4 -1
1532257785737266 -1 -2 -1 4 13 5 0 0
1532257785774167 -2 0 0 -1 -4 -3 -3 -1
1532257785804087 -1 1 -1 1 -1 6 2 -1
1532257785827026 -1 -1 -1 -3 -1 0 -2 -1
1532257785849964 -1 -1 0 -1 -2 0 0 -1
1532257785871905 0 -1 -2 -1 -1 0 -3 -1
1532257785894844 0 -1 -2 -2 -2 -1 -1 -1
1532257785916785 3 -1 0 0 -4 -2 0 0
1532257785931745 -2 0 -1 -1 0 -1 -2 -1
1532257785976625 -2 0 -1 -2 -2 22 0 -2
1532257786007560 0 -1 0 0 0 -3 -1 -1
1532257786037473 0 1 1 -1 -1 0 -2 -1
1532257786053453 -2 -3 0 -1 -1 0 -1 0
1532257786089335 -2 -2 0 1 1 3 -1 0
1532257786104295 1 -1 -1 0 -3 1 -2 0
1532257786127233 0 0 -2 -1 2 2 -1 -2
1532257786149175 1 -1 0 -1 -1 1 0 -1
1532257786179095 0 -1 -1 -2 0 -1 1 -1
1532257786194055 -2 -2 -1 0 -3 0 -2 -1
1532257786210012 -2 0 1 2 8 13 0 -1
1532257786231953 -1 -2 0 -1 0 3 -2 -3
1532257786246913 0 -1 -2 -3 -3 -2 0 -2
1532257786276833 0 -1 -1 -1 0 0 2 -2
1532257786299772 -2 -1 -1 -2 -5 -6 1 0
1532257786321713 0 0 0 0 -2 -1 0 -2
1532257786351634 -1 -1 -1 -1 -1 0 -2 0
1532257786389532 1 0 -1 -1 0 0 -2 0
1532257786412470 0 -1 -1 -1 -2 -2 0 -1
1532257786427431 -1 -1 0 0 1 -1 -2 -2
1532257786442391 -3 -3 -3 0 0 -2 -2 -1
1532257786472311 0 -1 -1 -1 -3 -3 0 -1
1532257786502231 -1 -1 1 -1 1 1 -3 -1
1532257786517191 -1 -2 -3 -2 -2 0 1 -2
1532257786532151 -2 -3 -1 -1 -4 1 -1 -1
1532257786562071 -3 -1 -1 -2 0 0 -2 -2
1532257786585009 0 0 -1 -1 -2 -1 1 0
1532257786606951 -1 -1 -1 -2 0 -1 -2 1
1532257786621911 -1 -1 -1 -2 -4 -2 0 1
1532257786644849 -2 -1 -1 0 -2 -2 1 -2
1532257786666791 -1 -1 1 0 3 2 -1 -1
1532257786696711 -1 0 -2 -1 1 0 -1 0
1532257786711670 -2 -1 0 1 -1 3 -1 -2
1532257786742587 -1 -2 -2 2 -1 0 -1 -2
1532257786756551 -1 -1 -1 0 -1 -1 -1 -3
1532257786772508 0 -1 -1 -1 -3 -1 -1 -1
1532257786802427 -1 -1 -2 -1 -3 -4 0 -2
1532257786824369 -1 -3 -1 -1 0 0 -1 -1
1532257786847308 0 -2 -2 -1 1 0 1 0
1532257786869249 -1 -1 -1 0 -1 -1 -2 -2
1532257786914129 1 -1 -2 -1 0 -1 -3 -1
1532257786937067 -2 -3 0 -1 1 -2 -2 -1
1532257786952029 -1 -1 -2 -1 -3 -4 -3 -1
1532257787004886 -2 0 -2 -2 1 -1 0 -1
1532257787019846 -1 1 0 0 -2 -4 -2 -1
1532257787049766 0 -3 0 0 -1 -1 -1 -1
1532257787064726 -1 -1 -2 -2 7 3 0 -2
1532257787086668 -2 -1 -1 0 -4 -3 -1 0
1532257787118593 -1 0 -1 -2 -1 -2 -2 0
1532257787139526 -1 0 -1 -1 -6 0 -3 -1
1532257787154487 -2 0 0 0 3 3 -1 -1
1532257787184406 -1 -1 -1 -1 -4 -5 -3 -2

1532257787207345 -1 -1 0 -1 2 3 -1 -2
1532257787229286 -1 0 0 0 -3 -2 -1 -1
1532257787252262 -3 -2 0 -1 0 -1 -2 -1
1532257787274188 0 0 -1 -1 0 -1 0 -3
1532257787289149 1 -2 -1 -1 -4 -4 -1 -2
1532257787312088 -1 -1 -2 -3 0 1 0 -1
1532257787335027 -1 -2 -1 0 -4 -2 -2 -3
1532257787356968 -3 0 -2 0 1 0 -1 -1
1532257787371928 -3 -2 -1 -1 -2 -2 -2 1
1532257787394866 -2 -1 -2 0 -3 -1 0 0
1532257787409825 -1 -1 -1 -1 -2 -1 -1 -1
1532257787431767 0 -2 0 -1 0 -1 -1 -2
1532257787454706 1 0 -1 0 -3 -3 0 0
1532257787469666 0 -1 -1 -1 0 -5 -1 -1
1532257787491607 -2 -2 0 0 -2 -2 -1 -2
1532257787514546 0 -1 -2 0 0 2 -1 -1
1532257787529507 -2 0 -1 -1 1 1 -1 0
1532257787552454 0 -2 -2 -2 1 2 -1 -2
1532257787574386 -3 -2 -1 -2 0 0 1 1
1532257787604306 -1 -2 0 -2 -2 -2 0 0
1532257787619266 -1 -1 0 -1 -5 -1 -1 -1
1532257787649192 -1 0 -1 -1 -1 -2 -2 -2
1532257787672131 0 -1 -2 2 -4 -2 -1 1
1532257787711027 0 -1 0 0 2 1 -3 -1
1532257787724990 0 0 -1 -1 -2 -1 0 0
1532257787754910 0 -1 0 -1 -1 -1 0 -1
1532257787776851 -1 -1 -1 -1 -2 1 -2 0
1532257787791811 -1 -1 -1 -1 1 0 0 0
1532257787814750 -1 -1 -1 -2 -1 -3 -1 -2
1532257787829710 -1 -1 -1 -1 -2 0 0 -1
1532257787851651 -1 -1 -1 -2 -4 -1 -1 -1
1532257787874590 -2 -2 -2 0 -1 -1 -1 -1
1532257787889549 -1 -2 -1 0 -1 0 1 -1
1532257787927448 -1 0 0 -2 0 -2 -2 -2
1532257787949390 -2 -1 -1 0 -4 -4 -1 0
1532257787979310 1 0 0 -1 -1 -1 -1 -2
1532257787994269 0 0 -1 0 0 2 0 -1
1532257788017208 0 -1 0 -2 -2 -1 -1 0
1532257788054109 0 -3 -1 1 0 -1 0 -2
1532257788077048 0 0 -2 1 -1 -1 0 -1
1532257788106968 -1 -1 -2 0 1 -2 0 0
1532257788129907 -1 1 -3 -1 -2 -1 -1 -1
1532257788151848 -2 -1 -2 -1 -1 -1 -1 0
1532257788174787 -1 -2 -2 -2 -1 -1 -1 0
1532257788196728 -2 -1 0 -2 -1 -2 0 -2
1532257788219682 0 -1 -2 0 0 0 -1 -1
1532257788234627 -4 0 0 -2 -1 -1 -1 0
1532257788256568 0 -1 -1 0 -1 0 -1 -2
1532257788294467 -1 1 -1 -1 -1 -1 1 0
1532257788317406 0 -2 -1 -1 0 -3 -2 -1
1532257788347325 -2 -2 -2 -1 -3 -1 0 -1
1532257788369267 0 0 0 -1 -2 -1 -1 -1
1532257788392206 -1 -1 -1 -1 -1 0 -1 1
1532257788414147 -1 -1 0 -1 -2 1 -2 -1
1532257788437085 0 -2 0 0 -1 0 -2 -1
1532257788467005 -1 -1 -1 -2 1 -1 -2 0
1532257788481965 -1 -2 0 1 -1 -1 -1 -2
1532257788511885 -1 0 0 -1 1 0 -2 0
1532257788549784 -1 -1 0 -2 -1 -2 0 -2
1532257788564744 -2 0 -2 -1 -2 -1 0 -1
1532257788579704 -1 -1 0 -1 -2 0 -3 -1
1532257788594664 -2 0 0 -2 0 -2 -3 -1
1532257788616605 -2 0 -1 -1 0 -2 -1 -2
1532257788639544 -2 -1 0 -2 -1 -1 0 -1
1532257788662497 -1 -1 -1 -1 -2 -1 -1 -1
1532257788684439 -2 1 -1 -1 1 -1 -1 0
1532257788714345 -3 1 -2 0 -2 -1 0 -2
1532257788752243 -1 -3 -2 0 0 -1 0 1
1532257788774185 -2 -1 0 -1 0 -2 -1 -1
1532257788804104 1 1 -1 -1 0 -2 0 0
1532257788834024 -1 -1 -2 -2 -1 0 -1 -2
1532257788864942 -1 -1 -1 0 -2 0 0 0
1532257788879902 -1 0 -2 -1 1 0 0 -1
1532257788901849 0 -2 -1 -2 -1 0 -1 0
1532257788916809 1 0 -2 0 -1 0 0 -1
1532257788939747 -1 1 -1 1 0 -2 0 0
1532257788969684 -1 -1 -1 -1 -1 1 -1 -1
1532257788984627 0 -1 1 0 -1 -2 -2 -2
1532257789052454 0 -1 -3 -1 0 -2 0 -1
1532257789097365 -2 0 0 0 0 -1 -2 0
1532257789112325 0 0 0 -1 -1 -1 -2 -1
1532257789134266 -2 -2 0 -1 -1 -1 0 -1
1532257789157205 -2 0 -1 0 1 1 0 -2
1532257789172166 0 -1 -2 0 0 0 -1 0
1532257789194120 -1 -3 -1 -1 0 -1 -2 -1
1532257789217058 -1 -1 -1 -1 0 -1 0 0
1532257789254956 -1 0 -1 0 0 1 0 -1
1532257789284206 0 -3 0 -1 2 1 0 -1
1532257789300050 -1 -1 -3 -2 -2 -2 -1 -2
1532257789329967 -1 0 -1 -1 -1 1 -1 -2
1532257789359887 -1 -1 -1 1 -2 -1 -1 0
1532257789389807 -2 -1 -3 -1 -2 -1 -1 -2
1532257789404767 -3 0 -1 -1 -2 -1 0 -1
1532257789426708 -1 -1 0 -1 0 -1 -3 0
1532257789456629 0 -1 -2 -1 0 -1 1 0
1532257789479567 -1 -1 -3 0 0 0 0 -2
1532257789509488 0 -1 -3 -1 -2 -1 -1 0
1532257789532426 1 -1 -1 0 -1 0 1 2
1532257789562346 1 -1 -2 -2 -1 0 -1 -1
1532257789577306 -2 -1 1 -1 -1 -1 -1 -2
1532257789599247 0 0 -2 -1 -1 0 2 -1
1532257789629167 -2 0 0 -1 -1 -2 -1 -1
1532257789644127 0 -2 0 -1 -1 0 -1 -2
1532257789666535 -2 1 0 -1 0 -1 -3 0
1532257789704434 -1 -3 -2 -3 -2 -1 0 -2
1532257789719394 -1 0 -1 -1 -1 -1 0 0
1532257789749314 0 -2 0 -1 -1 -2 -3 -2
1532257789764274 -2 -4 -1 0 -2 0 -1 0
1532257789779234 -1 0 0 0 -1 -1 0 -1
1532257789794194 -2 0 -1 1 -2 -2 0 -3
1532257789817171 -1 -1 1 -2 0 -1 0 1
1532257789832130 -3 -2 -2 -3 -1 -1 -2 1
1532257789862050 0 -1 0 0 -2 0 -1 0
1532257789884989 -3 -1 -1 1 1 1 -1 -1
1532257789899949 0 0 -2 -1 -1 0 -1 -2
1532257789914944 0 0 -2 -2 0 -1 -2 -1
1532257789951810 -1 -1 -2 0 -1 -1 0 -1
1532257789974749 0 -1 0 0 0 0 -1 -2
1532257789996690 1 -3 -1 -4 -2 -1 0 0
1532257790019629 1 1 -2 -3 -4 -11 0 1
1532257790034589 0 0 0 -3 -11 -2 0 0
1532257790064509 0 -3 -3 -11 -28 -19 -1 0
1532257790079469 -2 0 -1 -2 2 79 5 0
1532257790102409 -1 -2 -2 -3 -2 -11 -3 -1
1532257790132328 -2 -2 -6 -3 -4 -23 -6 -1
1532257790154269 1 3 5 32 20 -14 4 2
1532257790177208 -2 0 -1 -13 -32 -1 -1 1
1532257790199149 0 -1 -1 -5 -13 12 0 1
1532257790237048 2 2 6 23 2 18 6 4
1532257790266967 -2 -3 -4 -14 -17 9 1 -2
1532257790289906 4 4 25 12 -13 -8 -1 2
1532257790304866 -4 -7 -27 -38 -5 -3 -14 -6
1532257790326808 0 0 6 37 1 16 11 2
1532257790364706 -1 -3 -1 8 -22 22 1 -1
1532257790409586 -2 -2 -1 -10 -2 -25 -11 -2
1532257790454466 -2 -1 -3 -9 -18 -52 -9 -1
1532257790477405 3 3 2 0 -33 -40 6 2
1532257790589106 1 -1 8 25 20 27 1 2
1532257790754663 0 -1 7 11 12 39 5 1
1532257790852402 -2 0 0 -3 -15 -8 -3 -3
1532257791024941 -2 2 5 -1 12 -15 -7 -3
1532257791076809 1 -1 -6 7 -29 -55 8 4
1532257791121682 2 -1 11 13 -9 -22 -2 -1
1532257791182519 0 -2 -22 -7 26 68 2 1
1532257791287239 -5 -6 -12 -13 -9 -86 -14 -4
1532257791348077 -4 -4 -8 -8 -8 -4 -2 -2
1532257791391959 -25 -28 -44 -45 -17 -2 -7 -8
1532257791466759 -8 1 24 25 -6 -28 28 -9
1532257791519617 3 0 4 17 24 68 11 1
1532257791609378 36 1 -6 -8 -14 -10 -30 6
1532257791624338 -9 0 5 2 9 -5 -14 -2
1532257791677197 -6 -2 0 -5 -4 10 -1 -6
1532257791730057 6 -2 0 4 -4 31 12 2
1532257791804855 -14 -2 0 -3 -14 -73 -14 -13
1532257791894615 -19 -4 -2 -3 -7 -10 5 0
1532257791917554 19 2 0 -1 8 -2 2 -2
1532257792022274 13 2 0 2 8 -2 4 5
1532257792067154 6 2 1 1 2 -21 3 0
1532257792112034 0 4 -4 -3 0 -34 1 -2
1532257792299532 15 2 1 4 8 13 -11 -1
1532257792337431 22 7 3 -1 -12 -65 2 3
1532257792442151 45 1 -1 1 -10 -21 -1 14
1532257792531910 22 4 0 1 4 25 3 14
1532257792636631 12 3 5 5 -13 -31 8 7
1532257792794210 16 -26 -40 -4 -8 -4 -14 4
1532257792847068 7 -12 0 -1 -16 -37 -32 -15
1532257792974727 5 -7 -4 -2 0 4 2 -3
1532257793064487 -3 -1 -3 1 5 18 9 3
1532257793087426 1 -2 -3 -2 -2 -2 -1 -1
1532257793192163 6 0 0 3 8 4 11 0
1532257793222065 -5 -10 -5 -7 1 13 2 -1
1532257793290882 -1 0 2 -1 -5 -12 2 2
1532257793311825 -4 2 -1 2 -8 2 0 -2
1532257793326785 -2 -1 0 -6 -10 -40 -11 -4
1532257793364684 0 1 -3 1 -6 5 0 1
1532257793386643 -2 -1 -2 -4 -6 -37 -4 -2
1532257793409564 -2 -3 -1 -1 14 -31 1 0
1532257793432502 -1 -1 1 -1 0 -10 -1 -1
1532257793454444 -1 -1 -2 -3 -2 14 1 0
1532257793469404 0 0 -3 -2 -2 -15 1 0
1532257793492350 -4 0 0 -1 2 -10 -3 -2
1532257793507302 -2 -1 -2 -2 7 25 1 0
1532257793529244 -1 -5 -1 0 -4 10 0 -1
1532257793559164 1 -1 0 0 9 -3 0 1
1532257793582103 -1 -1 -1 -2 -1 -7 -1 -1
1532257793597063 -2 0 -1 0 6 -6 -1 -1
1532257793612022 0 0 -1 2 9 -2 -1 -2
1532257793626997 0 -1 0 -2 5 11 -2 -1
1532257793649921 -1 -2 -1 0 13 27 4 -1
1532257793671878 0 0 -1 -4 -6 -20 -3 -2
1532257793686823 -1 -1 1 -1 -4 -15 -5 0
1532257793709761 1 0 -1 -2 6 20 4 0
1532257793731703 1 -1 0 0 -5 -13 1 0
1532257793746662 -2 0 -2 1 5 11 -1 -2
1532257793769618 -1 0 -2 -1 -2 -12 0 -2
1532257793799520 -1 -2 0 -1 1 9 0 -1
1532257793829441 -3 0 0 -1 -2 -3 2 -1
1532257793852380 0 0 0 -2 -7 -7 -2 -1
1532257793867344 -1 -2 -1 0 -4 -7 0 -1
1532257793889281 -1 -2 -1 -1 -6 -26 -3 -1
1532257793912220 0 -2 -2 1 -3 3 0 1
1532257793934161 1 1 -1 4 4 7 -2 0
1532257793957100 0 -1 0 0 -4 -37 -2 0
1532257793980039 -1 -1 -1 -1 5 -3 0 0
1532257793994998 -1 -2 -1 -2 -8 -4 -1 -2
1532257794024918 0 -2 -3 -1 6 10 -2 -2
1532257794054839 -1 -4 -2 -3 -2 9 -3 -1
1532257794084758 1 -1 -2 1 2 4 0 -1
1532257794114679 0 -1 -2 4 -3 -14 -1 -1
1532257794144598 -1 -1 0 -2 -5 -4 -2 -1
1532257794159558 -3 0 -3 -2 -3 -6 -2 -1
1532257794182496 0 1 0 -1 1 7 -2 -3
1532257794204438 -1 -1 -1 -1 5 1 -1 -1
1532257794227377 1 0 1 -1 -5 0 1 0
1532257794249318 -1 -2 -3 -4 -8 -8 -3 -1
1532257794272257 -3 -3 -7 -16 -1 -6 -1 -1
1532257794294198 0 -1 -4 -7 -1 -4 3 2
1532257794339078 -1 -1 -2 -2 -6 -23 -3 -2
1532257794362017 -2 0 1 -6 -8 -36 -3 -2
1532257794406896 1 0 -1 0 -6 -11 -2 -1
1532257794429836 -1 -1 -1 0 0 -1 0 0
1532257794451777 -1 0 1 7 0 -1 1 -1
1532257794474716 -2 -2 -1 -1 11 8 1 -1
1532257794489676 0 1 -1 -3 -3 -5 -1 0
1532257794511617 -1 -3 -3 -6 -6 -7 -2 -2
1532257794542534 0 -1 -1 -3 0 5 -2 -3
1532257794564476 -2 -3 -1 -3 -3 0 -2 1
1532257794587414 -1 2 -1 -1 2 11 -3 0
1532257794624315 -2 -1 -2 -2 -3 -3 2 -2
1532257794639275 1 -1 -1 0 -4 -17 -1 -1
1532257794662214 0 0 -1 -2 4 -1 0 -1
1532257794692134 -1 -2 -3 -2 4 0 -4 -1
1532257794729036 -2 -2 0 -1 1 -4 -3 0
1532257794751974 -2 -3 -1 -3 -7 0 -1 -3
1532257794774912 -2 -1 -1 1 0 4 -2 -2
1532257794796853 0 0 0 0 -3 -4 0 -2
1532257794811814 -1 0 0 -5 -6 7 -1 0
1532257794834790 0 -2 -1 -2 3 2 -1 1
1532257794849713 -2 1 1 0 -1 -8 -2 0
1532257794879634 -1 -1 -1 0 -9 6 2 0
1532257794902582 0 1 -1 0 2 -5 -3 -1
1532257794924513 1 0 2 12 -4 -6 0 0
1532257794954433 -2 -2 0 0 4 -7 1 -2
1532257794977372 -1 0 -2 -2 -6 2 -1 -2
1532257795007291 -2 -1 -3 -7 4 1 -2 -3
1532257795022252 -2 -3 0 12 22 1 -3 -3
1532257795044193 0 -3 -3 -6 1 4 -1 0
1532257795067131 1 1 -2 1 0 2 -1 -2
1532257795089072 0 0 -1 -1 1 -2 0 1
1532257795119990 -1 -2 0 -2 -1 -2 -1 -1
1532257795141931 -1 -2 -1 0 -5 -3 -3 0
1532257795171851 -1 -1 -1 -3 -2 -12 1 1
1532257795194790 -1 -1 -1 -1 -1 -3 -1 -1
1532257795216731 0 1 0 -1 -3 4 0 0
1532257795239670 0 -1 0 0 -2 0 -3 -1
1532257795256625 0 -2 0 -2 -15 -2 0 -1
1532257795299510 -1 0 -1 -2 1 -8 0 -1
1532257795314470 -1 0 -1 3 3 5 0 0
1532257795329430 0 0 -2 -3 5 -9 0 -1
1532257795374310 -3 -2 0 -2 -1 2 2 0
1532257795404230 -1 -1 -3 -5 -5 -10 -1 -2
1532257795427169 0 0 -2 -3 -6 2 -1 0
1532257795442138 -1 -2 0 -2 -2 1 1 -1
1532257795493990 -1 -1 -1 -6 -10 -15 -2 -2

1532257795516929 -1 -1 -1 0 5 9 -1 -2
1532257795539868 0 0 -1 0 4 -2 -1 0
1532257795554827 0 -1 -1 1 1 -2 2 1
1532257795576769 0 -3 -1 -4 -3 -2 -2 -2
1532257795599707 0 -2 -1 -6 -11 -6 -1 0
1532257795621648 -1 -1 0 4 -2 -2 -2 -1
1532257795659547 -2 -1 0 -2 -1 4 0 -2
1532257795674507 -2 0 -1 0 10 2 -1 -1
1532257795689467 0 -2 -1 0 3 -2 0 -1
1532257795712406 0 -1 -1 0 3 -4 -1 -1
1532257795734346 0 -2 -1 -1 6 -2 0 -1
1532257795757286 -3 0 -2 -2 2 2 2 -1
1532257795787206 -2 -2 0 1 -3 -1 -2 -1
1532257795809147 0 0 0 2 -14 -4 0 0
1532257795839067 -2 -1 -1 1 2 -1 -4 -2
1532257795855025 0 -2 0 0 2 -3 -1 0
1532257795876965 -1 -2 -2 0 -4 0 -1 0
1532257795899905 -1 -1 -2 -2 5 0 0 -1
1532257795914865 0 -1 -2 -2 -3 2 0 -1
1532257795936806 -1 -3 -1 -2 -1 -5 -3 -2
1532257795975519 -1 0 1 4 0 0 -2 -2
1532257795997460 -1 -1 0 2 2 -2 -1 -2
1532257796019401 -2 -2 1 -3 -1 0 0 -3
1532257796042340 -2 0 -2 -4 -2 -2 0 -1
1532257796057300 -3 -2 -2 -4 -5 -1 -1 0
1532257796087219 1 -1 -1 1 0 1 0 -1
1532257796102180 -3 -1 1 1 1 -2 -1 0
1532257796132100 2 -1 -1 -1 -1 0 0 -2
1532257796162033 -2 -2 -2 0 -2 0 -1 -1
1532257796191940 0 -1 -2 0 -3 0 0 -2
1532257796221860 -1 0 -1 -4 -5 -1 -2 -1
1532257796244798 -1 -2 -2 -4 3 -2 0 0
1532257796266740 0 -2 0 1 -2 -5 0 -1
1532257796289679 0 -2 -2 -2 -2 -2 -1 -1
1532257796326580 -2 0 1 -1 -9 -1 0 -1
1532257796341540 -1 0 -4 1 -1 0 1 0
1532257796364478 0 0 1 3 0 0 0 0
1532257796409358 -1 -1 0 0 0 -1 0 0
1532257796432307 0 1 0 -4 -2 0 -1 -1
1532257796469198 0 -1 -1 0 2 -3 0 -1
1532257796484158 -1 -1 -1 1 -2 -2 -2 -2
1532257796522073 -2 0 -3 2 5 1 -2 0
1532257796544996 -2 0 -1 -2 -1 -1 -1 -1
1532257796566937 -1 -3 0 0 0 -1 0 -1
1532257796589876 -1 -1 0 3 4 1 -2 -2
1532257796619808 -1 0 -1 3 4 -1 0 0
1532257796642333 -2 -1 -1 -4 1 -1 -1 -2
1532257796657294 0 -1 -1 -2 3 0 0 -1
1532257796679235 -2 -1 -2 -3 3 -1 -2 -2
1532257796717133 0 -1 -1 -1 -1 -4 -2 -1
1532257796732094 0 -1 -1 0 0 -2 2 -1
1532257796755033 0 -2 -2 0 1 1 -2 -1
1532257796776974 0 -2 0 1 3 -2 -2 -2
1532257796799912 0 -2 -2 -2 -1 0 0 -1
1532257796814872 -1 0 0 0 -4 -1 0 -1
1532257796859760 -2 -1 -2 -2 0 2 1 -1
1532257796881693 2 -1 0 0 -6 -25 -2 0
1532257796896654 -1 0 -2 -3 -2 -5 -1 0
1532257796919592 -1 -1 -2 0 -21 -54 -5 -3
1532257796942532 1 2 3 5 -9 -31 0 0
1532257796956494 -3 -3 -5 -10 -10 -24 -2 -1
1532257796979433 0 0 1 13 11 21 1 0
1532257796994396 -1 0 -3 -8 2 0 1 0
1532257797009352 0 -1 3 5 -8 -34 -2 -2
1532257797039273 -1 0 2 0 -2 -7 1 0
1532257797077170 3 3 9 13 7 27 1 0
1532257797099112 -3 -4 -8 -11 -5 -11 -7 -3
1532257797144990 1 1 0 -5 -11 -7 0 2
1532257797174909 -2 -3 -9 -9 -13 1 1 -1
1532257797196851 0 1 10 26 5 12 0 0
1532257797226771 0 0 -7 -14 3 3 4 -1
1532257797264670 -3 -3 -8 -17 -19 -2 -9 -4
1532257797369390 -3 -4 -5 5 9 2 -7 -5
1532257797392328 -1 1 2 -8 -20 -6 4 1
1532257797459150 2 5 5 3 0 -9 2 1
1532257797482088 -2 0 -2 2 -1 56 -2 -3
1532257797504029 -2 -1 2 14 48 75 1 -1
1532257797519987 0 -6 -9 -15 3 0 1 -1
1532257797579826 1 -2 6 9 4 6 8 0
1532257797609747 -1 1 -1 7 2 -33 -14 -4
1532257797624718 -2 -8 -4 5 15 -37 -13 -7
1532257797707485 0 2 1 -16 -16 -53 -5 -1
1532257797737418 -1 9 14 -2 -3 19 4 -1
1532257797767325 2 2 -5 4 7 -4 4 0
1532257797827165 -4 -2 2 -4 2 55 1 -2
1532257797857085 5 6 -5 -6 4 -13 1 3
1532257797931885 -4 -4 -2 -8 12 46 3 -6
1532257797984744 7 -19 -7 -3 -5 0 3 0
1532257798014666 -7 11 0 1 -13 -57 -12 2
1532257798044583 -4 -4 -12 -1 2 -61 -8 5
1532257798082483 4 -1 13 -11 -13 -26 0 -2
1532257798097442 -5 5 -7 -1 7 16 -4 -2
1532257798127363 -4 -5 -23 -18 -3 7 -2 -1
1532257798149304 2 -9 -3 2 24 -75 -24 -4
1532257798172242 8 4 -19 -9 -11 63 7 3
1532257798209143 -3 -2 11 2 -14 -3 3 -3
1532257798255021 -3 -14 -1 -2 -36 -16 -12 -1
1532257798299901 21 20 6 0 -1 -39 6 -3
1532257798351767 1 -5 -5 -5 11 11 -21 -9
1532257798381683 12 0 -6 -1 -48 -28 -1 5
1532257798411617 -11 7 1 7 25 115 93 -12
1532257798464461 -43 -25 -35 -24 -9 69 -10 -13
1532257798487400 -19 -2 -6 -5 3 -103 -85 0
1532257798577160 10 3 7 7 26 0 1 -1
1532257798689858 -3 -4 -4 -6 -63 -37 -20 -4
1532257798734738 -2 1 2 -1 8 -2 10 3
1532257798779619 0 -3 0 2 -4 -21 14 3
1532257798803555 0 0 -2 0 26 1 -12 0
1532257798877356 -3 -4 -3 -2 7 -30 0 0
1532257798997039 -7 -6 -4 -6 -11 -3 22 -1
1532257799056877 4 0 1 1 2 1 11 3
1532257799116717 -21 -6 -2 -2 0 2 -1 -8
1532257799169581 5 -2 0 -2 0 6 0 3
1532257799259336 -23 -5 -2 -2 -5 8 11 -5
1532257799299229 9 -1 -4 -2 -1 6 1 1
1532257799410930 -6 -11 -2 -1 1 5 2 -10
1532257799454813 6 0 -1 -4 -5 -4 -4 9
1532257799491714 10 1 -1 3 6 0 11 4
1532257799544573 68 -3 -1 -2 -3 20 11 2
1532257799612391 -9 -2 -3 -2 -5 37 -2 1
1532257799634339 4 -6 -9 -6 2 7 7 7
1532257799694173 20 -6 -9 -5 -19 3 6 -3
1532257799732071 34 2 -3 11 4 -12 23 8
1532257799791911 -21 -16 -5 -2 21 -2 -24 -24
1532257799851752 -21 6 13 6 21 42 91 -4
1532257800009330 -88 -10 3 3 -14 -23 3 -11
1532257800130008 25 -4 -3 -2 -1 -3 1 -8
1532257800226749 -2 0 0 -2 0 -14 0 1
1532257800241709 -7 -2 -7 -3 -3 0 0 0
1532257800294567 -5 -2 -1 -3 -8 -2 -7 0
1532257800317506 -6 -5 -4 -2 -2 -6 -18 -9
1532257800354407 -1 -1 -1 -3 -2 -3 -2 -4
1532257800407266 -9 1 -7 1 2 1 -1 -1
1532257800454141 -2 -5 -12 -2 -1 0 3 0
1532257800497026 2 -2 -13 -1 -2 0 -4 0
1532257800541905 1 -3 -7 -1 -1 -1 2 0
1532257800579805 -2 -2 -1 0 -2 -2 -5 -1
1532257800601746 -1 -2 -3 -3 -3 -7 -8 1
1532257800624684 0 3 1 -1 -1 0 0 -2
1532257800639645 1 0 -2 -1 2 3 3 0
1532257800654605 -2 -1 0 -1 -3 1 -1 -3
1532257800714444 0 -1 -1 0 -2 -4 -4 -3
1532257800737383 -3 -1 -2 -1 -1 -2 -3 -1
1532257800782263 1 0 2 -2 -1 0 0 -1
1532257800804204 0 1 -1 -1 -3 -1 0 -2
1532257800827143 0 -1 0 -1 -3 -2 -2 -1
1532257800872036 0 1 0 0 1 -1 1 -2
1532257800901945 -2 -1 -1 1 -3 0 1 -1
1532257800916903 -1 0 -2 -1 0 -1 -3 -3
1532257800946823 -2 0 -3 -3 -2 -1 -2 -1
1532257800969761 0 0 -1 -1 0 -3 -3 -1
1532257800991703 -1 -1 -2 -2 0 0 1 -1
1532257801014642 1 -2 1 -1 -2 -2 -1 -1
1532257801037580 -2 -1 -1 -1 -2 0 1 -1
1532257801074482 -2 -3 -2 0 -2 -1 -3 0
1532257801104402 0 -2 -2 -2 0 -1 -1 2
1532257801127340 -1 0 0 -2 -1 -2 -1 -1
1532257801157260 -2 -1 -1 -1 -2 0 -1 -1
1532257801187180 0 -3 0 -3 -3 -2 -3 0
1532257801209122 -2 -1 1 0 0 -1 -1 0
1532257801239041 0 -2 0 -2 0 -1 -1 0
1532257801261980 -2 1 -1 0 -2 -1 0 1
1532257801299879 0 0 0 0 0 -3 1 0
1532257801329798 -1 -2 -1 -2 -2 -2 -2 -3
1532257801351740 -2 -1 1 -4 -1 0 -1 0
1532257801396620 -3 0 -2 -1 0 -2 -1 -2
1532257801427537 -2 -1 0 -1 0 -1 2 0
1532257801464454 1 -1 0 0 -1 -1 -1 1
1532257801494359 -1 1 0 -1 0 -1 -2 -4
1532257801539252 -1 -2 -2 1 0 -1 0 0
1532257801554199 -2 -1 -1 -1 0 -1 -1 -3
1532257801607058 -2 -4 0 0 -2 -2 -1 -2
1532257801659916 -1 0 -2 0 -1 -1 0 1
1532257801689845 0 -2 -1 -2 0 -1 -2 0
1532257801719757 1 -3 -2 -3 -1 0 0 1
1532257801734718 -1 -2 0 1 -1 -4 1 -1
1532257801749676 -1 -2 -2 -2 -1 0 -2 -2
1532257801771617 -1 -1 -2 1 -1 2 0 1
1532257801802535 0 -3 -2 -1 -2 -2 1 -1
1532257801832455 -2 0 -1 0 -2 0 0 0
1532257801854396 -1 -1 -1 -1 -1 -1 0 -1
1532257801877335 -1 -5 -1 -3 -1 -1 -1 0
1532257801892295 1 6 -1 -2 -1 -1 0 -3
1532257801922215 1 3 0 -2 -2 -1 -1 -2
1532257801944156 1 -2 -1 -1 -3 -2 -1 0
1532257801967111 0 -1 -1 0 -3 1 -1 1
1532257801989036 0 2 -1 -1 -1 0 -1 1
1532257802019954 -1 -1 -1 -3 -1 1 0 0
1532257802086775 -1 -2 -1 1 0 0 -2 -12
1532257802109713 -1 -2 -1 -1 -1 1 -1 -1
1532257802131655 -2 0 -1 2 -1 -2 -1 5
1532257802162579 -2 0 0 -1 -1 1 -3 -4
1532257802177532 -3 -2 -1 -1 -2 -3 -4 -11
1532257802192492 0 -1 -1 -1 -1 -2 -1 0
1532257802222412 1 -1 -1 -2 -2 1 3 4
1532257802237372 -3 -1 -1 -2 -1 0 -1 -1
1532257802259313 -1 -2 -3 -1 -1 -1 0 -1
1532257802289233 -1 0 -1 -2 -2 -2 0 -1
1532257802334113 1 -1 -1 2 -2 -5 -2 1
1532257802349073 -2 2 -1 -2 -1 -1 -2 -4
1532257802372012 -2 -1 -1 1 -1 -2 -1 0
1532257802401948 -1 0 0 -2 0 2 0 -1
1532257802431852 -1 -3 -3 0 0 0 -1 0
1532257802454791 0 -1 -1 1 -2 0 0 -1
1532257802476732 -1 0 -2 0 0 -1 0 -1
1532257802491692 0 0 0 1 0 0 1 -1
1532257802514631 -2 0 0 -2 -1 -3 -1 -2

1532257802544551 -2 0 0 0 -2 0 1 -1
1532257802559511 -1 -1 -1 0 -3 -2 -1 2
1532257802582448 -1 -3 -1 -2 -3 -1 -2 -2
1532257802604390 -2 -1 -2 -1 0 -1 -2 0
1532257802627329 -2 -1 -1 0 -3 -1 -1 -1
1532257802649270 0 0 -3 -1 -1 -1 1 -2
1532257802664230 2 -3 -1 -1 -2 0 0 -2
1532257802709110 -1 -1 -2 0 -1 0 -2 -1
1532257802732049 0 1 -1 -1 0 -1 -1 0
1532257802754988 -1 -1 -2 0 0 0 -1 -1
1532257802769948 0 -2 0 -2 -1 1 -1 -2
1532257802791889 -1 -3 -3 -1 -3 -1 0 1
1532257802814828 -1 0 1 -1 -1 -1 0 -1
1532257802836769 -2 -1 0 -1 0 2 0 -1
1532257802851732 -1 0 -1 -1 -3 -2 -1 0
1532257802874668 -2 0 0 -1 -1 -3 -1 0
1532257802911569 -1 0 -1 -1 -1 0 0 0
1532257802934508 -3 -1 -2 0 -1 -1 -1 -1
1532257802949468 2 0 -1 -2 0 -1 -3 -1
1532257802964428 -1 0 -1 -1 1 1 -3 -1
1532257802987373 -2 -2 -1 -2 0 -1 -1 -1
1532257803009314 -1 -1 0 0 -1 -2 1 -2
1532257803039249 1 -1 0 -2 -3 0 -1 0
1532257803054195 -1 -1 -2 0 0 -1 0 -2
1532257803077133 0 -2 -1 -2 -3 1 1 0
1532257803107053 0 -2 -1 -1 -1 1 2 -2
1532257803129186 -2 0 -1 -1 -1 0 0 -1
1532257803152129 -1 1 -1 1 -1 0 -2 0
1532257803174066 -3 1 1 0 -1 0 -2 -1
1532257803189557 -3 -2 0 -3 0 -2 0 0
1532257803212496 0 -1 -1 -2 -2 0 -1 1
1532257803264357 -1 0 -1 -3 -2 0 0 -1
1532257803294277 2 -2 0 -1 -1 1 0 -3
1532257803317215 -1 -2 -1 -2 1 -1 1 -2
1532257803354842 -1 0 -1 -1 -1 -1 -1 -1
1532257803376783 -1 1 -2 -1 -2 -3 0 -2
1532257803391743 -2 -1 -1 -2 -1 -1 -3 1
1532257803414682 -2 -1 -1 -2 -1 -1 -1 -2
1532257803429642 -1 -2 -1 -2 -1 -1 -2 -3
1532257803459561 0 -2 -2 -1 0 -2 -2 -1
1532257803482501 -3 -1 -1 -1 -2 0 -1 -1
1532257803504442 -1 0 -2 -2 -2 0 0 -1
1532257803519402 -1 -1 0 0 -2 -1 0 0
1532257803534362 -2 -1 0 0 2 -2 0 -2
1532257803549322 -3 -1 -1 1 -1 -2 -3 -1
1532257803572260 -1 0 0 -1 0 1 0 -1
1532257803594202 0 0 -2 0 0 -1 -2 0
1532257803624122 -2 -1 -2 -2 -1 -1 -1 -1
1532257803647060 0 -1 -2 -2 -6 -3 -2 0
1532257803676981 0 -2 -1 -5 -9 1 0 -1
1532257803706900 -1 -2 -3 -5 -2 -9 -2 -2
1532257803721861 -3 -1 0 -8 0 -3 -3 0
1532257803752778 -1 -2 -8 1 -2 0 0 0
1532257803774719 -2 -1 -5 -3 -18 -3 -4 0
1532257803796660 -1 -1 -2 -2 -3 -3 -1 -1
1532257803834574 -1 1 0 1 -1 6 -3 -2
1532257803872458 -1 1 -1 30 -17 -5 -4 -2
1532257803909359 -1 -1 10 -11 8 9 4 1
1532257803932298 1 -2 0 12 12 60 4 0
1532257803984159 -2 -5 -6 -46 0 -2 1 -1
1532257804030036 1 3 -3 6 -13 15 2 0
1532257804066937 -1 -5 -4 -15 5 22 1 -2
1532257804126784 3 -2 -6 -5 18 28 8 2
1532257804186618 -2 -2 -10 40 26 43 2 -2
1532257804224516 -1 8 12 23 -11 -42 1 0
1532257804269397 -2 -7 -8 0 5 3 -1 -2
1532257804307295 -2 -2 -5 0 -1 21 9 -1
1532257804329236 1 5 -9 -6 13 -37 -6 -4
1532257804352175 -1 -6 -14 2 -34 -56 -2 0
1532257804374116 -1 -3 -4 -10 -14 -14 3 0
1532257804389077 -1 1 9 11 11 49 -6 -1
1532257804405034 -3 8 8 6 20 13 5 -1
1532257804426975 -2 -8 -2 3 5 9 -3 -1
1532257804441935 -5 -8 -12 1 -4 -17 -6 -2
1532257804456894 -4 -12 2 -6 -1 3 -1 -2
1532257804486815 1 1 15 36 3 0 -2 -1
1532257804516734 3 4 -9 2 4 -5 5 3
1532257804540671 -1 -5 -20 -19 -4 19 -1 -1
1532257804569593 -1 -3 -2 1 -9 -1 0 -2
1532257804592532 -1 -6 -1 -12 14 42 7 0
1532257804607492 -3 2 -4 5 -2 -3 -13 -5
1532257804637412 -5 7 2 18 -11 -40 1 -5
1532257804659364 -4 16 8 -11 -13 9 8 1
1532257804674314 -2 -8 12 -5 7 41 7 -5
1532257804704234 0 -9 -2 -10 -4 -5 -13 -1
1532257804719202 -5 -4 -2 -11 -15 13 2 -2
1532257804742132 0 -5 -9 0 28 26 5 0
1532257804757092 2 0 -1 5 7 -18 -6 -1
1532257804794991 6 3 27 5 16 70 0 1
1532257804831892 0 1 7 -9 -12 -29 4 1
1532257804854831 -8 -3 5 0 2 -2 3 -1
1532257804921652 -3 7 17 11 -3 -28 -6 -4
1532257804974511 21 -4 -15 2 24 7 0 0
1532257804997450 10 6 12 6 5 41 28 6
1532257805012410 -8 -17 -36 -7 -25 -42 -6 -1
1532257805094191 -1 10 17 -4 -8 -4 -18 -5
1532257805139071 3 3 7 10 -5 -24 40 11
1532257805221873 0 1 -1 2 27 39 -35 -4
1532257805236833 12 -1 1 -2 -4 26 -40 -7
1532257805402394 1 -1 -1 2 -3 27 9 4
1532257805454251 1 -1 -1 2 4 16 13 2
1532257805477190 44 -3 -3 -4 -1 0 -7 4
1532257805523068 -3 -1 2 3 -2 2 10 5
1532257805559969 14 2 -2 -4 -7 -13 4 -3
1532257805574929 20 0 1 1 -22 15 2 2
1532257805671670 -40 0 0 1 9 -17 11 -1
1532257805754449 49 2 -2 -3 -1 -1 -2 10
1532257805777388 1 -6 -1 1 -2 -8 -5 3
1532257805874129 -31 2 1 -1 -1 -17 8 -4
1532257805926989 38 2 -4 -1 -9 -16 -2 13
1532257805994806 24 0 -2 -2 -10 21 8 0
1532257806054662 -31 -5 -2 0 2 13 6 2
1532257806182323 32 -3 -3 -4 -5 -3 -4 16
1532257806219224 -25 -6 -1 0 -3 -17 -11 -4
1532257806557320 -29 -4 14 2 -19 16 -38 -9
1532257806602202 0 0 0 0 -2 -21 -3 2
1532257806723875 -3 0 2 1 18 -5 -15 -5
1532257806828595 -9 -8 -17 -11 -3 40 1 -8
1532257806879459 -1 -2 3 3 4 -21 5 -1
1532257806909379 -4 -6 -7 -7 -9 -38 -34 -3
1532257806954259 -1 -5 -5 -9 -16 -2 -3 -3
1532257807022077 1 -5 -2 -1 2 34 3 0
1532257807075934 1 -1 -2 -3 -7 -27 -5 -2
1532257807141757 1 -2 -3 -1 -1 -2 0 1
1532257807254456 -1 1 -1 2 -1 6 -1 -1
1532257807337277 -1 1 -2 -7 -4 -2 0 -2
1532257807389138 0 0 0 -6 -4 1 0 -2
1532257807404098 -2 -1 1 4 2 0 -1 0
1532257807441997 -2 -1 -1 -4 3 -1 -1 -1
1532257807456957 -2 -1 -2 -3 0 -2 0 0
1532257807479895 1 -1 0 1 -4 -2 -2 0
1532257807509815 -1 -1 1 1 -2 2 -2 0
1532257807524775 -1 0 1 -1 0 -3 -4 -2
1532257807546716 -1 1 -3 -2 0 2 -2 0
1532257807591596 -1 -1 -1 -3 -2 -2 0 0
1532257807607566 -2 0 -2 0 12 -2 -2 0
1532257807629495 0 0 0 4 2 0 -1 0
1532257807659415 0 -2 -1 -6 -3 0 1 -2
1532257807674375 1 0 -1 -3 -9 0 -1 -1
1532257807704295 -2 -1 -1 -2 -2 -2 -1 -2
1532257807727234 0 -2 -1 4 2 -3 1 -1
1532257807764135 -3 -1 -1 0 1 -1 -1 0
1532257807794056 -1 0 0 0 -2 0 -1 -1
1532257807824972 -3 -1 -2 -1 1 0 -1 -1
1532257807846914 -2 -2 -2 -3 0 -3 -2 -2
1532257807869852 -1 -1 -2 -1 0 0 1 0
1532257807906755 1 -2 -3 -3 0 2 -2 -1
1532257807929692 -1 -3 -1 -2 -5 -4 -2 0
1532257807966594 0 0 -4 -6 -3 -5 0 -3
1532257807982567 0 1 -1 0 1 0 0 -1
1532257808012470 -1 -3 0 -3 -7 -2 0 -2
1532257808034412 -1 0 0 0 4 -1 -1 -1
1532257808057351 -1 0 0 0 -5 -2 -1 -2
1532257808087272 2 1 0 0 1 0 -1 0
1532257808124172 0 -2 -1 0 0 -2 0 -3
1532257808156087 -1 -2 -1 -3 -4 -1 -2 -1
1532257808170050 0 0 -1 -3 -8 -3 -2 -1
1532257808185009 1 0 0 0 2 0 -2 -2
1532257808214930 -3 2 -1 0 0 3 -1 1
1532257808229890 0 0 -2 -2 -11 -3 1 0
1532257808289730 0 -2 -2 -1 -1 -4 -1 -2
1532257808311671 -2 0 0 -1 -3 -3 -1 0
1532257808349569 1 -2 -2 2 -1 0 -2 -1
1532257808372508 -2 0 0 -2 -1 1 0 -2
1532257808387468 0 0 -2 0 -10 -2 -1 1
1532257808417388 -2 -3 -2 1 -4 0 0 1
1532257808439330 -1 -1 -1 1 2 0 -1 -2
1532257808477228 -1 0 -1 1 2 2 -1 1
1532257808507148 1 -1 0 -1 4 2 0 0
1532257808545047 -2 -2 -1 0 -4 -1 -3 -2
1532257808566988 0 -1 0 -1 1 0 0 0
1532257808589927 -1 -1 -1 -1 1 1 -1 -2
1532257808611869 0 -1 -1 0 -2 -2 -1 -1
1532257808634807 -1 0 -2 -2 0 2 1 0
1532257808664727 1 0 1 -3 -4 -2 0 0
1532257808732545 -3 -2 -1 1 -1 -1 -3 -2
1532257808807346 -3 -2 1 -3 -4 -1 -3 0
1532257808844247 -1 -1 0 0 1 3 -1 0
1532257808859207 0 -1 -1 -1 3 -1 0 -1
1532257808874167 -1 -2 1 -1 -3 0 -1 -3
1532257808897105 -1 0 -2 -2 -3 0 -2 0
1532257808920044 -1 -2 -1 -1 -1 0 -1 0
1532257808941986 -1 -2 -1 -2 -12 -3 0 0
1532257808964923 0 -2 1 0 3 0 0 -2
1532257808979884 -1 -2 -1 -2 -2 -5 0 -1

1532257809001839 -2 -1 -1 -2 -2 -3 -2 -1
1532257809016785 0 0 0 1 -1 -1 -1 0
1532257809031745 0 -3 1 -3 2 0 -1 -1
1532257809061666 -2 -1 -2 1 0 -1 -1 -1
1532257809107542 -2 -2 -2 -2 -2 0 -1 -3
1532257809137612 0 -2 0 0 -1 -1 0 2
1532257809151576 -2 -1 -1 -1 1 0 -1 1
1532257809182494 -1 1 -1 -1 -5 -4 -1 0
1532257809204435 1 -2 -2 -1 -2 2 -1 0
1532257809227373 0 -1 -2 -1 -4 1 0 0
1532257809249315 -1 -1 -1 3 8 -1 0 -1
1532257809287213 0 -2 -1 -6 -2 -3 -2 -3
1532257809318131 -3 -1 0 -1 -4 0 1 -1
1532257809332093 0 -3 0 -2 0 0 -1 -1
1532257809355032 1 0 0 0 -2 -2 -3 1
1532257809369992 0 -1 -2 -3 -4 -2 -3 -1
1532257809391934 -1 0 1 3 -2 2 0 -2
1532257809406893 -1 -1 -1 -3 -2 -2 -1 -1
1532257809421854 1 -1 -1 -2 5 -1 0 0
1532257809459752 -3 -1 -2 0 -2 -1 -2 0
1532257809481693 -1 -2 -1 0 -3 0 0 -2
1532257809496654 0 -2 -1 0 2 0 -1 -1
1532257809511613 1 -1 -1 -2 -1 -1 -1 0
1532257809526576 -3 -1 -2 -2 0 -2 -1 -1
1532257809542578 0 0 -1 3 1 -3 -2 -3
1532257809564521 -1 -1 -1 -1 -2 -1 -1 0
1532257809587460 -2 -2 0 -2 -2 -1 0 0
1532257809602424 0 -1 -2 0 1 0 0 0
1532257809624361 -1 -2 -2 -3 -4 -2 0 -1
1532257809647299 -1 -2 -2 0 2 -1 0 -1
1532257809669241 -1 -2 -1 -2 1 -3 -2 -2
1532257809692180 -2 -1 -2 -3 -4 1 -2 -2
1532257809707140 -1 0 0 -1 -1 -2 0 0
1532257809729081 -2 -1 -1 -1 -2 -3 -2 0
1532257809752022 -1 -2 -1 -2 -2 1 -1 0
1532257809766980 1 0 -1 2 -3 -1 -2 0
1532257809789917 -1 0 -2 1 -2 0 -1 0
1532257809804878 -2 0 -1 0 -2 0 0 -3
1532257809826820 -2 -1 -2 -5 1 -1 -3 0
1532257809856739 -3 -2 -2 -2 -2 -1 -1 -1
1532257809871700 0 -4 1 -2 -3 0 1 -1
1532257809894638 1 -1 -1 -2 -10 -2 0 -1
1532257809909598 -1 -1 -1 -3 2 0 -2 1
1532257809932537 0 -1 0 -2 1 1 1 -2
1532257809954479 -2 1 -1 -1 6 0 -1 -1
1532257809977417 0 0 -1 -3 -7 -3 0 0
1532257809999358 1 -3 -1 -2 0 0 -1 -1
1532257810014321 0 -2 -2 -1 -2 0 -2 1
1532257810037257 -3 -1 -4 -1 3 0 0 -1
1532257810067177 0 1 1 -3 -3 -3 2 1
1532257810082137 -2 -2 -1 0 -5 -2 0 1
1532257810104078 -1 -1 -1 -2 0 0 2 1
1532257810134062 -1 -1 -1 -1 -5 -2 0 1
1532257810156980 -1 -1 -2 -2 -2 1 -2 0
1532257810186899 -1 0 -1 -2 -3 -1 -2 1
1532257810209838 -2 0 -2 -1 -2 -1 -1 -1
1532257810231780 -3 -1 1 -1 -2 0 -1 1
1532257810254718 -1 0 0 -2 -2 -3 -4 -1
1532257810269678 3 -1 -1 0 -3 0 -2 0
1532257810284638 1 -1 1 -3 -1 -1 0 0
1532257810307577 -1 -2 -2 0 8 0 0 0
1532257810337546 0 -2 -1 0 0 -2 -1 1
1532257810352509 -1 -2 -1 1 1 0 -1 -2
1532257810374447 -2 -3 0 -1 1 0 1 -1
1532257810389406 -2 -1 -1 -2 3 0 0 0
1532257810412345 -1 -1 0 -2 -2 -1 -1 0
1532257810442266 0 -1 -1 -2 4 1 -1 0
1532257810464243 -2 -2 0 -1 0 -1 -2 0
1532257810487182 -1 -3 -2 0 -3 -2 -2 -2
1532257810509123 -1 -1 -1 -2 -1 -2 0 0
1532257810525081 -2 -1 0 4 5 0 -1 0
1532257810547534 -2 -1 -1 -2 0 -2 0 -2
1532257810569477 -1 -2 0 -1 -4 0 -1 -2
1532257810592415 0 1 -1 1 -1 -1 0 -2
1532257810622335 -3 0 -1 -1 -2 -2 0 -1
1532257810644276 -1 0 -2 -1 0 2 -1 -1
1532257810674196 0 -2 -1 -1 -3 0 -2 0
1532257810689156 -1 0 0 -1 0 -2 0 -1
1532257810719077 -1 -2 -2 -1 0 1 -2 -1
1532257810734050 -2 -2 -2 0 -1 -1 -1 -1
1532257810749993 1 -2 0 -1 -2 -2 -1 3
1532257810771935 -1 -2 -1 -3 -2 -1 -1 -1
1532257810794873 -1 -1 -1 0 -2 0 0 0
1532257810816814 -1 -2 1 -1 -2 -2 1 -2
1532257810839753 1 0 -1 0 0 0 -1 0
1532257810869674 -2 -2 -1 -1 -2 -1 -2 -1
1532257810891614 1 0 -3 -2 -1 0 -2 0
1532257810914553 0 -1 -2 -2 -2 -2 -2 -1
1532257810937492 -3 1 0 0 -1 1 -1 -3
1532257810952452 -2 -1 1 -1 -3 0 -1 0
1532257810974393 0 -2 -4 0 -1 -1 0 -2
1532257810989353 -1 -3 -1 0 -1 -1 -2 -1
1532257811012291 0 -3 0 0 -1 -1 1 0
1532257811027252 -2 -2 0 0 0 -1 -2 0
1532257811049199 -2 -1 0 2 1 -2 0 0
1532257811087098 -1 -2 0 1 -1 -1 0 -2
1532257811109183 0 0 0 -1 2 -1 -2 0
1532257811132130 0 -4 -1 0 -8 1 1 -2
1532257811162042 -1 -2 -1 -1 1 -11 -2 -2
1532257811199941 0 -4 -2 2 -15 20 -3 -2
1532257811221882 1 2 0 -2 14 -30 -4 1
1532257811236849 0 0 0 0 -21 -18 -1 0
1532257811259781 -2 -1 4 8 -8 11 1 0
1532257811274741 -4 -4 -8 -15 -2 -13 -5 -3
1532257811296682 0 3 5 -6 -5 1 4 0
1532257811311642 0 0 0 1 37 12 6 2
1532257811349541 1 2 -2 -6 -19 -19 4 2
1532257811364500 -4 -4 -7 -25 -3 -17 -4 -2
1532257811439301 3 1 -2 3 51 65 1 3
1532257811499141 0 2 3 -10 14 4 -2 -1
1532257811545018 -3 -19 -38 -30 5 -22 7 0
1532257811559978 -4 -4 -5 -13 -41 -63 -1 -1
1532257811604858 0 -1 6 -1 -17 0 12 1
1532257811634804 -2 5 2 -30 11 5 8 1
1532257811679658 1 2 3 2 -19 -3 -2 1
1532257811694618 -2 -2 -9 -35 -10 -10 5 -2
1532257811717557 -1 -14 -28 -4 -3 -24 -1 -1
1532257811732517 -1 6 4 -16 -9 -49 2 0
1532257811754458 -4 -5 -7 -22 -11 -27 -10 -2
1532257811784379 2 3 9 21 16 6 2 0
1532257811807317 -3 1 1 -14 0 19 -1 0
1532257811822277 -3 0 -6 -6 -29 -37 -5 -2
1532257811859179 -3 -6 0 -13 23 85 3 -2
1532257811882116 0 -1 -3 4 -8 -24 -8 -2
1532257811897077 -3 0 1 5 38 38 3 -2
1532257811920029 -3 20 18 -11 -9 -4 4 -2
1532257811941957 0 -13 -6 1 -4 -10 7 2
1532257811956918 -3 -15 -13 -5 -10 -29 -13 -4
1532257811994816 0 -1 2 1 4 23 -1 -2
1532257812009776 -1 -2 5 18 9 13 -8 -3
1532257812031717 -2 1 -2 4 6 42 -10 -7
1532257812054656 -2 -15 -2 -7 -4 -5 13 3
1532257812099535 10 -8 -19 -9 -31 -25 0 1
1532257812114496 -7 -1 31 -1 -21 -56 -2 -5
1532257812129455 6 1 5 2 -2 -24 4 0
1532257812144415 -1 0 -17 -6 -6 3 -8 2
1532257812159375 0 6 12 32 62 83 26 5
1532257812189296 6 -4 29 7 17 -12 -4 -10
1532257812234176 3 2 -18 -15 -16 -47 -6 4
1532257812272074 -3 -2 1 -6 -14 -27 4 2
1532257812309973 -4 9 3 -3 -10 -14 -2 5
1532257812339893 6 10 4 6 25 -8 3 1
1532257812369813 11 12 45 13 7 7 10 3
1532257812384772 -2 0 4 17 15 -6 10 3
1532257812429653 -3 -10 -3 -22 -66 -41 -10 -4
1532257812512432 -6 -12 -22 -4 35 96 39 6
1532257812564292 -2 -8 -13 -4 27 68 -7 -4
1532257812602191 1 -2 -5 -2 -7 -66 4 0
1532257812751811 -3 -4 -6 -11 6 42 25 -9
1532257812917349 5 -1 2 3 -1 10 0 0
1532257812939290 5 1 0 2 9 -12 -9 -1
1532257812962229 -2 -2 -2 -1 15 -17 -2 1
1532257812984171 -3 -3 -3 -6 -9 -20 -13 -3
1532257813007109 -5 0 -3 -1 -8 -2 10 0
1532257813066950 -7 -4 -3 0 -2 20 13 4
1532257813119807 24 -2 -3 -4 -8 -23 0 -1
1532257813209567 -32 -6 -4 -4 4 -9 -20 -20
1532257813224527 40 7 -4 -2 3 13 -11 -20
1532257813269407 -16 -3 0 2 8 8 10 2
1532257813314287 1 3 1 0 -2 25 0 5
1532257813397066 14 -2 0 -2 -8 -2 -13 2
1532257813486826 1 1 -1 -2 -8 -23 14 8
1532257813501786 -8 -3 1 5 6 -12 6 -1
1532257813584564 -12 0 -1 -3 -14 -26 -3 -7
1532257813607503 43 2 1 -3 -9 14 -16 3
1532257813659364 -16 -12 -4 -2 -2 -3 -12 -17
1532257813697263 -42 0 27 18 -7 15 -8 -13
1532257813772063 -45 8 -9 -5 1 20 -28 -21
1532257813839881 55 51 34 1 20 -2 19 16
1532257813952580 -1 -9 -6 3 9 6 18 7
1532257814102180 3 0 -5 -2 -18 -29 -30 0
1532257814170008 3 6 7 9 0 6 17 1
1532257814221860 1 -4 -5 -12 -29 7 -1 -1
1532257814372458 1 0 4 5 9 8 -2 0
1532257814447258 -1 -3 -4 -3 1 36 0 0
1532257814462218 4 4 -3 -2 11 5 1 2
1532257814559956 -4 -3 -1 0 -3 -7 -4 -4
1532257814604836 -2 -1 -1 -3 9 6 0 -1
1532257814626781 0 2 -2 -2 -4 -42 -2 -1
1532257814664676 -2 0 -3 0 2 12 0 -1
1532257814686618 -1 -1 -1 0 4 -2 -4 -1
1532257814709556 0 0 1 0 -16 -29 -4 -2
1532257814739476 -1 -2 -2 0 8 7 2 0
1532257814762415 -1 0 -1 -2 -2 -22 -1 0
1532257814784356 -1 -2 -2 -2 3 10 -1 -2
1532257814807295 1 0 -1 -3 4 1 0 -1
1532257814844196 -1 -1 0 -3 -2 10 0 0
1532257814882095 1 0 -1 -2 -1 2 -2 -1
1532257814926975 -2 -2 -2 -1 -2 -8 -3 0
1532257814964873 -2 1 -1 -2 -5 -10 -1 -2
1532257814994793 -2 -1 -3 -2 -3 12 1 0
1532257815046655 1 -1 -1 -2 -1 -7 -1 -1
1532257815076575 -1 0 -1 -3 -2 -1 0 -1
1532257815249113 0 1 0 -2 4 10 0 0
1532257815301972 1 -1 -1 3 0 1 -1 0
1532257815384751 -2 -1 0 -4 -2 -2 -2 0
1532257815467529 -2 -3 -3 -4 -11 -2 -1 1
1532257815519391 0 0 0 -2 -3 -6 -1 1
1532257815587209 0 1 0 -1 -1 0 -1 1
1532257815609151 2 2 -1 1 -1 -3 -2 -2
1532257815632089 0 0 0 -2 -3 -4 -2 -1
1532257815655027 -2 0 -3 -4 -5 -2 -1 -1
1532257815669988 0 -3 0 1 0 -3 -3 -4
1532257815699908 -1 -2 -2 -3 0 -1 -2 0
1532257815714867 -2 -1 -4 2 4 3 0 -2
1532257815736820 1 -2 0 -1 -14 -2 -1 1
1532257815766729 -1 0 -2 -2 -2 -4 -1 -2
1532257815789668 -1 -2 -1 -3 -4 -1 -1 1
1532257815811609 -1 -1 -2 -1 -3 -1 -2 -2
1532257815834548 0 0 -2 -2 6 2 0 -1
1532257815864468 -3 -1 -1 -2 0 -2 -2 0
1532257815894388 -1 1 0 -2 6 0 -2 -3
1532257815909348 -2 -2 -1 0 0 -1 1 0
1532257815932287 -2 -1 -2 -1 0 1 0 -1
1532257815969188 -3 1 -3 -1 1 8 0 -3
1532257816001114 1 -3 -2 0 -2 -2 1 -1
1532257816014068 -2 1 0 -1 -4 -4 -1 -1
1532257816029028 -1 -2 0 -1 5 2 0 -2
1532257816066926 -1 0 -1 0 5 0 -3 1
1532257816096847 1 0 -2 -3 -1 -3 -2 -1
1532257816134744 -2 -1 -1 -2 1 4 0 -1
1532257816156686 0 -2 -1 0 -5 -2 -2 0
1532257816186606 0 0 0 1 -11 -2 -2 0
1532257816232483 0 -2 -3 -5 -4 -5 -4 -2
1532257816269398 0 1 -2 -3 -2 0 0 -3

1532257816284345 -3 -2 -1 -4 -5 0 -1 -1
1532257816322244 2 0 0 -2 3 -1 -2 -1
1532257816359146 -1 0 -3 -1 -3 0 -1 -1
1532257816382084 -2 0 0 -1 2 -2 0 -1
1532257816397043 0 0 -2 -4 -5 0 -1 0
1532257816434959 -1 0 -2 -2 -1 0 0 -1
1532257816456901 0 -1 0 -3 3 2 0 0
1532257816486821 -1 -3 -1 1 -2 1 -2 1
1532257816501781 -1 0 1 -2 -2 -1 1 0
1532257816516741 -2 -2 -1 4 4 -3 -3 -1
1532257816546661 -1 -1 0 0 -8 -2 -1 -1
1532257816561621 0 1 -1 0 0 0 -1 -1
1532257816592538 -3 0 -1 2 12 -3 -2 0
1532257816614479 -2 0 -3 -3 -1 -1 -1 -2
1532257816629439 -1 -3 -2 -2 -1 -3 0 -1
1532257816644399 -2 -1 -1 -3 -7 -3 -1 -1
1532257816667338 -2 -1 0 1 1 2 -2 -1
1532257816689280 0 -1 -1 -1 1 -1 0 -1
1532257816712218 -1 -1 -1 1 -2 -2 0 -1
1532257816734159 -1 -2 -1 1 11 2 1 1
1532257816764079 1 -1 0 -1 0 1 -1 -3
1532257816780036 -3 -2 -1 -4 -2 0 1 -1
1532257816809956 -1 -2 0 -3 -3 -4 -3 -2
1532257816839876 -4 -1 -2 -2 -5 -2 -2 -1
1532257816869797 -2 0 -2 -1 -2 -1 -2 -2
1532257816891738 -2 -1 -1 -2 -2 -2 -1 -1
1532257816921690 -1 -1 0 -2 -5 -4 -2 -1
1532257816944628 -4 -3 -3 0 -2 0 0 0
1532257816966570 -2 0 -2 -3 -4 -1 -2 -1
1532257816982601 -1 -1 -1 -4 0 0 0 -2
1532257817004544 -1 -1 0 -1 -2 0 0 -1
1532257817027483 -2 1 -1 -1 -1 -4 -1 -2
1532257817042442 0 0 -1 0 2 0 1 0
1532257817064384 -1 0 -1 -1 0 -1 -1 -3
1532257817087580 -1 -1 0 0 7 0 -2 -1
1532257817109523 -2 -2 1 3 -1 -3 -3 0
1532257817132461 -2 -2 -1 0 -2 -1 2 1
1532257817154403 -1 -2 -1 -1 -5 -3 -2 0
1532257817169374 -1 -1 -2 -1 -2 -3 -1 -1
1532257817192302 -1 1 -1 -2 0 -1 0 -2
1532257817214243 -1 -3 -1 1 0 -1 -2 -1
1532257817237182 -1 0 -1 0 2 -3 0 -1
1532257817252141 -1 -1 -2 -3 -3 -1 -1 -2
1532257817267101 -1 0 -1 0 1 -1 0 0
1532257817290040 -1 -3 -1 2 -2 0 1 -2
1532257817319961 -1 1 0 1 6 -2 0 1
1532257817334926 0 1 0 -2 6 0 -1 -2
1532257817364840 -2 -1 0 -2 -3 0 -3 -1
1532257817379800 0 -2 -2 2 0 -1 0 -1
1532257817394760 0 -3 -1 -2 1 -1 -1 -2
1532257817424680 -2 0 0 -2 -7 -1 -1 0
1532257817446621 -1 -2 -2 -2 -3 -2 -1 -1
1532257817469574 1 1 0 -1 -2 -1 0 -2
1532257817492499 0 -1 -1 -1 -2 -1 1 -1
1532257817507459 -1 0 -3 -1 -2 -1 0 -1
1532257817529439 -2 -1 -2 2 0 -2 -1 0
1532257817552385 0 -2 0 -3 -1 -1 -1 -2
1532257817567337 -1 -1 -1 -1 0 1 1 -2
1532257817589278 -2 -2 -1 -2 -2 0 -3 -2
1532257817604238 -2 -1 0 0 -10 -2 0 -1
1532257817627177 0 -1 0 -2 2 -1 -3 -2
1532257817649118 -1 -2 -1 -2 -1 -2 1 1
1532257817664078 -2 -1 -2 -1 -2 -2 0 0
1532257817687017 -2 -1 -2 0 5 -3 -2 -1
1532257817709956 0 -1 -1 -5 -4 0 -1 -1
1532257817731896 -1 -2 -2 -2 -2 -2 -1 -2
1532257817754836 -1 -1 -2 -3 -3 0 -1 -2
1532257817784756 -2 -1 -1 -2 21 -15 -6 -1
1532257817806697 -1 -1 0 -5 -11 -11 0 -2
1532257817836617 1 -1 2 -12 -49 30 1 1
1532257817851577 0 -1 2 4 1 1 0 0
1532257817874515 -2 -5 -9 0 -5 13 -7 -2
1532257817913412 -1 1 0 5 13 9 -1 -2
1532257817934355 -3 -1 6 -1 57 25 1 -1
1532257817949316 -1 0 -4 -12 1 -21 -7 -3
1532257817972254 -1 -2 -3 -7 11 11 -4 -2
1532257817994195 0 -2 -8 -7 -14 -30 2 1
1532257818009155 -3 -6 -5 -4 -9 1 -4 -1
1532257818047053 -2 2 0 -7 -24 -20 1 -1
1532257818062013 0 0 8 20 14 17 5 1
1532257818114872 -3 -4 -6 10 4 -48 0 -3
1532257818151774 1 -1 0 27 10 16 0 0
1532257818212612 1 -2 -8 -1 -12 30 4 0
1532257818249512 -2 -8 -14 -7 -12 -3 -2 -3
1532257818279433 -2 -3 0 11 11 -30 -20 -7
1532257818317332 2 6 6 2 2 -1 4 2
1532257818377172 1 -2 -1 8 -10 -31 0 1
1532257818474910 0 0 0 9 -4 19 2 0
1532257818556692 1 -3 -3 -7 -18 -18 -10 -3
1532257818594590 0 0 0 -1 -10 6 3 -4
1532257818632489 -2 -8 11 5 15 9 -5 -3
1532257818654430 6 6 2 10 12 22 5 1
1532257818669390 -7 2 4 -5 -3 -12 7 1
1532257818699310 -8 -6 -3 0 -7 -23 -13 -10
1532257818722249 6 -1 -3 1 27 -31 7 2
1532257818744190 -8 -2 -8 -10 3 27 9 -2
1532257818782089 2 -16 -29 -4 9 16 -2 5
1532257818797049 -5 0 8 1 13 -4 -2 3
1532257818819993 1 5 1 17 12 52 -8 -1
1532257818834947 -16 6 16 12 4 18 3 -1
1532257818856889 0 -6 7 24 -9 -21 0 3
1532257818894787 -27 -40 -36 -1 19 13 -6 -16
1532257818916728 4 2 18 -2 11 -20 0 2
1532257818946649 4 4 -5 -26 25 35 -4 -3
1532257818984547 -31 -15 -4 -21 -14 -53 -12 -9
1532257818999507 62 16 15 3 -23 -41 24 6
1532257819044387 3 1 -8 -5 15 28 4 0
1532257819082286 -6 -5 -2 -1 -16 -66 -19 3
1532257819097246 -1 -3 -4 4 3 -5 25 -3
1532257819149107 4 -5 -5 -1 -9 -12 4 1
1532257819172046 3 -1 2 3 13 38 13 0
1532257819209944 0 1 -3 3 53 58 25 5
1532257819246846 2 4 -16 -7 -13 -10 -24 -6
1532257819276766 8 -3 -4 -5 -2 -38 6 0
1532257819314664 -1 -2 4 2 12 -51 8 0
1532257819336606 -25 1 3 -2 -13 -3 -2 -3
1532257819382483 7 -1 7 4 7 22 1 2
1532257819397443 -5 4 -9 -2 -2 4 4 -3
1532257819427363 26 -13 -16 -3 7 16 -8 -8
1532257819464264 -6 -1 3 -9 -8 33 2 -2
1532257819487203 -6 -6 -8 -3 -8 2 3 -4
1532257819502175 11 4 1 -1 0 -33 -6 2
1532257819541075 18 0 1 3 12 4 16 5
1532257819615859 11 -1 -2 -3 3 -8 -9 -1
1532257819629822 -20 1 2 -2 -12 -17 -18 -4
1532257819666723 -14 -7 -2 -2 -7 -14 -13 -18
1532257819719583 7 0 2 -2 -4 9 -11 -2
1532257819742520 0 1 1 -2 -1 -9 -1 -1
1532257819757481 13 4 -1 -2 -3 -1 -6 -6
1532257819809341 17 1 -4 -6 -15 -56 -30 -6
1532257819869182 -33 -1 1 0 -3 -48 -14 -23
1532257819922040 4 3 3 2 5 20 10 8
1532257819937997 3 -2 -4 -2 -1 42 9 7
1532257819981880 -4 -6 -6 -2 6 10 14 -1
1532257819996840 19 -8 -2 1 -1 20 8 0
1532257820049699 4 3 1 0 6 31 -2 13
1532257820102558 12 2 -4 -5 -12 -37 -24 -12
1532257820132477 -1 -4 -6 -4 5 -9 -5 -11
1532257820162398 -13 5 -11 2 13 16 -1 -19
1532257820192318 -12 -1 19 -1 -8 14 -13 4
1532257820274099 -39 30 59 -7 -17 -66 17 42
1532257820311997 -40 -5 2 5 -22 1 -13 -23
1532257820446638 0 -8 -6 -1 13 18 6 0
1532257820559336 4 -5 -1 -1 0 -2 -1 1
1532257820597235 1 -1 0 -1 -1 25 4 1
1532257820642115 2 3 5 0 -4 25 -3 3
1532257820686995 0 -7 -11 -6 -2 -5 0 3
1532257820701955 5 12 9 26 21 53 12 1
1532257820731875 -2 -14 -17 4 12 -12 -12 -2
1532257820746835 -1 6 5 -3 8 34 4 0
1532257820784733 0 4 4 -4 -2 -7 -2 -1
1532257820806675 0 -3 -2 -10 -17 -5 1 -2
1532257820852560 -1 -2 -6 -4 -5 -22 2 -2
1532257820874493 0 -1 0 2 5 -1 -2 -1
1532257820927351 3 0 -3 0 12 5 1 -1
1532257820964253 -2 -2 -1 -3 -1 5 -3 -2
1532257820994173 -1 -3 -4 -4 -5 -7 -3 -3
1532257821032072 0 1 -2 0 -2 -7 -1 -3
1532257821061992 -2 -1 -3 -1 -3 -2 0 0
1532257821106872 -3 -2 1 -1 5 16 3 0
1532257821121833 2 0 -2 -2 5 11 -1 0
1532257821151752 -1 0 0 -1 -6 0 -2 0
1532257821166714 1 0 -1 -2 -6 -7 -1 -1
1532257821220569 -1 -1 -3 0 -2 -5 -1 0
1532257821242512 -2 0 -1 0 -4 -2 -1 -3
1532257821264451 -1 1 -3 -1 0 -5 -2 0
1532257821294371 -1 -2 0 1 -2 -4 -2 -1
1532257821347229 -3 -3 -1 -2 0 -1 0 0
1532257821384130 -1 -1 -1 -2 -5 -5 -2 0
1532257821407069 -1 -2 -3 -3 -1 -3 0 0
1532257821444967 0 -1 0 0 -3 -3 1 -1
1532257821466909 0 -1 -1 -1 -2 -1 -2 0
1532257821504807 0 -1 0 -2 -2 1 1 0
1532257821541709 -2 -3 -2 -2 1 1 -2 -1
1532257821594568 2 -1 -1 1 -1 -4 0 0
1532257821647426 0 -1 0 -1 -2 0 -2 -3
1532257821677347 0 -1 -2 -2 0 0 1 -2
1532257821737187 -1 0 -1 0 -2 0 0 -2
1532257821819967 -1 0 -1 -2 0 -2 0 -1
1532257821841906 -1 -2 1 -1 1 -1 -2 0
1532257821886786 -1 -2 0 -2 0 -2 -1 0
1532257821924685 0 -1 -1 0 0 -1 -1 1
1532257821961586 -2 -1 -1 -1 -2 0 -1 -1
1532257821992504 -2 -1 -3 -1 0 -1 -1 -1
1532257822014445 0 0 -2 -1 -1 0 0 0
1532257822029405 1 -1 0 0 -2 1 -1 0
1532257822044365 1 0 0 -1 -1 -1 0 0
1532257822074286 -1 -1 -1 -2 2 1 -1 -1
1532257822097223 -2 1 -1 -1 -4 -1 -2 -1
1532257822112184 0 -2 -1 -1 -1 -2 0 -1
1532257822134125 -3 -1 1 -2 -1 -1 -1 -3
1532257822157064 -2 0 -1 -1 -1 -1 -2 -1
1532257822186984 0 0 -1 1 -1 -1 0 -2
1532257822224882 -1 0 -2 -1 -1 -3 -1 -1
1532257822246824 0 0 -2 -3 0 -2 0 -2
1532257822291704 1 -1 1 -1 -2 0 0 -1
1532257822306664 0 -1 -1 -3 -2 0 -1 -1
1532257822352541 -1 -1 -2 -2 -1 -1 0 -2
1532257822374482 -2 -1 -3 -1 -2 -2 0 -1
1532257822412380 -1 0 -2 -1 -1 -1 0 -3
1532257822434321 -1 -1 -1 0 0 1 -2 -3
1532257822464242 0 -2 -2 -2 0 0 -2 0
1532257822494163 1 -2 0 0 -1 -1 -1 0
1532257822509137 -1 -1 -1 -3 -1 -1 0 0
1532257822524083 -3 -1 0 0 -1 -3 -3 -2
1532257822555000 0 -2 -1 -1 0 1 1 -2
1532257822569960 -1 0 0 -2 1 0 -2 0
1532257822599880 -1 0 0 0 -2 -1 -2 -1
1532257822629800 -1 1 -2 0 0 -3 -2 -1
1532257822645765 0 -1 0 -2 0 0 0 -1
1532257822666701 -2 0 -2 -2 0 -1 -1 0
1532257822711581 -1 -1 -2 1 0 -1 -1 -2
1532257822727538 0 -2 -1 -2 -3 0 -1 -2
1532257822764439 -3 0 -1 -2 -1 -1 0 -2
1532257822779399 -1 -1 -2 -1 -2 -1 -2 1
1532257822809320 0 -1 -1 1 0 -1 0 0
1532257822832258 -1 -3 0 0 -2 -3 -2 -1
1532257822847218 -2 -1 -2 -1 -1 0 -2 -1
1532257822869175 0 0 -1 0 -1 -1 -1 -2
1532257822884120 -1 -2 0 -1 -2 -1 -1 0
1532257822915037 -2 -3 -2 0 -1 0 -2 -1
1532257822944964 -1 -1 0 -1 -1 -2 -1 -1
1532257822974877 1 -1 -1 -1 -1 1 1 -3
1532257822996818 -1 -2 -2 -1 -1 -1 -1 0

1532257823019757 -3 0 -1 -1 1 -1 1 -2
1532257823034717 0 -2 -2 -1 -1 -2 -1 -1
1532257823056658 -1 0 0 -2 -1 -1 -2 0
1532257823087575 -2 -2 -2 0 1 0 -1 -1
1532257823131723 -1 -1 -1 -1 -1 -2 -1 0
1532257823146683 -2 -1 -2 0 -2 0 -1 -3
1532257823161643 0 -1 -1 -2 -2 0 -2 -2
1532257823184581 3 2 -1 -2 -2 0 -2 -1
1532257823199542 0 -1 -1 0 -1 1 -1 -1
1532257823222481 0 -1 -1 -1 -2 -2 -4 0
1532257823244598 -2 1 0 -1 -2 -3 1 -1
1532257823259557 -1 0 -1 -1 -2 -2 -1 -2
1532257823282496 1 -1 -2 -2 -1 -3 0 0
1532257823304436 -1 -1 -1 -4 -2 -2 -4 -1
1532257823319412 -1 -3 -1 -1 1 -2 1 -1
1532257823342336 -2 -1 0 -1 0 -1 -2 -1
1532257823364277 -3 1 -3 -3 -1 -1 1 -2
1532257823379237 -2 0 -1 0 -1 -2 -1 -1
1532257823409157 -1 -2 -2 -1 -1 -1 0 1
1532257823432096 -2 -1 -1 0 -1 -2 -3 -3
1532257823448053 -2 -1 0 -1 -2 -2 -1 -2
1532257823476989 -2 -3 0 0 -1 0 1 1
1532257823491936 -2 -1 -2 0 -1 1 0 0
1532257823514874 -2 -1 -1 -1 -2 -4 -3 -2
1532257823529834 1 -1 -2 -1 0 1 1 0
1532257823544794 -2 -1 -1 0 -2 -4 -1 0
1532257823559755 -1 -1 1 -1 0 0 -1 -2
1532257823581696 -1 1 -1 -1 -1 -1 -2 -3
1532257823604721 0 -1 -1 -2 -2 1 0 -1
1532257823619681 -1 -3 -2 -2 -1 -1 -2 -4
1532257823641622 -2 0 -2 2 -3 -1 0 0
1532257823664560 0 0 -1 -2 -1 -2 1 -2
1532257823687498 0 -1 -2 -2 -1 0 -1 0
1532257823717419 -1 -2 -1 0 0 -2 -1 -1
1532257823739567 0 -1 -1 -1 -4 -2 -1 -1
1532257823762505 -2 -3 -1 0 -2 1 -2 -1
1532257823777466 -2 -1 -1 -2 1 -3 -2 -1
1532257823814366 -1 0 -2 -1 -3 -1 0 -1
1532257823829327 -2 -1 -2 -1 -1 1 -1 0
1532257823852265 -1 1 -2 0 0 0 -1 -1
1532257823867226 0 -2 -1 -1 -1 -1 -1 0
1532257823882186 0 -3 -3 -1 -1 -1 -2 1
1532257823919840 -1 -1 0 -2 -2 -1 -1 -1
1532257823941772 0 0 -2 -2 -3 -1 -1 -2
1532257823964711 -2 -3 -1 -2 -1 -2 -1 0
1532257823994631 -1 0 0 -3 0 -1 -1 -2
1532257824009591 -1 -1 -2 -1 1 -2 -1 -1
1532257824024550 -1 -1 0 -2 -2 -2 0 -2
1532257824047489 0 -1 -1 3 5 5 -3 -1
1532257824062449 -1 -1 -3 -4 -11 -50 -3 0
1532257824092369 -1 -1 1 2 0 2 0 0
1532257824114310 -2 -2 0 -1 8 22 4 -1
1532257824129271 2 2 6 9 11 -12 -2 2
1532257824144231 -2 -4 -6 -10 -2 -9 -1 -1
1532257824167169 -2 -3 -7 -9 3 25 0 -2
1532257824204071 1 2 5 13 7 -18 -1 3
1532257824227009 0 -2 -5 -8 3 0 6 0
1532257824264908 2 1 3 5 7 -2 -4 -2
1532257824286849 -1 2 3 3 -23 17 2 -1
1532257824301813 -1 -1 1 -1 9 -25 1 0
1532257824331729 0 1 1 -3 -5 -11 -1 -1
1532257824354668 -1 0 1 4 -18 -41 -8 -2
1532257824369633 -2 -2 3 6 -33 -36 -5 -2
1532257824392582 3 6 22 18 7 -13 0 0
1532257824407526 0 1 17 -8 12 21 -4 -2
1532257824467367 -3 -6 -6 -8 15 80 6 -3
1532257824512246 -5 -15 -12 -10 11 22 -13 -8
1532257824534188 -1 2 1 11 8 -8 -1 0
1532257824602006 -2 8 -3 -2 -7 -2 -2 0
1532257824646886 -1 2 -3 2 -14 -31 -12 -4
1532257824691766 -4 -4 -1 -5 3 21 -6 -4
1532257824789505 -1 -2 -9 -5 -7 -9 3 0
1532257824827404 -8 14 15 6 6 -2 -2 0
1532257824857324 5 8 -8 -8 -2 -8 5 1
1532257824902204 3 -7 2 1 5 18 5 1
1532257824917163 -2 -2 0 -2 1 -22 -14 -7
1532257824939105 1 -1 -2 -6 5 46 -10 -4
1532257824977003 2 0 -2 2 4 -8 1 3
1532257824991963 -2 7 3 -1 -2 29 -3 -2
1532257825006924 -1 5 -3 4 -22 -15 6 3
1532257825029862 16 80 32 6 14 20 6 -1
1532257825059782 -8 -27 -4 -6 -14 -7 -10 -3
1532257825104662 -1 -22 5 -4 -15 -13 3 -6
1532257825119622 -4 -10 17 8 21 34 3 0
1532257825134582 -3 -9 10 4 0 -8 -1 -6
1532257825164501 -2 3 -8 -7 -10 13 -5 -1
1532257825187441 0 -9 9 -3 -5 -15 -7 -1
1532257825217361 1 -8 -3 2 4 10 -13 -3
1532257825239302 1 2 0 -10 7 28 2 -1
1532257825277201 -19 5 25 -7 7 22 -11 -7
1532257825322081 0 -1 -9 -13 -14 -45 3 0
1532257825359979 3 -1 11 25 19 21 13 4
1532257825374939 -2 -9 -23 -17 -13 -8 1 0
1532257825441761 -2 -5 7 -7 5 17 -2 -2
1532257825471681 -5 1 2 -4 3 -2 -9 -3
1532257825494619 -3 12 -1 5 56 0 49 -18
1532257825592358 -6 -6 -3 -12 29 21 -27 0
1532257825608315 -1 -7 -1 -3 4 0 -28 -3
1532257825674139 1 -1 0 -2 -1 7 -1 1
1532257825697078 -1 -2 -2 -5 -15 28 -19 -1
1532257825771878 -1 -3 -1 0 1 -9 -6 -1
1532257825824737 -6 0 -1 -4 0 -5 0 0
1532257825846677 -1 -2 0 1 3 8 4 -1
1532257825869617 -12 -2 -1 1 5 -7 6 -3
1532257825907516 5 0 1 -2 -8 -7 1 -3
1532257825945414 -3 3 -1 1 6 23 7 0
1532257825967355 -19 0 0 -1 1 2 -3 -5
1532257826019216 1 2 -2 -1 -3 -44 -3 -1
1532257826042155 2 -1 0 -1 8 50 -1 -3
1532257826109974 -33 -7 -4 -2 -1 6 -4 -19
1532257826146874 -27 4 4 3 3 20 2 -16
1532257826169814 0 0 4 0 0 -2 -1 -12
1532257826214694 39 -3 0 4 11 10 11 20
1532257826267560 -1 9 4 -1 -11 -54 -12 -7
1532257826313430 56 3 -2 -3 -6 -25 -4 10
1532257826387233 -23 0 1 -2 2 8 -1 -10
1532257826424133 0 2 -2 -2 -4 -26 2 -6
1532257826439094 -10 -4 -3 -4 -9 22 -5 -2
1532257826470011 -25 2 0 0 0 -18 -6 -8
1532257826552790 1 -1 1 3 -5 -22 4 7
1532257826642563 -1 -5 -5 -4 12 45 -5 -6
1532257826717349 11 -4 -3 0 7 -32 -3 -2
1532257826919809 13 14 14 5 7 4 17 5
1532257826964689 -9 8 6 4 -3 -8 -11 -7
1532257827078384 -7 -11 -13 -24 -4 -58 -9 -5
1532257827092347 12 16 9 17 25 -8 -2 7
1532257827122267 3 5 0 3 -3 1 1 -1
1532257827167147 -2 -5 -6 1 12 20 -2 -3
1532257827197066 -1 -4 -3 -11 -12 2 -1 -2
1532257827220006 3 7 3 -2 -2 1 1 -1
1532257827243942 -1 -3 1 1 0 14 2 -1
1532257827264886 -2 -3 -2 0 3 2 -1 0
1532257827301787 0 1 -3 1 -7 -17 -1 -2
1532257827324726 0 2 2 0 -9 9 0 1
1532257827369606 1 0 0 -2 -6 -14 -3 0
1532257827392544 -1 -2 -3 -1 -3 -6 1 -1
1532257827422464 -1 -2 -2 -1 -2 -4 -2 -1
1532257827452386 0 -2 -1 -2 -5 -2 -2 -1
1532257827497264 -2 -1 -2 -3 -2 0 -2 -3
1532257827519205 -1 -1 0 0 -1 1 0 -1
1532257827580043 -3 -1 0 0 3 2 -2 -1
1532257827631904 -1 -1 0 -1 32 17 2 -1
1532257827669803 0 0 2 1 -5 -9 -3 -2
1532257827691744 0 -1 -1 -2 -9 -1 -1 -1
1532257827736624 1 -2 -4 -3 -14 -9 -3 0
1532257827759563 -1 -2 -1 -1 -2 -7 -2 -2
1532257827804443 -2 -3 -1 -1 -1 0 -2 0
1532257827857302 -2 0 -1 -1 4 -8 -2 0
1532257827902186 -1 -1 1 0 -2 -32 -2 -2
1532257827924123 0 2 -2 0 2 15 -1 0
1532257827976981 -3 -2 -1 -1 0 15 1 -1
1532257827999920 0 -2 -1 -2 0 -1 -1 -3
1532257828051792 -1 -3 0 0 11 -1 -2 0
1532257828081701 1 1 -1 -3 -42 -15 -1 0
1532257828104640 -2 -2 -1 2 14 9 1 -1
1532257828142538 0 -1 -3 -1 3 -15 0 -3
1532257828179439 0 0 0 -2 0 -3 0 1
1532257828292138 -2 -1 -3 0 3 0 -1 -2
1532257828351979 -2 -3 -2 1 0 -4 1 0
1532257828389877 0 -1 0 -1 -5 -10 -3 -2
1532257828411818 -1 -1 -1 -2 -5 -4 -2 -1
1532257828449717 0 0 0 2 18 8 -1 -1
1532257828471658 -1 -3 0 -2 -1 -8 -2 0
1532257828532496 -3 -2 -1 -3 -4 0 0 -1
1532257828607296 0 1 -1 -1 -3 13 1 -3
1532257828644197 -1 -1 1 1 6 -5 -1 -1
1532257828682096 -1 -2 -1 -2 -5 9 -1 -3
1532257828712016 0 -1 0 -1 -7 -11 0 0
1532257828756896 0 0 -2 -1 -1 -5 0 2
1532257828809755 -2 -1 -1 -1 0 0 -2 0
1532257828839674 0 -2 -3 0 -3 -6 -1 -2
1532257828899515 -3 -3 -1 -1 -2 -5 -4 -1
1532257828974315 0 0 1 0 0 -2 -1 -1
1532257829050112 -2 -3 0 1 2 2 -3 -1
1532257829251573 0 -1 0 0 -1 -1 -2 0
1532257829282490 -2 -1 -2 -1 -1 0 0 0
1532257829312410 -2 -1 -3 0 -1 -5 0 -2
1532257829342330 -1 -1 -2 -2 -1 2 -1 -1
1532257829387211 -2 -1 0 -1 0 -9 -2 -3
1532257829402170 -1 -1 0 0 0 -6 -2 0
1532257829455028 -3 0 -2 -1 -1 5 -2 -1
1532257829491930 0 -3 -3 -1 -1 -5 0 1

1532257829551789 -2 -1 -3 -1 1 -2 -2 -2
1532257829619607 -3 0 0 -2 -1 -2 0 -1
1532257829642534 0 -3 -2 -1 -1 -6 -1 -1
1532257829672493 0 -1 0 1 0 -3 -1 -2
1532257829687453 -1 0 -1 0 -1 0 0 1
1532257829717373 -1 -1 -1 -4 -2 -3 -2 -1
1532257829747293 0 -2 -2 -1 0 4 -1 0
1532257829769234 -1 -2 -2 -2 -1 -3 -2 -2
1532257829792173 -1 -2 0 1 0 0 -2 -2
1532257829822094 -1 -2 2 -2 -2 -1 -2 -2
1532257829875950 0 -1 0 -1 0 -3 0 -1
1532257829904872 -1 -1 -2 1 0 0 -2 0
1532257829926819 -1 -2 -1 -2 -2 -2 -2 -1
1532257829949758 -1 -1 -1 -1 -2 -1 -2 1
1532257829971706 -1 -1 -1 0 -1 -1 0 -1
1532257829986667 -1 -1 -1 0 -1 0 -1 -1
1532257830009605 -2 -2 -3 -2 -2 -2 -1 -1
1532257830024565 -1 0 1 -1 -1 0 0 -1
1532257830047504 -2 -1 -3 -2 -2 0 -1 -1
1532257830062464 -2 -1 0 -1 -2 -2 0 -1
1532257830084405 0 -2 -3 0 0 -2 -2 0
1532257830114325 -1 0 -2 -1 -2 -2 -1 -2
1532257830144244 0 -3 -2 0 0 -1 -1 -3
1532257830174165 1 0 -1 -2 -1 -1 -1 -3
1532257830197142 -3 -2 -3 -1 1 -2 -1 0
1532257830219083 0 -1 -2 -1 -2 0 -2 0
1532257830242021 -3 0 -3 -1 -1 -2 -2 -2
1532257830256982 -2 -1 0 0 0 -1 -1 -2
1532257830279920 2 -1 0 -1 -2 -1 0 -1
1532257830309840 0 -2 -1 -2 2 0 -1 -2
1532257830339760 -3 -1 0 -2 -2 -2 -2 -2
1532257830354720 1 -2 0 0 -2 -1 -1 -1
1532257830414561 -2 0 0 0 -1 -1 1 -3
1532257830429520 -2 -1 -3 1 1 -1 -2 -2
1532257830467419 -1 1 -1 -2 -2 0 -2 1
1532257830489360 -3 -2 -1 -2 -1 -3 -1 -1
1532257830512299 0 -1 0 -2 -2 -2 -3 -1
1532257830534240 -1 -1 -2 0 -1 -1 0 1
1532257830557179 -1 -1 -2 -3 0 -1 -1 -2
1532257830572139 -1 1 -3 1 0 0 1 -1
1532257830587099 1 0 -2 -1 -1 0 -1 1
1532257830602059 -1 -1 -1 0 0 0 -1 -1
1532257830631979 -1 0 0 -1 0 0 -1 0
1532257830647936 0 -2 -1 0 -1 -1 -1 -1
1532257830676859 0 -2 -1 -2 0 -2 -1 0
1532257830715762 -2 -1 0 0 0 -1 1 -1
1532257830774597 -1 0 -2 -2 0 0 -1 -1
1532257830804518 -1 -3 0 -2 -2 -2 -3 -1
1532257830842567 1 0 -1 -2 -5 -1 -3 1
1532257830872487 0 -1 -1 7 14 -13 -6 -2
1532257830894428 -1 -2 -2 -8 1 -1 0 -1
1532257830917366 -1 -2 -1 -10 -22 -12 0 -1
1532257830932327 2 0 -1 10 2 2 4 0
1532257830954268 -5 -3 0 14 7 15 1 1
1532257830984189 -3 -2 -5 -10 -12 13 0 -2
1532257830999148 1 -2 -3 -8 -14 -16 0 -1
1532257831014108 -1 0 -2 -1 -24 -33 -4 0
1532257831045026 1 1 4 -2 -5 7 -1 1
1532257831081927 -1 0 1 -7 1 9 -2 -1
1532257831104866 1 -3 -5 -13 -1 4 -1 -2
1532257831149745 -1 2 -3 -3 -9 5 0 -1
1532257831194639 -2 -4 -6 -6 -6 -5 -2 -2
1532257831247484 -1 0 3 21 9 5 -1 0
1532257831269426 -1 -7 -10 -1 -11 -39 -8 -3
1532257831307324 0 2 1 25 -23 10 2 1
1532257831374146 2 2 4 9 1 -35 -6 -2
1532257831420022 0 -2 7 -1 -12 17 2 0
1532257831546684 -1 2 6 0 4 10 -1 -1
1532257831652401 -2 -3 -17 -11 -1 -2 2 1
1532257831727201 -4 -5 -25 4 -47 -51 -1 -1
1532257831764103 2 0 -1 12 13 0 -10 -5
1532257831824940 -8 -5 0 1 16 1 -1 -2
1532257831854860 10 1 -8 -1 6 2 -3 -2
1532257831869820 -4 0 -3 -8 5 3 0 -2
1532257831906721 1 -4 0 0 -2 -17 0 -4
1532257831929659 9 2 1 5 3 6 -5 6
1532257831974540 -3 -5 -1 -9 -29 -24 -5 -3
1532257831989500 0 -5 -11 -5 -11 -13 7 2
1532257832012440 8 3 5 9 21 35 15 5
1532257832042359 2 6 7 -6 18 -17 -8 -2
1532257832066294 3 -2 -6 2 10 -49 5 2
1532257832094220 -13 -4 1 -3 3 4 3 -1
1532257832176999 1 -6 7 -3 2 7 -16 -5
1532257832214897 4 2 4 18 13 85 6 2
1532257832229857 4 7 37 30 -14 -26 -18 -1
1532257832266759 -22 4 14 -6 -22 -16 -3 -5
1532257832432316 0 0 0 9 13 17 11 3
1532257832462236 1 2 2 -6 7 -22 1 -1
1532257832492156 -6 -5 -6 -14 5 -23 -15 0
1532257832522076 -4 0 -1 -7 -9 24 6 -3
1532257832537036 0 -2 0 3 -17 -32 -3 1
1532257832635790 -7 1 -2 -7 -10 -51 -19 -3
1532257832649735 -3 1 0 3 3 18 4 1
1532257832679654 0 -2 0 2 3 2 2 0
1532257832701596 14 -8 -3 -4 -4 19 3 -6
1532257832717555 6 1 -1 -4 -5 -33 -1 1
1532257832747473 -8 -2 -1 -1 5 10 8 -2
1532257832784374 8 -1 0 1 6 27 1 6
1532257832807314 -11 2 -1 0 4 19 -5 -3
1532257832874134 47 4 -1 0 2 36 0 -4
1532257832912032 -48 -4 0 -5 -20 -8 -9 -6
1532257832979852 -10 -3 -5 -3 -10 -26 12 -3
1532257833046673 -7 0 -2 -2 -9 -27 -18 -1
1532257833069612 9 -1 -1 -1 -13 -19 -5 10
1532257833107510 -19 3 1 1 12 -1 4 -4
1532257833122470 20 3 -1 0 -4 -5 -2 6
1532257833144411 -31 -6 -1 -1 -3 2 -2 -26
1532257833182310 51 10 0 -1 -5 -42 4 12
1532257833236167 9 -2 -3 -2 -4 -2 -5 3
1532257833249132 0 -10 -5 -4 2 16 -2 -9
1532257833264092 5 1 -2 -3 1 -41 -5 -12
1532257833295009 -27 -3 1 0 12 76 9 -3
1532257833324929 -7 -4 -4 -2 1 5 -1 5
1532257833399729 7 5 1 0 -5 -17 3 -23
1532257833655045 -25 6 -24 7 7 -34 127 -5
1532257833759766 -2 -11 -15 1 30 -14 -25 -10
1532257833872465 -31 -3 -1 0 -2 32 -2 -9
1532257833924326 -32 7 -7 -1 3 20 1 -11
1532257833969216 7 -2 -1 -1 0 4 6 9
1532257834037025 3 -5 -7 0 -1 1 -2 5
1532257834059969 22 3 1 -2 -3 -2 -1 7
1532257834081905 -6 -5 -2 -2 -1 1 0 -3
1532257834104843 -1 5 3 1 -1 1 6 -6
1532257834119803 -8 -1 4 0 2 -1 2 -6
1532257834141745 -8 -2 1 0 1 6 -4 -15
1532257834179643 -1 0 4 -1 0 2 4 -4
1532257834209564 2 -5 -2 -1 0 4 -1 7
1532257834232502 -14 -9 -1 -2 -1 -9 10 -2
1532257834247461 15 -4 1 0 0 13 -8 6
1532257834277382 -1 2 0 -1 -3 -8 -5 -1
1532257834299323 -3 0 -2 -1 0 -6 -2 -3
1532257834344204 1 0 0 0 -1 7 -1 -4
1532257834367143 2 0 -1 -2 -2 -8 -4 0
1532257834397062 -2 -1 -2 0 -2 -1 -3 -2
1532257834426982 -2 -1 -2 0 -1 -7 -6 -2
1532257834471862 -5 -1 -4 -2 0 2 -2 -1
1532257834509761 -1 -3 -4 1 1 -1 -2 -2
1532257834539680 0 -2 -1 -3 0 -8 -3 2
1532257834569601 -1 -1 0 -1 -2 0 -3 0
1532257834584561 3 -1 0 2 2 -1 0 -1
1532257834622460 19 -1 0 0 0 -4 -1 25
1532257834644401 -6 -3 -1 1 -3 0 -1 -4
1532257834682308 -2 -2 -2 -3 1 -3 -1 -5
1532257834719201 -2 0 0 -3 -2 -1 -1 -3
1532257834757099 1 -1 -2 -1 -2 1 0 2
1532257834809958 -2 0 -3 -2 0 -1 -1 -1
1532257834839878 -8 0 1 1 2 -6 0 -3
1532257834884757 1 1 -1 -2 -2 -2 0 -3
1532257834944598 -6 -2 0 -2 -2 -3 -3 -4
1532257834989478 3 -4 -2 -3 -1 -4 -5 -4
1532257835012416 -3 -1 -2 -2 -2 0 -2 -3
1532257835042336 -1 1 0 1 -2 -27 -3 1
1532257835064278 3 -4 -2 -2 -2 7 1 -1
1532257835117136 0 -2 -1 -3 -3 3 -1 1
1532257835169995 -1 0 0 -1 1 -5 1 1
1532257835199914 -3 1 0 -1 -4 -7 0 1
1532257835214875 -1 -1 -3 0 -2 0 -2 -1
1532257835244795 -6 0 -2 0 3 7 2 2
1532257835281696 2 -1 -1 -2 1 6 3 3
1532257835304636 2 -2 0 -2 -1 -14 0 0
1532257835357494 2 0 -2 2 1 -1 1 -1
1532257835409355 5 0 0 -1 2 2 -3 -1
1532257835469195 -1 -2 -1 0 3 8 3 2
1532257835499114 0 -3 0 -3 -4 -5 0 -1
1532257835529035 2 -2 -3 0 -1 -3 -3 1
1532257835551973 -1 -1 -1 -2 -1 -4 1 0
1532257835596853 -1 -2 -3 -2 -6 -23 -10 -5
1532257835634752 -2 -2 -2 0 -2 -9 -3 0
1532257835784352 -2 -2 1 -2 0 11 2 -1
1532257835799312 4 -1 -2 0 -3 -11 -12 -4
1532257835844192 -2 -1 -1 2 -2 -5 -4 -2
1532257835882090 -2 2 -2 -2 -1 4 -2 0
1532257835905030 -14 0 1 0 1 -9 -2 -7
1532257835949910 3 1 -3 -3 -1 1 2 0
1532257835971857 2 -4 0 -1 0 7 -1 0
1532257836039670 -1 -2 -3 -1 -3 -3 -3 1
1532257836069590 1 -1 -2 -4 1 3 -2 -1
1532257836092536 -1 -1 -1 0 -1 -4 1 2
1532257836122448 -3 -1 -2 -1 0 -1 -3 -2
1532257836161344 -2 -3 1 0 0 0 -1 -2
1532257836234149 2 0 -3 -3 -4 -1 -3 -1
1532257836331888 0 -3 0 1 2 5 2 0

1532257836406688 -1 -1 -1 -2 -3 -5 -4 5
1532257836482485 -1 -1 -2 -1 0 -7 -6 -1
1532257836504426 -4 -2 -2 -3 1 6 1 -4
1532257836542325 -3 -1 -4 1 -1 14 0 -1
1532257836564267 0 1 -2 0 1 -2 0 0
1532257836587205 1 -3 -1 2 0 2 0 2
1532257836602165 2 -2 0 0 1 -3 0 2
1532257836624106 -2 2 0 0 -2 0 -2 -3
1532257836640064 -3 -3 -2 -2 -2 -2 -4 -1
1532257836655034 -4 -2 -3 -3 -3 4 -2 0
1532257836676965 1 -1 0 0 -3 -9 -3 -2
1532257836699903 -1 -1 0 -3 1 -10 0 0
1532257836714864 9 -3 -2 -1 0 -1 -1 -1
1532257836745781 6 -5 -2 0 1 -3 -1 -5
1532257836759744 -21 3 -1 -3 -3 -2 -5 0
1532257836774704 -18 -2 -1 0 2 20 2 -4
1532257836796645 3 1 1 -3 -6 4 -4 -1
1532257836819585 11 -1 -1 -2 -3 9 1 0
1532257836842523 0 1 -1 -1 -2 -2 0 -1
1532257836872443 2 0 -1 -2 -2 -2 -1 0
1532257836902363 -2 0 -3 1 -3 -2 1 -3
1532257836932283 0 1 0 -4 -3 5 1 -5
1532257836962203 -10 -2 1 -1 -3 -8 -2 0
1532257836992122 7 3 -1 -2 -2 0 -4 -1
1532257837015060 -6 -2 -1 -4 -1 -5 -3 2
1532257837030021 1 -1 -2 -1 -2 -8 -1 0
1532257837044981 15 0 1 -2 -1 0 -2 7
1532257837074901 -14 -1 -2 0 -2 1 1 -4
1532257837089861 2 1 -2 -1 1 -4 2 1
1532257837119781 0 0 -1 -2 1 -7 -6 -5
1532257837141723 -1 -1 0 0 -2 5 -6 -1
1532257837164661 -8 -1 -3 -2 0 -7 -1 2
1532257837179621 -3 0 -2 -2 0 -3 1 4
1532257837209541 3 -1 0 1 -1 -4 1 1
1532257837224501 -3 -3 0 0 0 -6 -3 0
1532257837247440 6 -1 -1 0 0 -5 -6 2
1532257837269398 3 0 -1 0 0 -1 0 -2
1532257837299302 0 0 1 -3 0 -2 0 -3
1532257837329221 -1 -1 0 0 1 1 2 -2
1532257837344181 0 -1 -1 -1 -2 3 0 0
1532257837382080 -3 0 -1 0 -1 1 -3 -3
1532257837412000 0 -1 -2 -2 -1 2 -3 -1
1532257837441920 2 -3 -2 0 -2 -4 1 -2
1532257837464858 -1 -1 -1 -1 -1 3 1 1
1532257837501759 -12 2 -3 -3 -4 -31 -12 -8
1532257837539658 8 -3 -1 0 0 4 -3 -1
1532257837584544 3 0 0 1 1 1 1 -1
1532257837599505 -8 0 -1 0 0 -3 0 -4
1532257837614464 -3 -2 -2 -2 -3 1 0 -1
1532257837644385 -4 -2 -1 -1 0 -8 3 -2
1532257837667323 10 -3 -1 1 -2 5 -1 4
1532257837697243 -9 -2 -1 -2 0 -3 -1 1
1532257837727164 0 -1 -1 -1 1 1 -3 -3
1532257837757107 -1 1 -1 1 0 7 0 -1
1532257837780021 -6 -1 -2 -1 -2 -3 -4 0
1532257837816924 -4 -4 -2 -5 -4 -6 -4 -3
1532257837831883 -1 4 -1 2 -1 -5 -4 -2
1532257837846843 -3 -3 -5 7 -3 -3 1 1
1532257837891723 0 12 21 -1 6 6 3 0
1532257837906683 -2 6 13 17 -1 -9 -2 -1
1532257837952560 2 9 5 0 -5 -33 -3 -2
1532257837967520 -1 -13 4 -9 -8 -14 -7 -6
1532257838042321 -4 -3 0 -4 -3 14 -2 -2
1532257838057281 -2 -4 3 8 -3 -18 -3 -1
1532257838132081 0 8 21 52 11 -86 -6 -3
1532257838191920 -1 -3 -10 -28 -23 11 2 2
1532257838274699 1 -2 -7 -19 -9 -15 4 1
1532257838319579 -5 -7 -22 -26 14 1 1 -1
1532257838462197 -5 -6 -3 7 4 -23 6 2
1532257838499108 1 -8 -9 -11 -11 -48 -1 -2
1532257838530032 -1 -14 -28 1 1 -11 -4 -2
1532257838559936 -2 6 0 0 -8 -5 -6 -4
1532257838596838 -2 -3 -1 -7 -5 6 -9 -3
1532257838619777 -1 2 2 -1 7 3 7 1
1532257838664661 -2 4 20 1 4 -21 2 0
1532257838694576 -2 0 7 3 1 -9 -9 -2
1532257838717515 -3 1 -12 -4 0 5 7 3
1532257838754416 0 0 3 -5 4 1 1 -2
1532257838770373 -2 -2 17 12 16 28 8 0
1532257838807275 -3 -17 -25 0 10 15 -4 -2
1532257838829216 2 2 -27 -13 -15 -22 -6 -1
1532257838875094 -16 6 9 2 1 -12 -9 -7
1532257838889056 6 -4 6 -22 -1 -12 -3 1
1532257838941915 2 0 3 5 -28 -73 -5 4
1532257838971835 1 -6 -8 -5 -11 -24 -6 -1
1532257839001754 4 -5 0 -9 0 43 8 -1
1532257839039653 3 -16 -30 -7 -4 3 5 5
1532257839092513 0 -1 -4 -6 8 2 6 -1
1532257839122432 -4 3 3 -1 7 30 18 -3
1532257839250091 -5 -4 -7 -7 -11 -65 -35 -1
1532257839316912 -3 1 2 0 21 104 16 -8
1532257839369770 3 -2 -1 -2 -2 39 -3 -1
1532257839414650 2 -1 -2 -1 -4 32 0 -3
1532257839459531 -27 0 1 0 -7 -51 3 -2
1532257839512389 3 0 1 1 5 -9 0 -1
1532257839534331 0 -2 -7 -9 -6 -5 -17 -6
1532257839595168 22 -3 9 17 7 3 5 -3
1532257839632069 28 -5 -11 -8 -7 -9 -29 1
1532257839736790 -24 -2 -2 -5 -1 8 -3 -5
1532257839781670 -2 3 0 -3 -13 -3 -12 -13
1532257839911323 -20 -2 -3 -2 -1 -30 -10 -12
1532257840036986 3 0 -8 -5 -9 3 -5 5
1532257840126746 8 1 -1 2 3 -1 15 6
1532257840179605 11 2 0 -3 14 -1 -14 1
1532257840202559 -4 2 3 6 14 50 7 9
1532257840254405 38 -9 -7 -5 -8 -52 3 6
1532257840292304 -27 3 9 1 10 59 -8 -30
1532257840314245 -9 -3 -8 1 -6 -2 12 3
1532257840359125 44 5 19 14 4 1 61 22
1532257840419963 -22 -16 -12 -1 -1 -18 -10 -10
1532257840464843 -8 1 2 -2 15 -2 -1 -1
1532257840524683 -1 0 1 1 6 -8 -9 2
1532257840539642 1 -3 -2 -1 -13 16 -3 1
1532257840561584 -2 -2 -2 -3 -2 1 -5 -2
1532257840629403 -7 -6 -4 -10 -5 -22 -3 -4
1532257840653339 0 -16 -9 -7 -12 -22 -9 -5
1532257840698219 -3 -1 -4 -7 -15 -22 -1 -6
1532257840749082 6 5 3 10 3 2 -2 1
1532257840772020 -1 -2 -6 -7 -12 -20 -1 -3
1532257840839840 -1 -2 -2 -1 -7 4 -3 -1
1532257840861781 -3 0 -5 -12 -8 -18 -2 -2
1532257840884719 3 2 0 0 17 11 5 -1
1532257840921621 -1 -1 0 0 -7 2 0 0
1532257840959520 -4 0 0 -2 -7 5 0 -1
1532257840982458 0 -3 1 0 -9 -31 -3 -1
1532257841004400 -2 -5 -4 -2 5 9 -2 -2
1532257841019360 -1 -1 -1 -2 0 8 1 1
1532257841034320 -2 -1 -3 -1 -2 0 -2 -1
1532257841072218 -1 -1 -1 1 10 -8 -1 -1
1532257841102150 -3 -1 -1 -1 3 -4 -2 -2
1532257841124080 -3 1 -2 -2 -3 -3 -1 0
1532257841154997 -1 2 1 -1 -14 -40 0 0
1532257841176938 -3 0 -2 -3 -4 15 0 -1
1532257841199876 0 -1 -3 -1 1 24 -3 -3
1532257841221819 -5 -2 -2 0 2 41 -1 -4
1532257841251739 -1 -3 -1 -3 -3 -15 -1 -1
1532257841274676 -2 -3 -2 -2 -6 -10 -2 0
1532257841296630 -15 1 2 0 -3 13 -3 -4
1532257841311578 -2 -1 -2 -3 -2 -13 0 0
1532257841334517 -4 -1 1 1 17 13 -2 -2
1532257841357455 3 -1 0 -2 -16 -31 -3 -1
1532257841387375 -5 -3 -3 -5 -2 11 0 -1
1532257841402352 0 -2 2 0 -2 -15 -3 -2
1532257841424277 -1 -2 -2 -2 -5 2 -3 -2
1532257841477136 0 2 -1 0 8 7 2 -1
1532257841499077 -1 0 -1 3 -5 -19 -1 0
1532257841529994 0 -2 -3 -2 4 15 0 -1
1532257841544954 -2 -1 -3 -3 -5 -8 -2 -1
1532257841559914 -1 -2 -1 1 7 5 0 -2
1532257841604794 -1 -1 1 -1 -4 -1 0 1
1532257841626735 -1 0 -2 -3 -1 1 -4 -2
1532257841656655 0 -1 -3 0 1 15 1 -1
1532257841687573 0 -2 0 1 1 8 -1 -2
1532257841709514 -1 0 0 0 -9 -43 -4 -1
1532257841747413 -1 -1 -1 -2 3 9 -1 -2
1532257841762372 -1 -1 -1 -1 2 5 0 0
1532257841792294 -3 0 -2 -3 -9 -23 -3 -5
1532257841814234 -1 -1 0 0 3 12 -1 0
1532257841867093 -1 -1 -1 -1 -2 1 0 1
1532257841926933 -1 -3 -3 1 -2 -1 0 1
1532257841949871 -1 -1 -1 -4 1 9 -2 -1
1532257841971813 -1 -2 -1 -1 1 4 0 -1
1532257841994751 -1 -1 -1 -2 -1 9 -1 -4
1532257842024671 -1 -1 0 -1 2 4 1 -1
1532257842069551 -1 -1 0 0 -2 -4 -1 0
1532257842116426 -1 -3 0 -1 -1 -4 0 -1
1532257842144416 -3 0 -1 -3 -5 -4 -2 -2
1532257842167354 -1 -1 -1 -2 -4 -5 -1 -2
1532257842189296 0 -1 -2 -2 3 3 -1 -1
1532257842204255 -1 -1 -2 0 -5 -5 0 -2
1532257842227195 -2 -1 -1 -3 1 -3 -4 -2
1532257842272075 0 -2 0 -1 0 9 -1 2
1532257842331914 -2 0 -2 -1 1 -1 -3 -1
1532257842346874 -1 -1 0 1 -3 -3 -2 -2
1532257842361834 -1 0 -2 -2 -3 -1 -1 -1
1532257842391754 1 -1 0 0 -3 -1 -3 -4
1532257842436634 1 0 -1 0 -2 -2 -1 0
1532257842459573 -2 1 -2 -1 0 -1 -1 -1
1532257842512432 -1 -2 -2 -1 -2 2 -1 -1
1532257842557311 0 0 -2 1 -1 -3 -1 0
1532257842573269 -2 -2 0 -2 -1 -3 -1 -2
1532257842639107 -1 -1 0 -1 1 -5 0 0
1532257842684984 0 0 -1 -1 -3 0 -1 0
1532257842736845 -2 -1 -1 0 -2 1 -2 2
1532257842781725 -1 -1 -1 -3 -1 5 -1 -2
1532257842834584 -1 0 -1 0 3 1 -2 -2
1532257842894424 -1 -1 0 1 -1 1 0 -1
1532257842924344 -1 -2 -1 -2 -2 7 -2 -4
1532257842939304 1 -2 -1 -1 -1 1 -1 1

1532257842984184 -1 0 -1 1 0 2 -1 1
1532257843007123 -1 -2 -1 -1 0 -1 -3 -1
1532257843089901 -1 -2 0 -2 -4 -6 -1 0
1532257843104875 0 -1 1 -3 0 -2 -1 0
1532257843149755 -1 -2 -1 -3 0 0 -2 -1
1532257843202246 -3 0 -1 -2 0 -4 0 -1
1532257843232165 0 -2 -1 -1 2 -2 0 -2
1532257843270073 2 -1 -1 1 -3 -7 -3 0
1532257843285068 -1 -1 -2 -1 -3 -5 0 -3
1532257843329936 -2 -1 -2 -1 -1 -1 0 -1
1532257843351909 -2 0 0 -1 4 5 -2 -1
1532257843389776 -1 -2 -1 1 -3 -3 -2 -1
1532257843411717 0 -1 -2 -1 -2 4 -3 0
1532257843487539 -1 -1 -2 -3 -2 -2 0 1
1532257843562345 0 -2 -1 -2 0 0 -1 -2
1532257843584286 -1 -2 -1 -2 -2 -1 1 -1
1532257843622185 -2 0 0 -2 0 -4 -2 -3
1532257843644126 0 -1 1 0 -1 -2 -2 1
1532257843682024 -2 -1 -2 0 0 -1 -1 -1
1532257843719924 -1 -1 -3 -1 0 -1 -2 -1
1532257843756825 2 -1 -1 -1 -2 -3 -1 0
1532257843809683 -1 -1 -2 -1 -4 -1 -1 -3
1532257843869524 -2 0 -3 -1 -2 -1 -2 0
1532257843884483 0 -1 -2 0 3 0 -2 -2
1532257843907421 -3 -1 -2 -2 -2 1 -1 -1
1532257843922382 -1 -3 -1 1 -1 1 1 0
1532257843952302 -2 -2 -2 1 -2 -2 -2 0
1532257843974243 -2 -2 -2 -1 -2 0 0 -1
1532257843989204 0 0 -1 1 -2 -1 -1 -1
1532257844019123 0 -1 -2 -2 -2 -1 1 -1
1532257844035081 -1 0 0 1 -2 -1 0 -1
1532257844057021 -2 0 -1 1 3 0 -2 -3
1532257844086942 -1 0 -1 0 1 -1 0 -1
1532257844101902 0 -2 -1 0 -2 0 0 -1
1532257844124843 2 0 -1 -1 0 0 0 -1
1532257844154761 -2 -2 -1 0 -1 -1 0 0
1532257844176702 -1 -1 1 -1 -1 -1 -1 -2
1532257844199641 0 -2 -1 -1 0 -1 -1 -2
1532257844222579 -3 -1 -2 -2 0 0 1 -1
1532257844252500 0 -1 -1 -1 -1 -1 -2 -1
1532257844282419 -1 -2 1 2 2 -1 -3 -1
1532257844304361 -1 0 0 -2 -1 -1 0 0
1532257844327555 0 -2 -1 0 0 -1 1 -1
1532257844342515 -2 -2 -2 -2 -2 -2 -2 -1
1532257844364457 1 -1 0 -3 0 -2 -1 -1
1532257844402368 1 -1 -1 -2 -4 -1 0 -1
1532257844424296 0 -1 0 -1 -1 -2 0 0
1532257844447236 0 -2 -2 -2 -1 -3 0 -1
1532257844462195 0 -2 1 2 0 0 0 0
1532257844484136 -2 0 -1 -2 -1 0 -1 -2
1532257844522035 -2 -1 -1 0 0 1 -1 -1
1532257844551955 -1 -1 0 -3 -2 0 -3 -3
1532257844581875 -1 -2 0 -3 -2 -1 0 0
1532257844604814 -2 -1 -2 -1 -1 -3 -2 1
1532257844619775 -2 0 -1 -1 -1 0 0 -1
1532257844634734 1 -2 -1 -3 -1 0 1 0
1532257844656675 -2 0 -1 -1 -2 -1 -2 0
1532257844686595 -2 -1 0 0 -3 -1 -1 -2
1532257844709534 -3 -2 -2 0 0 1 -2 -1
1532257844724604 1 0 -2 -2 -1 -2 0 -2
1532257844747543 -1 -1 1 -1 -1 0 -2 -2
1532257844762503 -2 0 -2 1 5 -1 0 0
1532257844784444 -2 -3 -2 -3 -1 -1 -1 1
1532257844799405 -1 -2 -1 0 -2 -1 1 0
1532257844829325 -1 -1 -1 -2 1 -2 0 -2
1532257844844285 -1 0 -2 0 -1 -2 0 -1
1532257844867223 -1 -1 -1 -1 -1 -1 -2 -1
1532257844904125 0 -1 -2 -1 -1 0 0 0
1532257844927063 -1 -2 -2 -2 -1 -2 1 -1
1532257844956983 -2 -2 -1 0 -2 0 -2 -2
1532257844979922 0 -2 0 0 0 -1 -2 -1
1532257845001871 -1 -3 0 0 -2 -5 -1 -1
1532257845016823 -1 -1 -1 0 1 -2 1 -2
1532257845039761 -2 -1 0 3 0 -1 -2 0
1532257845061703 0 -2 -3 -1 -1 -2 -1 -1
1532257845076663 -2 -1 1 1 3 -3 0 1
1532257845099602 -2 -3 -3 -3 1 11 0 -2
1532257845122540 0 -2 -5 -4 -2 22 0 0
1532257845137500 -2 0 3 -1 -41 -47 -4 -1
1532257845159442 2 1 0 1 -11 10 1 2
1532257845182380 -1 -2 -16 -11 10 -9 -2 -1
1532257845197341 -3 -1 14 -3 -18 -18 -6 -4
1532257845219282 1 0 -2 -5 -2 9 3 3
1532257845257180 0 0 1 -17 19 3 3 0
1532257845294082 1 -1 -2 9 -15 6 1 -3
1532257845331980 -1 1 7 -14 13 5 -2 -2
1532257845384838 -1 1 10 21 -2 17 -7 -4
1532257845406780 -3 -2 2 -7 8 -8 -7 -2
1532257845421740 2 0 -4 11 -5 -3 3 1
1532257845436701 -3 -1 8 -10 12 19 1 -1
1532257845474599 3 -2 2 37 45 56 -1 -2
1532257845527458 0 1 1 19 -13 -38 -15 -4
1532257845602258 -3 -3 16 31 -30 -21 0 -3
1532257845736898 -1 2 16 14 -10 55 3 0
1532257845804716 -2 0 12 17 15 32 4 2
1532257845894476 -2 -4 -5 -2 11 -27 1 1
1532257845917414 2 0 1 -2 -25 -24 0 0
1532257845954316 4 36 22 -5 -8 -19 -3 2
1532257845992215 -2 -8 1 -8 25 18 -4 -1
1532257846014156 0 5 -3 -9 -4 -14 -1 0
1532257846044075 3 -4 -8 -4 -1 -28 -2 3
1532257846067015 1 -1 -4 -10 6 28 8 3
1532257846089953 -1 -1 0 0 10 4 -4 2
1532257846111895 -2 -4 -7 -8 -24 -20 -5 -2
1532257846126855 0 2 -3 3 -6 9 5 1
1532257846164754 -3 -4 1 -1 -13 36 -5 -3
1532257846179713 -4 -15 -24 -9 -4 -5 0 0
1532257846216621 4 18 17 3 0 8 0 2
1532257846231581 2 10 3 -10 3 7 -3 -2
1532257846262498 0 -3 12 0 -9 -22 -5 -3
1532257846284439 -1 -12 -6 -7 -1 -31 -8 -1
1532257846299405 1 4 -14 10 17 36 10 2
1532257846314360 0 8 24 -1 3 17 10 4
1532257846329319 -6 0 2 -11 -19 18 3 -4
1532257846344279 5 -2 0 -3 -20 68 12 -6
1532257846367218 -4 1 1 -8 -32 -52 -25 -5
1532257846397138 5 -1 5 5 9 92 27 7
1532257846435037 0 1 10 23 3 33 3 3
1532257846471938 -2 0 0 -13 -42 -104 7 -14
1532257846509837 -1 -4 -8 -12 -10 9 -16 -1
1532257846524797 -4 -2 -4 -2 12 -8 -13 -8
1532257846576658 0 -1 0 2 31 14 0 0
1532257846629517 -2 -3 -4 -3 -15 -46 2 0
1532257846644477 1 -2 2 -1 8 6 2 -1
1532257846697335 -3 0 -3 1 28 52 2 -2
1532257846757176 -1 1 2 2 1 23 13 1
1532257846824994 27 5 2 -1 -5 -13 -8 18
1532257846854914 -16 5 0 -2 -2 11 -5 -1
1532257846951656 30 0 -3 -4 4 -11 -4 1
1532257847012493 30 1 0 0 -3 -20 2 14
1532257847027453 16 -1 0 1 9 10 6 5
1532257847072332 -15 -1 0 0 -3 -14 3 -6
1532257847087293 -1 -2 -1 2 3 0 5 -2
1532257847124194 -17 -2 1 0 1 2 9 -9
1532257847139154 -13 -6 -1 -1 8 20 5 -7
1532257847162093 5 4 0 1 -3 10 -17 6
1532257847214951 2 -3 -2 -4 -12 -7 -15 -1
1532257847251854 9 -1 0 1 1 0 -8 2
1532257847274791 -7 -3 -2 1 17 69 12 4
1532257847326652 -20 -2 0 3 -3 -14 3 1
1532257847341613 2 2 1 0 3 7 18 6
1532257847356573 5 -4 0 -1 7 18 -1 1
1532257847387490 -5 -2 -1 -2 4 -28 -9 0
1532257847439351 7 -5 0 -3 -8 -26 -16 7
1532257847469272 4 -1 -1 -2 1 17 -1 7
1532257847552050 -2 -3 2 3 7 19 15 10
1532257847604908 -22 -1 -6 -8 -31 -4 -16 -22
1532257847641825 -117 0 -8 3 6 -79 -4 -22
1532257847671730 87 4 -1 2 1 1 36 20
1532257847724588 28 14 -2 -2 1 24 -13 5
1532257847807367 9 12 -11 3 5 39 24 17
1532257847829308 2 1 -1 -2 7 42 -6 5
1532257847844268 3 3 -2 2 4 -5 4 6
1532257847904108 4 1 0 1 5 15 1 3
1532257847919069 -2 -1 -3 1 -9 -17 -5 2
1532257847935027 -3 -4 -5 0 1 15 -1 0
1532257847956967 -11 -7 0 -8 -26 -33 0 -3
1532257847971927 0 -3 -2 -3 -12 -40 4 -2
1532257847994865 -3 0 1 1 9 -6 -21 -1
1532257848039745 -3 -1 -2 -3 0 -16 -4 -3
1532257848061687 0 1 -3 -5 10 -31 8 3
1532257848091607 -7 -7 -10 -7 -3 15 3 0
1532257848122524 -5 -7 -9 -3 4 1 5 -2
1532257848167404 0 -3 1 -3 -12 2 2 3
1532257848197324 -4 -3 -1 -2 -8 10 1 -2
1532257848219266 -1 -1 -1 -2 -11 -34 -3 0
1532257848234225 1 -2 -3 -5 -4 -16 3 0
1532257848249186 -1 -2 -1 2 7 -13 3 -2
1532257848272124 -5 -2 0 -2 -1 -13 -4 -3
1532257848302058 2 1 1 -1 3 9 -2 -2
1532257848317004 0 -1 -1 -1 -18 -35 -6 -1
1532257848346924 0 -2 -2 -2 0 -4 1 -1
1532257848376844 -2 -4 -1 2 3 33 -3 -4
1532257848391804 0 -1 2 0 2 -6 -1 -4
1532257848429703 -5 -2 -1 -2 -9 -6 -2 -1
1532257848453639 2 -1 0 2 -4 -6 -2 1
1532257848474583 -2 0 -1 0 -5 -3 -2 -2
1532257848512481 -3 -3 -2 -1 0 1 -4 1
1532257848549383 -1 2 -1 -1 -8 3 -3 -1
1532257848572321 -2 -1 -2 1 -8 -40 -3 0
1532257848609222 1 -1 -4 -3 3 4 0 0
1532257848632161 0 -1 -1 -4 -2 -2 -1 -2
1532257848654103 -1 -1 0 -1 14 19 1 0
1532257848669064 1 1 0 -1 -1 4 -1 0
1532257848692001 -1 -1 1 -1 -2 -1 -1 -2
1532257848714940 -1 -1 -4 -2 -3 -6 -1 -1
1532257848736881 -1 -3 1 -3 -3 1 -3 -2
1532257848789740 -2 -1 -1 -3 -7 -17 -2 -2
1532257848811681 1 -2 -2 0 3 -4 0 3
1532257848841601 -1 0 -1 0 2 13 -1 1
1532257848856561 1 0 1 -2 -9 -8 -2 0
1532257848894460 0 0 -1 -1 -8 -6 -1 1
1532257848917399 0 0 -1 0 0 -4 1 0
1532257848947319 1 -1 -2 -2 3 5 1 -2
1532257848969261 0 -1 0 0 6 1 -1 1
1532257849007158 -4 -2 -1 -1 5 -7 -1 -2
1532257849029100 -1 -2 -2 -4 3 3 2 0
1532257849067005 0 0 0 0 3 2 0 0
1532257849096925 -2 -3 0 -1 17 13 0 -3
1532257849119864 0 0 -3 -1 10 14 0 -2
1532257849134839 0 0 0 1 -4 4 -2 -5
1532257849164744 -2 -2 -1 0 11 12 -2 -2
1532257849186685 -1 -3 -1 0 -8 -5 -3 1
1532257849232562 -1 -1 -2 -1 -12 -17 -1 -1
1532257849254503 -1 -1 -2 1 9 6 0 -3
1532257849292402 1 -1 -1 0 -1 -14 0 -2
1532257849314343 -1 -1 -1 -3 -3 -7 -2 0
1532257849337283 -1 0 -1 0 6 15 -1 0
1532257849359223 -2 -4 -3 -2 9 30 0 -2
1532257849389143 0 0 0 1 -5 -13 0 1
1532257849420060 1 -2 -1 0 -3 -6 -2 -1
1532257849442002 -2 -1 -3 -2 -4 -4 -2 0
1532257849456962 -3 0 -1 -2 -2 -2 -1 -2
1532257849509836 0 -1 0 -2 0 4 0 -2
1532257849524781 -3 -1 0 -2 -3 -21 -3 0
1532257849546723 0 -1 -2 -1 4 10 1 -1
1532257849569668 0 1 -1 0 -1 -7 -2 -2
1532257849599581 -2 0 -1 -1 -2 -1 0 -2
1532257849614541 0 0 -1 -3 -1 -1 0 0
1532257849629509 1 -1 -2 -3 0 4 -1 -3
1532257849667399 -2 -2 -1 -2 -1 -5 -1 0
1532257849697319 0 -2 -1 -1 2 2 -1 -1
1532257849727239 -1 -2 -3 -3 -2 -4 0 -1
1532257849749181 0 -2 0 0 1 -1 -1 -1
1532257849810018 -3 -3 -2 -1 -2 2 -2 -1
1532257849831959 0 1 -1 0 0 -2 -1 -2
1532257849861879 -2 -1 -1 1 0 -2 -1 -1
1532257849899778 -1 0 -1 -2 -4 -5 -2 -1
1532257849914738 -3 0 -3 -2 -5 -26 -1 -1
1532257849929697 0 -2 0 1 1 4 0 -2
1532257849951656 -1 -3 -2 -1 1 12 0 -1
1532257849997517 -2 1 -2 -1 -4 -6 0 1
1532257850019458 -3 -1 -2 -4 -3 -16 -1 -3
1532257850094258 -1 0 -2 -1 -1 -1 -1 -1
1532257850118196 0 -1 0 0 2 7 0 -4
1532257850191997 0 -2 0 0 1 4 2 -2
1532257850244855 -2 -2 0 -1 -2 1 0 -2
1532257850266797 -1 -2 1 -2 0 8 -3 1
1532257850281757 -2 -1 -2 -1 -1 13 -2 -2
1532257850319655 -1 0 -1 0 1 -4 0 -1
1532257850379495 0 -2 -1 -1 1 -1 2 0

1532257850447313 -1 -1 -2 0 -3 -3 0 -1
1532257850469256 -1 -2 0 -1 0 -1 2 1
1532257850522114 0 -1 -3 -3 0 0 -2 -2
1532257850552034 -1 -2 -1 0 -3 -6 -3 -1
1532257850604893 0 -2 -1 -1 -1 -3 2 1
1532257850626834 -1 -2 -1 0 0 -2 0 -2
1532257850649772 0 -1 2 0 0 -1 2 -1
1532257850679692 -2 -1 -1 0 -2 -2 -2 0
1532257850709613 -1 -3 -1 -2 -2 -3 -1 -1
1532257850747511 -1 -1 -2 1 -1 -2 -1 -2
1532257850822311 0 0 0 2 2 2 -2 -5
1532257850837272 -3 -1 -2 -2 0 -1 -2 -1
1532257850942432 0 -1 -1 0 -3 -7 -2 1
1532257850987312 -2 1 -1 0 1 3 0 -2
1532257851009253 -1 -1 0 -2 -1 -1 -2 -1
1532257851070111 -1 -2 0 -2 0 -3 -3 0
1532257851129950 -3 -1 1 -1 0 0 -1 -6
1532257851159870 0 -1 0 -1 -1 -2 -1 2
1532257851174830 -1 0 -2 -1 -1 4 0 -1
1532257851196772 0 -1 0 -1 -1 -3 -1 -1
1532257851226692 -1 -2 -1 -1 -2 -2 -2 -1
1532257851241652 0 0 0 -2 0 0 0 1
1532257851294511 -1 -2 0 -1 0 2 -1 -1
1532257851317449 -3 -2 -1 0 -2 4 -1 -1
1532257851347574 -2 -2 -1 -2 0 -2 -2 -1
1532257851362535 -1 0 -2 0 -2 -1 -1 0
1532257851384477 1 0 -2 -3 -1 -4 -3 -3
1532257851399437 -1 -2 0 -2 -1 -2 -2 0
1532257851429357 -2 1 -1 -1 0 -2 2 1
1532257851497175 0 0 -1 -1 2 3 -1 -1
1532257851519117 -1 -1 -2 -1 -2 -4 -1 -3
1532257851564994 0 -2 -2 0 0 4 -1 -1
1532257851586935 -1 -3 -1 1 0 -4 1 -2
1532257851609874 -4 -1 -1 -1 -2 1 1 -2
1532257851631815 -2 -1 -2 -2 1 10 -1 0
1532257851654753 -2 -2 -3 -2 3 9 1 -1
1532257851669731 1 -1 0 0 -4 -8 -4 -1
1532257851691655 -1 -3 -2 -5 -8 -9 -3 -2
1532257851714593 -2 -2 1 6 12 52 0 0
1532257851729553 -2 -2 -2 2 -5 34 -1 -1
1532257851767453 3 2 3 11 19 4 3 1
1532257851789394 0 0 6 7 2 -22 1 0
1532257851812334 -1 1 2 -17 0 -9 1 1
1532257851834273 0 3 15 25 22 39 9 2
1532257851857213 -2 2 -4 -5 -23 -7 -9 -4
1532257851894114 -1 0 -3 14 0 -9 2 0
1532257851910072 -3 -3 -8 -5 17 16 -7 -3
1532257851954951 0 -2 -8 -26 18 -12 4 -1
1532257852029751 -2 2 0 7 14 -12 1 0
1532257852142450 -3 -5 -14 -30 -4 11 4 -2
1532257852179351 -1 -3 1 -8 14 -7 2 2
1532257852300028 -3 -2 -5 3 12 19 1 0
1532257852351890 -2 0 2 -4 -4 -16 -2 -2
1532257852396770 3 -2 -4 -1 -6 -22 4 2
1532257852411729 -4 -3 1 -6 -1 -52 -2 -4
1532257852456610 -3 3 1 -3 -2 16 0 1
1532257852472567 0 2 -2 3 10 21 6 1
1532257852524438 -1 0 -3 -1 3 -9 1 -2
1532257852547376 -3 -2 0 -2 -10 -14 -17 -5
1532257852577297 5 8 -5 7 6 10 5 4
1532257852607216 -6 -7 -23 -5 3 9 -8 -8
1532257852622176 -2 -2 -2 -4 -13 -25 -8 -3
1532257852637137 -2 0 -27 -2 25 52 14 1
1532257852667065 -2 -2 -5 2 15 44 7 1
1532257852711937 1 0 -9 -1 2 32 -6 -2
1532257852749835 3 12 37 15 5 -4 6 1
1532257852771776 -1 -8 -40 -22 -8 26 9 3
1532257852824635 6 0 -7 -11 -2 29 9 1
1532257852846576 2 -1 -13 -14 16 62 7 4
1532257852907414 -1 11 14 -10 4 -20 -7 -5
1532257852952294 -7 -3 -12 -6 -8 -14 3 0
1532257852989195 3 1 0 -9 -2 8 15 0
1532257853019115 2 -2 -1 8 -16 -86 9 10
1532257853057013 -5 0 -3 -3 -3 -8 4 -7
1532257853101907 0 -1 -2 -5 22 34 1 -2
1532257853116854 3 -1 4 -5 6 17 -11 2
1532257853169712 -1 -1 -2 -1 29 33 3 -2
1532257853221574 -2 0 -1 -2 -8 -52 -10 -4
1532257853282411 3 -1 -1 -3 1 -13 -3 -1
1532257853334273 14 2 1 0 -7 -30 -13 -1
1532257853402092 37 4 0 2 -2 16 23 5
1532257853521771 13 -5 -1 -1 17 50 0 5
1532257853559669 -3 1 -3 1 -1 -3 1 -4
1532257853604549 52 5 0 -1 -3 -3 3 16
1532257853627488 -18 -4 -3 -5 -11 1 -6 -5
1532257853672368 -7 -3 -6 -4 -6 -1 -11 -3
1532257853717248 4 0 0 -2 3 2 3 5
1532257853777088 -2 -1 -1 0 6 0 -13 -11
1532257853792048 -9 0 1 -1 -4 -27 -7 -1
1532257853829947 2 0 -1 -4 -2 1 -11 1
1532257853844907 4 3 -1 -1 -7 -10 -4 -1
1532257853859867 21 -2 1 1 7 30 23 7
1532257853889787 9 0 0 1 -9 -60 -29 5
1532257853911728 -34 -15 -4 -5 -4 -17 2 -3
1532257853964587 -1 12 5 4 11 6 5 10
1532257854017445 23 21 6 2 2 9 6 23
1532257854047370 47 -41 -39 -7 9 6 4 -1
1532257854099227 -4 12 -3 1 -4 -39 -22 -6
1532257854137125 -9 -5 -14 -3 -25 -93 13 -6
1532257854175024 9 -1 -1 -2 -6 -9 0 -2
1532257854211925 -4 -1 2 2 2 7 0 -2
1532257854264784 4 -2 -1 2 6 -30 -1 2
1532257854301686 9 11 3 7 23 29 14 6
1532257854339584 -2 0 0 -1 -4 17 8 -3
1532257854422363 2 3 -2 3 -6 -64 -4 -2
1532257854459264 0 4 5 4 12 1 2 3
1532257854489184 -1 -4 -2 -2 2 12 -6 -3
1532257854513119 0 0 0 -2 -6 -32 -3 0
1532257854527082 0 0 0 -3 1 -12 -1 0
1532257854542042 0 0 0 6 0 -18 2 0
1532257854564981 -1 -1 -3 -1 -3 -10 1 1
1532257854586922 1 2 0 1 -17 11 5 0
1532257854601883 0 0 -2 -4 -11 -9 -3 -1
1532257854631803 -3 -3 -4 -1 -3 -16 -4 -2
1532257854654741 1 -1 1 -1 5 3 -1 -2
1532257854676682 -1 1 0 -2 -9 43 -1 0
1532257854699621 -2 -1 -4 -1 -2 32 -4 -2
1532257854714581 1 -2 -2 2 7 3 0 0
1532257854744501 0 -1 -1 1 8 4 -2 0
1532257854767440 -3 0 -2 -2 -1 2 -1 -4
1532257854804341 0 0 -1 -2 -1 -9 -1 -1
1532257854827280 -1 1 -2 -3 -1 2 -2 0
1532257854849221 -2 -4 -2 -1 -1 -31 -2 1
1532257854872160 0 1 -2 -2 -3 19 -8 -2
1532257854887120 -1 -1 -1 -2 6 20 1 -2
1532257854910058 -3 -4 -1 -2 -8 -8 -4 0
1532257854931999 0 0 0 2 6 10 4 1
1532257854954938 -3 -1 1 1 -1 -21 -1 0
1532257854969898 -2 0 -1 -1 1 3 1 0
1532257854991840 -2 1 0 0 -5 -3 -1 0
1532257855006800 1 1 -1 0 -5 -11 -1 3
1532257855029738 -1 -1 -1 -2 -1 -4 0 -2
1532257855059658 0 -1 0 -1 2 9 -1 -3
1532257855074618 0 -2 -2 -2 1 4 -1 -2
1532257855096571 0 -1 0 -1 -1 -3 -2 0
1532257855112528 -2 0 -2 0 -1 9 -1 -1
1532257855142449 -2 1 1 2 1 3 0 0
1532257855172379 1 -1 -1 -1 3 16 2 1
1532257855187329 -2 -2 -1 1 3 7 1 0
1532257855224230 0 0 -2 -3 1 -6 0 0
1532257855254150 0 -2 0 -1 0 -3 4 0
1532257855285068 1 0 2 -2 2 12 -2 -2
1532257855307009 1 0 -2 -1 -3 -23 -1 0
1532257855329948 -3 0 -3 0 0 5 -4 -2
1532257855374828 1 0 1 -1 4 29 -3 -2
1532257855396769 1 -2 -1 -2 -5 5 -2 -1
1532257855419708 -1 -2 -2 0 -14 -19 0 -4
1532257855434668 -2 -1 0 0 1 9 1 1
1532257855456609 0 0 -1 -1 -2 -9 2 1
1532257855472566 -1 -2 0 0 6 6 -2 -1
1532257855487526 -2 -1 -1 1 -6 -4 -2 -1
1532257855517446 0 0 1 0 0 5 0 1
1532257855532406 -2 -1 -1 -3 -3 -1 -2 -4
1532257855554348 -1 -1 -2 0 3 8 0 0
1532257855569308 -2 0 0 1 5 9 0 0
1532257855599228 -1 -1 -2 1 3 6 -2 -2
1532257855637126 -1 -1 -2 -2 0 8 0 0
1532257855660064 -1 -3 0 -2 0 0 0 -2
1532257855689985 -2 -2 -2 -3 2 17 -1 -3
1532257855711926 -1 0 -2 -1 3 11 -2 -3
1532257855734867 -1 -2 -1 0 -7 -26 0 1
1532257855771766 -2 -2 -3 -1 0 9 1 -1
1532257855794705 0 0 1 1 1 -4 -2 1
1532257855839585 -4 0 -1 -3 -3 -18 -2 -2
1532257855869505 0 -1 -1 -4 2 7 -2 -2
1532257855914385 -2 -2 0 0 -1 1 -1 0
1532257855929345 -2 -3 -1 -2 -3 -9 0 -1
1532257855952283 0 -1 0 -1 -4 -17 -3 -2
1532257855982203 -1 -2 0 0 -2 2 2 -1
1532257856020102 -2 -2 -2 -4 1 4 0 -3
1532257856057004 1 1 0 0 -1 7 0 1
1532257856124821 -1 -1 -2 -1 1 2 -3 0
1532257856169702 -1 -1 -1 0 0 1 -1 0
1532257856199622 0 -1 -2 -2 -2 -5 -2 -2
1532257856222560 -1 1 0 -2 1 17 1 -1
1532257856259462 -1 -1 -1 0 0 9 0 0
1532257856282400 -3 -1 -2 -3 -5 -17 -2 0
1532257856334262 1 -1 0 -2 -1 0 0 0
1532257856357201 0 0 -1 -3 -2 -3 -3 -1
1532257856493836 0 0 -1 -1 -1 4 0 -1
1532257856559660 -2 -2 0 0 2 6 0 0

1532257856627478 1 1 0 3 -1 -3 0 -3
1532257856724452 -1 -1 -1 0 -1 2 0 -2
1532257856762351 -1 -2 -2 -2 -5 -16 -4 1
1532257856792271 -1 -2 0 -1 -2 -24 0 1
1532257856814212 -1 0 0 0 2 27 1 -4
1532257856852240 0 0 -1 0 -1 2 0 0
1532257856905097 -1 -1 -2 -2 0 8 1 -2
1532257856949978 0 -1 0 -1 2 13 -2 1
1532257857009818 -1 -1 1 -1 -3 -6 1 1
1532257857054698 -1 -1 -2 -1 -1 0 -2 -2
1532257857076639 -1 -2 0 -2 -2 1 0 -1
1532257857129498 1 -1 -1 0 2 1 -1 -2
1532257857159418 0 -1 0 -2 -3 -9 0 0
1532257857189337 -2 -1 -2 -1 0 2 0 0
1532257857249452 -2 0 0 1 -5 -39 -1 0
1532257857287350 1 -2 -1 0 1 11 -1 -1
1532257857309292 -2 0 -1 -1 -1 7 0 0
1532257857347189 -3 -3 -1 -1 7 24 2 -3
1532257857377110 -1 -2 -1 -2 -6 -31 -3 1
1532257857429969 -1 -1 -1 -1 -1 4 0 -1
1532257857489809 0 0 0 -1 0 3 2 1
1532257857519729 0 -1 -1 -1 2 5 -1 0
1532257857549648 -1 0 -1 -1 -2 -3 -2 -1
1532257857586550 0 -2 -1 0 -2 -2 0 1
1532257857602508 -3 -1 -1 -1 1 2 -2 -2
1532257857647386 -2 0 0 -3 -1 0 0 0
1532257857669338 0 -1 -2 1 -2 1 0 -1
1532257857722187 -1 -1 -1 2 0 1 -2 0
1532257857767066 0 -2 -2 -3 -4 -4 -1 0
1532257857790005 -1 -1 -4 -1 -1 -9 -2 0
1532257857856827 -2 -1 -2 -1 2 1 -2 -1
1532257857916667 -1 -2 -1 0 -2 2 -1 -1
1532257857962544 -1 -1 1 -2 0 1 -3 -2
1532257858022385 -3 -1 1 -1 1 2 0 0
1532257858089206 -4 -1 0 4 -16 7 -2 -2
1532257858119126 -3 -4 -4 -8 2 -20 -6 -3
1532257858157024 0 -1 1 -11 17 55 0 -4
1532257858216864 -2 -2 -9 -6 40 10 2 -1
1532257858269732 0 1 0 -2 -1 -10 0 1
1532257858322591 -3 -6 -20 -17 -32 3 -5 -3
1532257858344523 0 5 14 22 23 6 1 3
1532257858479163 -3 -3 -7 -7 -39 -19 -13 -6
1532257858525045 -3 -8 -9 -21 -10 -37 -4 -1
1532257858554960 -1 -1 1 15 42 50 8 0
1532257858584880 1 -2 0 7 23 62 7 3
1532257858606822 -4 -5 12 0 -8 32 -7 -3
1532257858629760 -3 -3 4 0 0 -24 -7 -5
1532257858681634 -2 -3 -5 -12 -5 -8 -3 0
1532257858704560 0 -4 -16 -5 -9 10 2 0
1532257858727499 2 0 0 4 -8 0 0 0
1532257858772378 -4 -3 2 -2 -1 -35 -8 -3
1532257858787339 -2 -3 -4 -4 33 66 7 1
1532257858809280 3 2 3 6 3 17 4 2
1532257858839200 -2 1 0 -1 -4 -27 -4 1
1532257858877099 3 0 0 7 -6 -29 3 1
1532257858900037 -1 14 0 -7 -11 -32 -2 -3
1532257858944918 0 -4 -5 -4 -3 -30 -2 -2
1532257858981819 0 -8 17 -2 -21 -15 -4 0
1532257859004758 2 -3 -1 12 18 14 25 7
1532257859072593 -3 -19 3 -9 -5 -7 7 -2
1532257859094517 -4 0 15 -13 -21 -46 -20 -6
1532257859132416 2 14 11 -10 -14 -13 0 1
1532257859162336 -2 -6 -1 5 -7 12 17 0
1532257859184277 1 -4 -4 -5 2 -23 5 1
1532257859199238 -1 0 5 7 -14 -42 0 1
1532257859252096 4 5 21 31 7 -27 0 2
1532257859275035 -2 -13 -28 -12 -4 15 -8 -3
1532257859296975 -1 4 1 -24 -7 -21 3 0
1532257859334882 -2 -7 -16 -7 -5 -4 -1 -2
1532257859349834 -2 0 -16 2 -3 14 -4 -1
1532257859401695 -1 3 -4 -1 -10 23 -1 -1
1532257859439595 -4 8 5 2 5 -31 -16 -3
1532257859477493 -1 -5 -1 -16 -10 -44 -15 3
1532257859492454 -10 -5 -6 -8 22 52 -34 -15
1532257859537334 -5 -1 -2 4 -9 5 22 2
1532257859559275 0 0 -2 -8 -26 -52 19 -1
1532257859627093 2 7 11 3 1 11 -6 0
1532257859664992 2 5 3 2 1 12 3 1
1532257859686933 0 -2 13 0 -11 -20 2 0
1532257859716854 -7 -9 -11 -7 -3 6 -10 -3
1532257859769712 0 -1 -1 1 -4 -62 -6 -1
1532257859814591 0 -1 -2 -1 9 28 0 1
1532257859837531 -1 -4 -5 1 1 61 6 1
1532257859882410 -4 1 3 4 3 20 12 0
1532257859934271 12 -5 -2 0 4 28 5 1
1532257859949232 -7 -10 -5 -2 9 29 6 3
1532257860032010 23 1 1 0 3 -10 -4 10
1532257860069909 3 -5 0 -3 1 -12 -1 -2
1532257860106810 -48 -3 -2 -2 -6 -4 4 -17
1532257860144717 5 2 2 -4 -15 -13 -18 4
1532257860174629 -48 -3 -1 -2 -8 -68 -14 -28
1532257860204549 -4 -5 -2 -1 -2 4 -4 -1
1532257860234469 3 5 2 -2 0 -4 1 1
1532257860264389 -2 1 2 -1 1 16 -9 6
1532257860294309 13 -2 -2 0 6 16 2 7
1532257860332209 17 -1 1 1 3 12 -5 13
1532257860369119 20 -1 -2 -1 -3 -64 -12 12
1532257860384069 -4 -3 -1 0 -5 -32 4 0
1532257860429946 20 0 2 5 17 25 11 9
1532257860459866 9 -19 -25 -8 -13 -73 -9 -6
1532257860556608 -54 -13 -15 4 7 42 17 2
1532257860609482 19 -19 7 5 1 27 -10 17
1532257860662324 13 -13 -8 -1 -2 0 -55 3
1532257860849823 -1 -1 0 -2 -5 -14 -3 -6
1532257860946573 -1 -1 -3 -8 -11 29 -16 -2
1532257860962530 1 2 -6 8 20 27 8 5
1532257861014391 -1 -4 -1 2 28 16 6 2
1532257861052290 -5 -4 -13 -7 -3 13 -2 -7
1532257861089191 -1 0 -2 -4 -5 -18 -1 1
1532257861112130 1 -7 -7 2 16 25 5 0
1532257861142050 0 -1 1 -9 6 -3 0 -1
1532257861157010 1 1 -2 -2 -19 -12 -3 0
1532257861171970 -3 -2 -7 -5 -9 14 -1 -3
1532257861201895 -1 0 -2 -1 5 6 -1 1
1532257861224829 2 2 0 -3 -9 -12 -8 -2
1532257861262727 -2 2 1 0 17 50 17 -10
1532257861291650 1 1 -2 1 -1 -17 1 -1
1532257861314589 -3 -3 -2 -2 -7 -8 -3 2
1532257861337527 0 -2 0 -1 -7 -38 -4 1
1532257861367447 -1 -1 -2 6 3 1 -2 -1
1532257861382407 -1 0 -1 0 -1 -6 -4 0
1532257861404348 -2 -2 0 -1 -2 -10 -5 -3
1532257861427287 -1 -2 0 -1 2 26 0 -2
1532257861449228 -2 1 -2 -2 -15 -25 -3 -2
1532257861487127 0 1 -1 0 -1 4 -2 0
1532257861509069 -3 -2 -1 -8 -18 -20 -1 5
1532257861532007 0 1 4 8 -7 10 -2 4
1532257861554945 2 -1 2 1 -7 -6 -5 10
1532257861576887 -1 -2 1 -2 -5 -1 -9 -10
1532257861621767 -3 -2 -2 -3 6 5 -3 -1
1532257861651688 2 2 0 4 5 16 -1 3
1532257861674625 0 -1 -1 1 -2 4 1 0
1532257861689585 -3 1 -1 -4 3 -5 -1 -1
1532257861704546 0 -1 -2 0 -4 -13 -8 -1
1532257861727484 -1 1 -2 -2 -6 -40 -6 -2
1532257861757404 0 -1 0 2 -3 23 2 -1
1532257861772364 0 1 -1 -3 1 -4 -1 2
1532257861794305 -2 0 -1 2 1 11 -2 -1
1532257861817244 -3 -1 -1 0 0 9 -2 -2
1532257861839185 1 0 -1 -1 0 -5 -5 0
1532257861869106 1 -1 0 -1 -3 -21 -3 -2
1532257861885063 -1 -2 -1 -1 -2 1 -4 0
1532257861929943 0 -2 -2 -1 4 8 -2 1
1532257861944903 -2 1 0 4 3 16 2 -1
1532257861966844 -2 1 0 0 0 -10 0 1
1532257861996764 -1 -1 0 -2 2 -9 -1 -4
1532257862019703 -1 -2 -1 0 -2 -2 -1 1
1532257862041644 0 0 -2 0 -1 -3 -4 -1
1532257862056604 1 -2 -1 -1 -12 1 1 -2
1532257862071564 -1 -1 0 4 6 14 1 0
1532257862094503 0 0 -1 -2 1 -8 -4 -1
1532257862109483 -1 -2 -3 -2 -6 -11 -3 -3
1532257862132401 -1 -1 0 -2 -3 -11 -1 1
1532257862162322 0 -1 1 1 5 -3 -1 -1
1532257862184262 -2 -1 -1 1 -2 -1 0 3
1532257862207202 -2 -1 -2 0 4 -2 1 1
1532257862237122 -3 -1 -1 -3 -3 1 1 -3
1532257862260060 -1 -2 -1 -2 -1 3 1 -5
1532257862289980 -2 0 1 -2 -12 -3 -2 -2
1532257862304940 0 -3 -2 0 2 13 1 1
1532257862319901 -1 -3 -1 0 0 -9 -1 0
1532257862334860 -1 -2 -1 -1 -6 -15 -1 0
1532257862349820 -2 2 -3 -1 0 -2 -3 -2
1532257862371761 1 -1 -1 -3 -1 -7 2 -1
1532257862386721 -1 0 0 0 -2 5 -2 -1
1532257862409660 -2 -2 0 1 3 11 -1 -1
1532257862431602 -1 -1 -1 -3 -1 1 1 -1
1532257862446561 -1 -1 -2 -1 5 9 2 -2
1532257862469500 -1 0 0 4 1 -5 2 -1
1532257862492439 -1 -3 -3 -4 2 19 -2 -3
1532257862514380 -2 -1 0 1 0 -1 -1 1
1532257862537319 -2 0 -1 -2 -2 -20 0 -1
1532257862559260 -2 0 0 0 -4 23 -3 1
1532257862604140 -2 -2 -3 -1 -5 -3 -3 -1
1532257862635074 0 -3 -1 0 -2 -5 1 1
1532257862664977 2 1 -1 -3 -5 -2 -1 -2
1532257862686919 -3 -1 0 2 14 16 0 -2
1532257862739777 -2 0 1 -3 -4 -5 -2 -1
