1532260874150502 0 5 15 3 5 -2 -1 -2
1532260874195381 -1 -16 -29 1 11 2 1 2
1532260874250235 -1 -4 -14 -5 -5 0 -3 -2
1532260874267190 -6 -12 -30 -47 -2 -4 -2 -5
1532260874293120 8 10 33 50 48 13 5 6
1532260874315062 -3 3 22 -20 -27 -10 -4 -4
1532260874338000 -2 1 -7 -4 -11 -1 -2 -2
1532260874390859 0 4 8 -26 -26 -7 -2 0
1532260874453691 23 12 -23 -3 4 1 1 4
1532260874513530 1 14 6 -3 -1 0 -2 2
1532260874540459 -5 -2 -14 -5 -4 -1 0 -1
1532260874570379 5 3 1 -3 -2 -1 1 2
1532260874600302 -1 -13 -2 -8 -9 -4 -2 -2
1532260874615259 -1 2 11 15 7 5 3 1
1532260874630219 -3 9 3 2 1 -1 -1 0
1532260874690059 -8 4 3 1 8 1 -1 -3
1532260874750897 -10 -18 -19 -12 -6 -3 -2 -14
1532260874810736 1 6 -1 3 -2 0 -3 -2
1532260874833675 -1 3 4 4 0 1 4 13
1532260874855616 0 -6 4 1 2 0 2 1
1532260874930417 15 -5 1 -2 0 -1 -2 0
1532260874977291 -7 -2 -1 5 1 -2 -2 -15
1532260874990256 -11 -2 0 3 -3 -2 1 -9
1532260875080016 -9 -45 2 1 1 -2 -7 -28
1532260875192715 19 -82 -1 -4 3 11 3 9
1532260875222635 -19 -98 -16 -16 -14 -12 -18 -21
1532260875290454 -2 11 49 2 2 39 25 -39
1532260875328352 -46 27 -16 -6 -4 -7 1 -1
1532260875358272 33 11 -26 -8 -7 -14 -12 -3
1532260875373232 -14 -22 -38 -6 -3 -2 -6 40
1532260875388192 7 58 -15 7 1 -5 6 24
1532260875448033 -1 -18 26 5 -3 -11 -13 -12
1532260875500890 -45 -45 -92 -3 -1 -1 6 5
1532260875560731 -12 -7 37 2 7 8 6 -9
1532260875612591 37 12 0 0 1 -7 -4 36
1532260875642512 -42 2 0 2 4 0 -3 -54
1532260875657472 45 -3 4 3 -2 -49 2 12
1532260875710330 -49 -1 8 3 0 -25 -10 -7
1532260875740251 -26 0 15 -4 -12 -109 0 -25
1532260875770170 7 -5 -18 -1 6 28 -9 10
1532260875793110 14 2 41 5 -5 -38 3 -4
1532260875882869 0 0 -17 4 2 -36 -6 4
1532260875898842 28 2 -12 2 7 38 0 15
1532260875942726 -14 4 -5 4 4 26 -3 -4
1532260876011542 -2 -2 -5 0 0 -11 0 -5
1532260876055444 -8 -96 -9 -3 -1 4 1 -2
1532260876085364 5 24 14 2 0 -1 0 -5
1532260876115283 -1 -37 -16 -1 5 -1 1 3
1532260876145203 2 35 5 -4 5 2 9 -3
1532260876175123 7 3 9 1 -1 -2 20 4
1532260876213022 -3 -4 7 3 -2 -5 -37 -10
1532260876296799 -12 -6 4 4 -1 1 -21 -6
1532260876317742 2 33 11 24 8 4 -2 -3
1532260876370601 3 -48 3 1 4 7 26 13
1532260876469337 -12 -124 -18 -15 -10 -8 10 -1
1532260876490280 -18 -22 -33 -11 -7 -10 7 -2
1532260876580041 -9 47 6 -10 -5 -6 7 -20
1532260876602980 15 -9 22 6 1 -2 -3 16
1532260876647860 -15 -21 -20 -13 -8 -17 82 -11
1532260876664814 21 116 20 0 -1 14 17 -42
1532260876692739 16 14 -1 -2 -2 0 -4 23
1532260876730638 5 -27 -44 -12 -11 -20 37 7
1532260876790477 -15 -62 -10 -12 -11 -2 84 12
1532260876812419 24 -4 -2 -3 1 19 -4 7
1532260876843336 -23 -13 -1 6 2 3 -33 -5
1532260876933096 -2 -49 12 8 -1 -33 11 -24
1532260876969998 2 -1 9 2 -3 0 -8 8
1532260876986952 -14 61 -7 -5 -9 -22 -23 -39
1532260877030835 -11 76 -17 -12 -8 6 -13 -57
1532260877052777 -16 -46 -9 -6 3 8 51 20
1532260877097657 5 -68 -21 -4 -2 7 2 32
1532260877127577 3 -28 15 5 1 2 33 28
1532260877255247 15 72 20 4 0 -5 13 38
1532260877293134 -16 -12 -7 0 -4 -2 -29 -44
1532260877315075 9 1 11 -1 -6 -5 23 58
1532260877369929 -6 -13 -1 -1 0 1 -5 -22
1532260877502575 -4 -5 8 7 3 -3 -2 -22
1532260877600312 0 15 47 -7 -3 -2 2 8
1532260877660152 -1 -27 15 -13 -4 -2 -1 -3
1532260877787811 7 2 17 -3 0 2 2 -9
1532260877832691 -4 27 -6 3 0 -4 -1 3
1532260877892530 10 13 -3 1 1 0 3 17
1532260877907491 4 -10 18 4 2 0 1 3
1532260877923448 -12 8 2 -4 -1 -1 -3 -10
1532260877945390 -11 -12 -3 2 2 1 1 -11
1532260877975310 -7 28 11 1 -1 0 -1 -8
1532260878043127 15 53 85 14 7 4 4 9
1532260878088008 2 -16 -20 -5 1 0 -6 -5
1532260878102968 -6 2 -28 0 -2 -6 -8 1
1532260878177769 -3 2 -42 -5 -4 -3 -2 13
1532260878267529 -13 8 -8 0 1 3 -1 -3
1532260878358286 0 -15 -7 -2 -1 -1 -3 -4
1532260878440068 4 -11 -41 -3 0 -1 2 10
1532260878463005 10 23 18 3 1 1 -3 0
1532260878500915 6 -6 18 10 3 1 1 4
1532260878545784 -11 4 21 -4 -2 -2 0 -11
1532260878560744 -5 -13 -13 1 3 -1 1 -5
1532260878612606 15 10 9 -5 -2 -1 -10 -44
1532260878635552 -6 -8 -27 -12 0 11 16 68
1532260878665473 26 -5 4 2 2 -8 -1 24
1532260878680432 -22 -5 -38 -13 -2 -8 1 29
1532260878710352 -18 -18 9 4 -2 -6 7 17
1532260878740273 3 14 10 3 1 -3 -3 26
1532260878785152 -11 18 1 -4 -3 -4 -13 -18
1532260878859952 -5 -22 -5 0 -1 -1 -3 -47
1532260878897851 -15 44 0 -4 -2 -3 0 34
1532260878921787 7 -24 -14 1 2 0 -8 -94
1532260878980629 -2 58 50 1 -1 -3 -1 10
1532260879002570 5 8 -2 -8 -4 -5 1 -21
1532260879085390 -12 -6 7 1 -2 -1 -3 8
1532260879168168 3 -26 14 -2 -2 -2 -5 -10
1532260879190109 14 20 15 2 1 1 3 66
1532260879220030 -35 -7 -6 -3 -3 5 -4 -92
1532260879249950 15 -3 11 6 0 0 -2 58
1532260879310786 0 -7 3 -1 -5 -7 -7 -1
1532260879409523 -8 3 -11 -4 0 0 -6 7
1532260879565107 10 -25 -13 -3 2 1 -5 18
1532260879595027 -1 22 32 4 2 -1 2 7
1532260879617965 -9 -25 -24 -1 0 1 2 -11
1532260879700744 20 3 9 2 1 4 8 66
1532260879722686 5 -2 6 6 4 0 -2 9
1532260879775550 2 2 -6 -5 -5 -8 -8 -46
1532260879790505 -5 10 8 -1 3 4 -1 20
1532260879835384 3 2 0 -1 -1 2 3 19
1532260879918162 -4 -1 6 -2 0 2 1 7
1532260879955064 -27 28 22 2 -1 1 3 -1
1532260879992963 -3 8 10 2 0 0 -1 5
1532260880014905 7 -10 -3 -4 -1 2 -3 -4
1532260880029864 1 2 2 1 1 -3 -1 -4
1532260880067763 5 2 2 0 1 1 1 2
1532260880090701 -3 -27 -7 0 -1 1 -1 1
1532260880195422 -3 -5 -13 2 0 -1 0 0
1532260880278200 -3 9 -6 -3 0 -1 -2 0
1532260880293160 1 36 20 0 0 1 -1 -1
1532260880308120 -1 3 7 -2 0 -1 0 -3
1532260880382920 16 -5 -4 -2 -2 -2 0 20
1532260880442760 -9 -12 -12 1 0 1 -5 1
1532260880481656 -5 -24 -18 6 2 0 -6 -39
1532260880525539 -5 18 17 0 3 5 4 29
1532260880547480 -9 12 6 1 0 -12 1 3
1532260880578403 3 0 -16 -3 2 1 0 2
1532260880593358 6 16 24 7 2 2 -3 -7
1532260880615299 -13 -11 -28 8 0 0 1 2
1532260880638238 0 -6 3 -5 -3 0 -2 -9
1532260880653197 5 6 -5 -3 0 0 -1 2
1532260880734979 1 4 1 -9 -5 -1 2 1
1532260880772877 -1 -11 -18 -4 -4 0 -1 0
1532260880870616 -14 -25 -45 -2 -4 -2 -3 -4
1532260880968354 1 10 0 -1 0 -1 -2 0
1532260881109976 1 27 8 -4 -2 -1 0 2
1532260881132914 8 8 6 3 -1 1 -2 1
1532260881200733 6 11 13 3 1 -6 2 0
1532260881260573 1 -2 -16 -7 -2 -5 -2 -2
1532260881290493 -13 -9 -46 -6 -1 2 1 -4
1532260881395213 -9 -15 -13 -5 -1 1 -1 -8
1532260881410173 0 11 20 -1 1 33 3 -46
1532260881425133 11 12 14 1 -9 86 -14 -43
1532260881552791 10 -3 4 6 3 -25 4 61
1532260881620610 1 2 -3 -1 2 -2 2 9
1532260881672472 -3 -1 7 -1 -2 -1 2 5
1532260881687431 4 -3 -8 -5 -2 -3 2 1
1532260881710371 -3 -5 -2 0 1 0 4 -1
1532260881733309 -3 -2 -6 -4 -5 -8 -5 1
1532260881748269 -1 -5 -5 -4 1 -1 0 0
1532260881800129 0 -4 -7 -5 -1 -2 0 7
1532260881823069 -5 -1 3 -1 -5 -10 -3 8
1532260881852989 -2 -1 2 -1 1 8 3 -2
1532260881874930 4 -4 -6 -2 -2 -1 -1 5
1532260881897869 1 -7 0 -3 -1 -1 -2 3
1532260881927789 -1 -17 -9 -1 0 -2 -3 3
1532260881957709 -8 -30 2 -3 0 -1 0 -4
1532260882004583 4 17 -10 -3 0 1 1 2
1532260882026525 0 2 13 -4 -5 -5 1 2
1532260882048467 1 -28 -2 3 4 0 0 0
1532260882108306 0 13 9 6 1 3 0 -1
1532260882130247 -2 9 15 -14 -5 -6 -5 -1
1532260882153186 0 5 -5 5 2 0 0 -1
1532260882183106 -1 6 3 3 2 1 1 1
1532260882234967 2 11 9 3 1 0 -1 -1
1532260882296802 -3 -14 -1 1 0 -1 -1 -2
1532260882325725 -11 -11 -47 3 -2 -1 0 -17

1532260882392546 12 -8 21 -9 -10 -24 -21 -21
1532260882415511 -8 3 -18 -7 1 -9 -13 -12
1532260882437452 11 6 4 -11 -3 -5 -1 17
1532260882468369 2 -14 41 13 2 0 -4 3
1532260882506269 4 2 -7 5 1 -2 -1 0
1532260882528210 -1 5 -8 5 5 4 1 1
1532260882558129 2 -4 8 5 0 -3 -2 0
1532260882632930 3 1 15 -12 -7 -1 -1 -2
1532260882737650 -2 3 19 -1 0 3 -2 -2
1532260882880269 -2 -2 -7 -1 2 2 -4 -4
1532260882903207 -3 -14 7 11 -1 -2 2 -2
1532260882925148 -1 4 9 -7 -3 1 1 1
1532260882984988 1 0 -6 3 1 0 1 0
1532260883007927 -2 -7 -32 2 -2 -1 -3 -4
1532260883052808 0 0 9 8 3 -1 0 -2
1532260883082727 0 4 5 -1 0 -1 0 0
1532260883105682 -2 5 25 1 2 2 -1 -2
1532260883157527 -2 -2 15 2 -1 -3 -1 0
1532260883248284 3 -5 11 -9 -2 1 -2 2
1532260883330065 -4 12 8 2 7 33 -2 -3
1532260883345026 -2 11 -19 -5 -8 -32 -9 -9
1532260883427805 -2 -2 78 3 8 6 0 -3
1532260883496621 -1 0 17 -9 -7 1 2 5
1532260883540503 2 7 10 0 0 0 0 -3
1532260883661180 -1 12 11 0 5 2 0 -1
1532260883802801 0 7 5 -20 -8 -4 -1 -1
1532260883870620 8 10 0 -3 -1 -2 0 3
1532260883983319 -18 -25 -22 -11 -2 1 -2 -5
1532260884096018 -1 1 7 1 0 -1 -1 -1
1532260884147880 6 7 21 18 0 -1 3 9
1532260884207719 -1 0 -2 4 -1 -3 -1 -20
1532260884239634 11 8 6 6 0 3 1 9
1532260884328396 -9 15 11 3 -2 0 0 -2
1532260884440097 -45 -43 -6 -3 -1 -3 -6 -5
1532260884484977 -52 -42 -1 -23 -11 -7 -6 -20
1532260884499937 -2 -44 16 14 4 3 -2 2
1532260884530854 -39 -95 6 9 5 4 -4 -32
1532260884597676 -10 127 -21 -25 -4 -3 2 3
1532260884680455 -22 -51 -56 -6 2 6 9 11
1532260884711372 29 8 12 -1 1 -2 -1 -21
1532260884763233 42 -14 0 -5 1 -5 -8 5
1532260884793153 -35 -11 -15 -7 -5 2 -1 -14
1532260884867954 -20 1 -4 -6 2 2 12 -15
1532260884905852 -4 6 25 5 3 -1 -8 -10
1532260884980651 16 11 7 0 -6 -7 0 13
1532260885040492 -28 0 14 2 -1 11 -1 -23
1532260885056449 53 -3 0 1 2 -9 -11 21
1532260885108311 -24 4 5 -3 -1 -25 -10 -10
1532260885123271 -5 -3 6 -3 -4 -5 -2 -1
1532260885183111 -7 -2 -2 -2 1 9 9 5
1532260885272871 -1 114 3 -1 3 4 -2 -4
1532260885302790 3 18 2 7 6 6 6 -2
1532260885317750 1 -8 -3 -6 -9 -7 -20 -4
1532260885332711 -1 19 -2 -6 -2 -4 24 3
1532260885355649 6 85 20 12 6 9 -4 14
1532260885378589 8 -4 -5 -7 -3 -24 39 7
1532260885454385 0 -8 12 7 2 -1 -3 -7
1532260885513228 3 -61 -11 -1 -6 -4 -29 3
1532260885633904 1 43 -1 -3 4 17 24 -6
1532260885670806 0 -45 -24 -6 -6 -7 -96 -8
1532260885700726 -14 27 0 3 4 21 31 -16
1532260885752588 2 48 2 4 -1 -6 -81 4
1532260885910167 9 -5 -3 7 -1 2 -4 23
1532260885933104 -15 -62 -30 -13 -4 1 9 14
1532260886045803 -3 23 5 3 2 1 7 -43
1532260886097664 6 24 10 4 5 7 -4 17
1532260886135564 1 71 -3 -3 0 5 4 41
1532260886172465 16 17 39 18 5 0 5 12
1532260886225323 7 18 14 3 1 4 13 27
1532260886255245 10 -5 4 2 1 2 -2 14
1532260886338022 13 29 21 6 1 -2 -13 19
1532260886376918 4 -35 -14 -6 -4 -8 -3 -1
1532260886427782 3 3 4 4 2 3 7 4
1532260886459697 1 7 -15 0 0 -1 -2 -8
1532260886480640 6 23 13 5 0 -1 -1 5
1532260886608299 7 5 13 2 2 0 -1 3
1532260886645209 -2 5 33 -3 -1 0 1 -4
1532260886734961 1 8 -34 -3 1 2 0 1
1532260886772860 5 13 10 4 -2 -1 0 2
1532260886825718 -10 -29 -42 -6 -4 -1 -1 -4
1532260886855638 -1 -10 51 3 -3 0 0 0
1532260886870598 6 16 51 55 16 1 1 2
1532260886885558 -2 -18 38 -17 1 2 7 5
1532260886922460 -23 19 11 -2 0 1 -1 0
1532260886945399 13 3 11 4 5 3 0 1
1532260886968336 0 -16 -75 -12 -5 0 -5 -4
1532260886990278 -1 -14 -2 -1 3 1 0 -11
1532260887013217 6 21 19 1 0 -4 -3 21
1532260887050118 -16 -24 -77 3 1 -1 0 -1
1532260887109958 -1 28 26 -11 -6 -5 -3 -12
1532260887132897 8 -17 -36 -4 -1 -4 -3 -12
1532260887170795 -28 -39 -2 -5 -1 0 0 -5
1532260887200715 5 1 1 1 1 0 -4 3
1532260887230635 11 -21 -15 -8 -6 -4 -3 2
1532260887269531 -5 49 46 7 1 0 2 6
1532260887358294 6 21 -47 -2 0 1 -5 -28
1532260887425115 -9 -17 -23 -6 1 1 2 11
1532260887501910 3 28 16 24 1 -10 2 7
1532260887545807 1 -14 31 -1 0 -3 -3 0
1532260887567734 -14 -32 -30 5 -5 2 -1 -81
1532260887597654 22 49 -5 -4 0 2 -8 24
1532260887620592 12 -13 17 0 2 -1 -10 -37
1532260887672454 -17 -10 -30 -1 1 -2 6 56
1532260887710353 -23 49 11 -1 1 1 23 -7
1532260887763211 1 5 3 -1 3 2 -1 -18
1532260887808091 -7 -39 29 5 -1 -1 -1 55
1532260887875910 2 31 -18 -1 -2 0 -3 10
1532260887920789 -1 -66 -17 -1 2 -1 0 22
1532260888010549 -9 17 37 12 2 -2 0 0
1532260888040470 -2 17 -8 -6 -4 -3 -3 -3
1532260888109286 25 19 5 0 -3 0 -2 18
1532260888175110 14 -12 -16 0 -2 -3 -6 -39
1532260888242928 -7 1 -5 -3 0 -1 0 -11
1532260888265867 -7 -9 7 0 -1 1 5 -23
1532260888355631 7 26 32 2 1 0 1 -2
1532260888424443 4 -3 -24 -5 1 -2 -3 -12
1532260888475309 19 0 -2 -1 1 0 2 25
1532260888520187 4 6 22 5 1 -10 6 5
1532260888573045 11 14 15 6 2 -3 5 11
1532260888663803 -2 -5 -1 2 1 -1 1 -3
1532260888707686 3 -6 35 3 -2 -3 -6 5
1532260888843323 3 -13 -20 0 0 -2 0 -2
1532260888888203 2 -12 -6 -2 -5 -4 -3 -3
1532260888955024 6 2 16 3 -1 -1 -3 2
1532260889097643 -5 -1 4 -1 -1 -1 11 -9
1532260889165461 -11 4 -3 -1 -2 -1 1 -14
1532260889203359 -1 -11 -30 -5 -2 2 2 2
1532260889285141 0 2 -7 -5 -3 0 1 11
1532260889457680 16 7 8 -1 -5 -2 -2 -2
1532260889525498 -8 -6 16 -7 -2 0 0 -3
1532260889638197 -3 -17 -10 -12 -3 -1 -2 -3
1532260889780815 -2 -5 -5 -18 -37 14 1 -2
1532260889840656 -13 -29 -41 1 -15 12 1 -2
1532260889968314 -4 -12 -17 -4 3 0 1 -1
1532260889998234 2 6 -2 -5 -4 2 2 2
1532260890050096 -1 -28 -15 -4 0 2 -2 -3
1532260890080016 2 0 5 -3 -1 0 2 0
1532260890155813 1 20 14 7 1 1 -2 2
1532260890185733 -11 -31 -16 -4 0 0 0 0
1532260890222634 2 -4 -7 4 15 2 -1 1
1532260890261530 10 12 2 1 -5 -2 0 2
1532260890297434 -2 -8 -40 -4 -5 -3 -2 3
1532260890350293 0 2 -12 3 -5 -3 0 -1
1532260890395173 -5 -2 -2 2 -2 3 -1 -2
1532260890515861 3 6 0 1 -5 3 1 1
1532260890582672 -5 11 6 8 -2 -3 -4 -12
1532260890665449 1 -4 8 6 0 7 3 1
1532260890740250 4 15 5 2 1 -2 1 1
1532260890800090 1 -24 -28 0 -1 0 -1 -1
1532260890830010 0 4 -5 1 -1 1 1 2
1532260890890847 3 -49 61 -2 -4 -1 -23 33

1532260890965651 5 4 -22 -40 -6 13 11 1
1532260891153146 -2 0 0 0 0 2 4 -1
1532260891175087 0 2 3 1 -2 5 1 -5
1532260891242906 0 3 1 -6 -3 -1 -5 1
1532260891265845 -1 1 17 5 2 -1 0 0
1532260891280804 -3 -6 -9 4 5 -1 -3 -2
1532260891295765 3 -12 -15 12 2 -1 1 0
1532260891355621 3 2 4 -8 -5 -2 1 2
1532260891377546 1 -3 -23 -5 -2 0 0 -1
1532260891400484 -4 -2 -36 -8 -1 -2 -1 -3
1532260891445365 2 -1 29 4 2 -3 -2 0
1532260891468303 0 -1 -26 -2 -1 0 3 -1
1532260891520164 1 -7 -20 -2 -2 -1 -1 -1
1532260891550085 -2 2 0 1 0 -2 1 0
1532260891587983 1 9 18 -18 -4 -1 -2 -1
1532260891640842 -1 -8 44 43 6 -2 -1 0
1532260891732597 2 2 3 -2 -1 -9 1 -1
1532260891850282 -1 1 -20 -4 -2 -3 -2 -2
1532260891895162 -5 8 -11 0 -1 4 -1 -21
1532260891933060 -1 -3 -51 3 4 6 2 5
1532260891985919 -4 0 5 -2 -1 4 3 2
1532260892008858 -2 -1 12 -2 -2 0 -7 -14
1532260892097620 2 -1 -11 -1 -2 -2 2 2
1532260892188395 -4 1 -1 1 0 0 0 -1
1532260892225279 -1 2 -6 -2 0 -2 -1 2
1532260892317034 -3 4 -3 1 -1 -2 -2 0
1532260892412777 0 11 52 0 -3 2 0 -1
1532260892480612 -1 -1 -13 1 1 7 3 0
1532260892495556 -3 2 9 -1 0 0 2 0
1532260892540436 4 17 -2 4 0 -2 1 -1
1532260892585324 -1 -13 -60 0 0 -2 0 0
1532260892615237 -3 -1 -11 1 0 -1 -1 -4
1532260892645156 -1 -3 -10 2 2 13 3 0
1532260892675076 -1 0 -6 0 2 1 -1 -3
1532260892727935 2 0 1 0 0 -4 0 -2
1532260892780794 -3 -2 -9 -3 -2 3 -1 -4
1532260892862575 1 5 37 0 -2 -1 1 0
1532260892885514 0 5 32 -3 -1 -1 -2 -2
1532260892930401 3 6 3 -3 -2 5 1 1
1532260892983252 1 11 70 -2 -5 -4 0 0
1532260893035114 -3 -1 -6 -1 -1 -3 -2 -2
1532260893067029 -3 -12 -42 -7 0 -1 0 -2
1532260893087972 -1 -10 -14 -3 -2 5 4 6
1532260893109913 -6 0 20 0 2 -4 -4 -13
1532260893132852 0 0 -2 2 0 1 1 3
1532260893147812 -4 2 -7 -4 -1 -1 0 -2
1532260893185711 0 8 23 -1 -1 -2 -4 1
1532260893237572 -1 -4 -13 -2 0 1 -1 -1
1532260893252532 -2 -3 -29 -3 0 -1 2 -1
1532260893282453 -5 2 6 0 0 -3 0 0
1532260893305395 0 1 -3 0 -1 -4 -1 -7
1532260893335310 -1 2 4 0 0 2 -2 -3
1532260893358249 3 -4 11 2 0 -2 -1 -1
1532260893395151 0 5 37 1 0 2 0 -2
1532260893418089 -1 -3 2 -2 -1 -3 -1 -1
1532260893448009 0 6 8 3 0 1 0 -1
1532260893484911 0 -8 -26 -3 2 4 4 7
1532260893507849 -2 0 -10 -2 0 2 1 -4
1532260893537769 -1 0 -5 1 -1 -1 -2 0
1532260893560708 1 -1 -2 -2 -2 -4 -2 0
1532260893597609 0 -2 -14 -1 0 -2 0 0
1532260893612570 -2 1 -1 1 0 7 0 -1
1532260893674404 -2 -8 -5 0 1 2 -3 -1
1532260893733247 -6 -3 3 -4 -2 2 -4 -1
1532260893793086 1 -6 -5 1 -1 2 2 -1
1532260893823007 0 -9 -4 -5 -2 0 4 3
1532260893860905 -2 1 -7 0 2 0 0 -1
1532260893875865 -2 -1 -9 0 0 -3 0 -1
1532260893905786 -3 -5 -16 2 1 -1 2 2
1532260893920745 0 -1 7 -2 -3 0 -1 -1
1532260893942687 -4 1 -3 0 -1 -1 -1 0
1532260893980585 1 0 8 -1 -1 -5 -1 1
1532260894002527 -2 -6 -2 -3 -4 0 -2 -1
1532260894017487 -5 -16 -4 2 1 1 -1 -1
1532260894078335 0 6 -2 -1 0 1 -4 -2
1532260894115225 0 -5 7 -1 0 -2 -3 0
1532260894145145 -2 -1 -2 0 -1 -5 -1 0
1532260894204984 3 -6 -20 -3 -1 -3 0 -2
1532260894220942 -3 16 1 1 0 1 -4 -3
1532260894272804 -1 -27 -37 -6 -1 0 1 -1
1532260894302724 0 -8 -36 -1 -1 0 2 0
1532260894370542 0 0 -8 -3 0 -1 0 1
1532260894408440 -2 9 17 2 -3 -2 0 1
1532260894453321 1 -6 45 -13 -6 0 -1 0
1532260894475262 -1 0 -8 -3 -1 -1 -1 -2
1532260894505182 -2 14 5 -4 -3 -7 -7 -3
1532260894520142 1 -9 3 4 0 -1 0 5
1532260894573000 0 17 -15 0 0 0 -2 0
1532260894587962 1 6 -9 -1 -3 -4 -3 1
1532260894602921 -4 -8 -4 0 0 14 4 -2
1532260894640820 -2 11 51 3 4 2 -1 -2
1532260894655780 -2 -12 -19 -3 1 -4 -1 -3
1532260894730579 -2 2 -11 49 8 3 0 0
1532260894752521 2 -11 -1 0 0 -4 1 2
1532260894767480 -2 24 33 -5 -4 -1 -3 0
1532260894790419 -5 -24 -87 -7 -3 -2 -1 -1
1532260894813358 -1 21 18 13 -1 2 -2 -2
1532260894828325 -2 -13 -51 -11 -6 -12 -2 -1
1532260894850259 -2 7 27 0 3 -13 -1 19
1532260894880180 -10 53 -26 -7 3 87 36 -25
1532260894962957 7 6 -78 -12 -5 9 -14 10
1532260894978916 -1 12 86 -33 -10 -15 0 4
1532260894992878 1 48 42 64 7 -5 -1 -11
1532260895030777 1 -4 -5 -26 3 -6 2 3
1532260895045737 0 -4 24 3 -2 -4 -2 2
1532260895060697 1 -5 26 -9 2 0 2 1
1532260895097598 -1 -1 -9 2 2 2 -3 0
1532260895150457 -3 -4 14 -10 -2 3 -1 -2
1532260895173398 -3 -4 16 -12 -1 0 0 -1
1532260895203316 -1 0 1 11 12 3 0 0
1532260895248195 2 1 14 -1 0 1 0 -1
1532260895278116 0 0 -1 -15 4 2 1 -1
1532260895329977 5 3 -1 -6 0 -1 -1 -1
1532260895344937 -9 -5 0 2 3 0 -1 -2
1532260895367875 -1 -11 -11 24 8 5 0 0
1532260895382835 -2 2 -2 0 -1 -3 0 -1
1532260895420733 1 4 1 -4 2 1 1 -1
1532260895435694 1 2 1 1 -2 0 -3 1
1532260895465614 -1 0 -3 -3 -5 -2 -1 1
1532260895540414 -4 -4 -4 -2 1 -1 -3 -1
1532260895594270 -4 -1 1 1 0 -1 -1 1
1532260895645134 -4 -5 -5 0 2 1 0 -1
1532260895683033 -4 0 0 -1 0 1 1 -2
1532260895719934 5 0 -4 -1 -1 -2 -1 2
1532260895825651 -4 -4 -1 -2 -1 1 -1 -4
1532260895870531 -4 0 -12 -2 -2 -1 -2 -2
1532260895901454 -5 13 5 2 1 0 1 0
1532260895938350 2 -4 -30 -1 0 0 5 -4
1532260896005172 12 -7 -19 1 4 28 18 11
1532260896020131 -28 13 35 0 -3 -9 -11 -7
1532260896058030 -16 7 -3 -9 -5 -3 4 -4
1532260896102910 14 2 5 12 3 -2 4 25
1532260896126850 -9 29 2 1 3 -4 -8 -40
1532260896155769 -40 78 -2 -1 -1 -4 -3 12
1532260896185688 -25 29 9 1 -2 -4 -4 -14
1532260896252510 20 -50 -2 7 2 0 -10 7
1532260896298404 15 31 -3 -5 -2 0 -3 -5
1532260896313346 -38 -72 3 -8 -8 -6 -1 -19
1532260896365209 -1 -80 -9 3 1 -3 1 3
1532260896404104 38 30 0 14 8 11 27 29
1532260896418067 -26 -85 22 -3 0 2 8 4
1532260896462947 13 89 -47 -2 1 2 2 27
1532260896515806 -10 52 25 1 -1 -4 1 -11
1532260896582627 27 -78 -8 -2 -2 -3 -1 20
1532260896650458 -41 2 35 -3 -2 0 2 6
1532260896695326 13 6 -22 -1 0 2 3 23
1532260896742200 -16 3 -18 2 -1 -5 -14 -15
1532260896778104 -23 1 10 0 4 4 -3 -29
1532260896912744 -21 0 -28 -11 -7 -7 -12 0
1532260896967598 -2 1 -4 3 0 -1 -2 5
1532260896995523 20 -1 13 -5 -2 -2 -3 6
1532260897017464 8 -1 1 2 3 0 4 27
1532260897079299 10 15 11 -2 -3 -5 -3 5
1532260897093261 11 -53 6 3 1 1 2 12
1532260897145123 5 34 3 1 -3 -5 -1 8
1532260897205969 0 -2 5 2 0 -1 0 -4
1532260897251838 -5 3 -9 2 -1 -3 -3 -8
1532260897326648 -2 2 -15 2 10 0 0 1
1532260897347581 -6 -33 10 -1 -5 -2 1 0
1532260897445338 -2 4 14 14 -1 -3 -15 -7
1532260897468258 2 13 9 6 -5 0 9 4
1532260897560014 -3 -59 -7 -7 -5 -3 0 0
1532260897625838 -12 -4 -1 -5 0 -5 -78 -5
1532260897715597 -1 8 10 4 6 11 -38 1
1532260897737539 38 117 33 2 -2 -4 29 7
1532260897790397 18 -112 11 5 2 3 32 -1
1532260897805357 -2 5 -19 -7 -4 -8 0 0
1532260897820317 14 -84 19 3 -2 -18 -23 24
1532260897850237 3 -54 -1 3 3 1 13 0
1532260897888136 -11 -53 -5 6 4 0 42 18
1532260897903096 -8 32 -1 8 1 -8 -12 -1
1532260898022781 1 51 10 -3 -2 2 -6 4
1532260898084611 -11 -68 -13 -2 -6 -6 -27 -26
1532260898114530 -12 -1 -4 -5 -5 0 -14 46
1532260898143453 -1 16 -8 -4 -5 -5 13 23
1532260898195315 5 1 0 1 0 7 4 16
1532260898218252 -9 -2 -1 3 5 5 -23 -25
1532260898255157 6 -3 11 9 6 7 21 -12
1532260898293053 6 -10 6 -1 -3 -4 -5 -22
1532260898314995 -1 -9 11 8 2 7 34 -46
1532260898345917 -1 -24 5 -2 0 1 -10 22
1532260898435672 -2 48 19 4 2 4 -20 -4
1532260898496509 -6 -5 2 0 2 4 -12 20
1532260898555362 0 8 5 7 4 0 -4 -1
1532260898615192 -4 -8 34 -8 -4 10 -1 5
1532260898653090 6 -3 -43 4 0 0 8 1
1532260898675031 6 37 68 3 3 -3 0 0
1532260898735879 3 -8 -54 -6 -2 -2 -2 1
1532260898757810 0 -7 -46 -1 0 0 3 7
1532260898810669 -1 -12 -19 -1 -1 2 -2 -4
1532260898877490 -2 -3 -22 -7 -2 0 1 2
1532260898915389 4 9 -5 -4 -1 -1 2 16
1532260898960268 -9 -6 1 2 1 0 -18 -15
1532260899020109 -15 -11 3 -8 -3 -2 -4 -38
1532260899102888 2 7 5 -1 0 0 3 19
1532260899132808 -14 29 -6 -2 -1 -2 -2 -12
1532260899162728 -3 -14 -29 2 0 0 0 -3
1532260899283405 -2 -31 -4 -6 0 0 -1 13
1532260899365186 0 3 5 -1 -2 0 -2 -1
1532260899502818 12 -3 -14 -6 -3 -4 -2 1
1532260899515784 3 -6 15 -1 0 -2 -1 -15
1532260899537725 7 -8 0 -5 -3 -1 -3 17
1532260899552685 -2 8 -3 -4 -3 -2 -1 -2
1532260899590583 -11 1 -19 -3 -1 0 2 7
1532260899620503 4 -33 -9 1 -1 -3 -3 1
1532260899658402 -7 -2 -4 -2 -2 -3 -1 -9
1532260899703282 1 11 46 -3 0 -1 0 -15
1532260899822962 6 5 12 -2 2 2 3 1
1532260899845901 -21 -3 -60 -5 -9 -9 -10 6
1532260899867842 10 -12 45 4 1 0 1 6
1532260899890781 -5 10 26 1 1 2 3 -8
1532260899920701 12 -7 20 5 1 1 2 8
1532260899950621 4 -12 -9 3 -3 -2 -2 -2
1532260900048359 11 28 13 6 3 0 9 -12
1532260900063319 -15 -13 -14 -3 -1 0 7 15
1532260900093239 12 15 15 4 -2 -2 -5 -6
1532260900109197 -2 -49 3 -1 -1 0 0 15
1532260900123159 0 -4 1 -1 -1 1 5 22
1532260900205942 -47 3 5 0 -2 0 -6 -58
1532260900235858 6 22 0 2 1 -2 -2 22
1532260900355538 16 16 -21 1 1 0 -1 24
1532260900453277 -15 -8 -5 1 1 0 3 -8
1532260900513117 19 20 15 1 -3 -2 3 29
1532260900572956 0 -9 -2 1 -1 0 -5 -31
1532260900595900 2 -10 -7 0 -1 1 2 0
1532260900610855 -6 -23 -18 -4 0 1 -1 21
1532260900655735 -2 7 11 2 0 1 -5 -46
1532260900685655 -9 -19 -28 -2 -5 -3 -1 9
1532260900730535 -1 -6 -45 -3 1 -2 -2 4
1532260900813313 10 6 21 4 0 -2 0 11
1532260900865175 -8 -33 12 3 -1 0 2 91
1532260900895095 -4 -12 40 5 -2 2 4 53
1532260900912049 0 -17 -12 0 3 1 7 39
1532260900935986 4 36 -11 -2 -2 2 0 68
1532260900947954 6 -1 -11 -4 -3 0 2 -14
1532260900992834 1 -4 5 -2 -1 0 10 38
1532260901067634 8 -7 -18 -4 3 -1 -3 42
1532260901173350 -3 -1 -38 -7 -4 -4 -1 -4
1532260901308988 -6 17 -11 4 0 -2 -1 1
1532260901405729 -3 -17 -7 -1 -1 -2 1 -2
1532260901510449 -1 3 19 3 0 0 0 -3
1532260901645090 -2 -4 18 3 0 -1 0 -2
1532260901668028 0 12 -21 -3 1 1 0 1
1532260901727867 -7 3 4 -4 0 1 -1 -2
1532260901742828 -4 -18 -21 2 1 0 -1 -2
1532260901772748 -2 -3 8 14 3 -1 1 2
1532260901802668 -2 13 3 -3 -3 0 -2 -1
1532260901855527 -17 -6 -4 18 1 -3 -5 -2
1532260901885447 -2 7 1 -21 -4 -2 1 -1
1532260901900406 2 -10 3 5 5 0 0 -1
1532260901915367 4 5 6 -1 4 2 1 4
1532260901953265 -5 -24 -58 -3 -5 -3 -2 -2
1532260902005126 0 -7 27 17 0 0 1 -1
1532260902200603 -2 -1 -12 -2 7 -2 -1 0
1532260902283388 -8 -25 -31 -10 -4 -2 -5 -9
1532260902328263 1 17 20 2 0 -1 -1 -6
1532260902410043 5 6 15 5 1 1 4 9
1532260902477863 -5 -2 62 0 -4 0 -1 -5
1532260902523740 0 4 -55 10 1 -1 -3 -36
1532260902582583 2 -13 13 -1 -6 -4 -2 4
1532260902673340 9 20 -15 3 3 -3 -3 -7
1532260902725201 3 0 14 2 1 0 -2 -12
1532260902755123 -2 -3 34 2 2 1 1 1
1532260902830919 1 7 9 0 -4 -7 -3 -1
1532260902890759 0 -4 -8 -5 -1 -5 -3 -7
1532260902957579 -3 -2 3 0 0 -2 -2 -5
1532260903040358 -1 13 -13 0 -1 -5 -1 1
1532260903063296 0 6 -6 2 0 1 -2 0
1532260903093217 -4 -17 -53 -2 -2 -6 -4 -3
1532260903115158 1 7 10 1 0 0 4 2
1532260903160039 4 10 23 -2 -1 0 -1 1
1532260903174998 -3 -6 -46 10 3 1 2 2
1532260903220876 0 -3 -4 -17 -8 -5 -2 -1
1532260903250795 -4 -38 13 0 -3 -3 0 -2
1532260903295676 0 4 15 3 -1 1 -2 -1
1532260903377456 1 -6 37 -3 1 2 -2 -2
1532260903415356 2 19 -18 -2 -1 -2 -1 0
1532260903475196 -13 -4 -38 -3 -4 -2 -9 -26
1532260903498134 18 20 59 10 8 17 22 -1
1532260903528054 -24 -51 24 -7 -6 -7 -6 -32
1532260903549996 -11 0 -53 -26 -11 1 -15 -16

1532260903685633 -4 3 -9 -23 -15 -11 -15 -9
1532260903820273 2 1 5 -1 -2 2 -1 10
1532260903888092 -2 -5 -10 3 2 1 2 1
1532260903955911 0 -13 16 2 2 1 1 2
1532260904143412 1 3 25 -1 -2 0 -1 0
1532260904286027 -1 13 55 -9 -5 -3 -1 0
1532260904352848 2 -7 -31 -3 -4 -9 -6 -18
1532260904390747 2 -7 -21 -3 3 -8 -6 1
1532260904427649 6 18 95 -13 1 5 6 9
1532260904459563 -3 -20 -14 48 21 8 -1 -2
1532260904585227 -2 -2 -5 8 15 4 3 1
1532260904615147 0 -5 -14 6 -4 -1 1 -1
1532260904638085 2 -1 -15 4 -5 4 1 3
1532260904682965 -2 -2 -5 1 2 2 0 0
1532260904705904 -2 0 -3 -1 -4 0 0 -1
1532260904742806 4 -1 4 9 0 0 1 3
1532260904780705 -16 0 -7 -6 -4 0 1 0
1532260904802646 0 -1 -3 5 2 -2 0 -2
1532260904847526 -1 -8 -4 -3 -1 -4 -2 -2
1532260904870465 -1 -5 16 9 -2 2 0 -1
1532260904953243 -2 -14 -64 4 6 3 1 -3
1532260905102842 2 -3 -11 -1 1 3 0 2
1532260905380102 -2 -6 -6 -17 -11 -6 -3 -1
1532260905455899 2 3 3 -7 -1 -1 0 1
1532260905560619 -1 0 1 8 0 -1 -1 -1
1532260905575579 2 0 -2 -1 0 0 -1 0
1532260905605505 -5 -3 -9 -1 1 1 0 -1
1532260905658358 1 -5 -2 -7 -2 -1 -1 -1
1532260905763078 3 1 -4 2 -2 -2 -2 -1
1532260905868795 19 5 -31 -11 -4 -2 -2 -9
1532260905912678 -1 82 -14 -6 3 -1 -13 -17
1532260905995456 -2 -31 -23 -5 4 5 10 9
1532260906040336 8 3 2 -8 -6 -7 -8 -25
1532260906161014 11 55 68 -16 -17 -17 -11 8
1532260906340533 0 -66 -35 -1 -1 -1 12 20
1532260906430293 -4 -41 -2 -9 -2 0 -4 23
1532260906453232 -44 51 10 0 5 5 5 -8
1532260906475174 21 56 -58 -10 -9 -7 -3 10
1532260906520053 -47 -70 24 32 9 -3 -6 -33
1532260906564933 -82 -23 -22 -5 3 1 3 -25
1532260906602835 22 81 -14 -11 -8 -7 -4 30
1532260906790330 -2 -14 -7 -2 -3 2 6 1
1532260906888079 -4 19 27 -4 -5 -1 -14 -1
1532260906934944 2 -36 -21 18 -2 -3 -4 4
1532260906956886 3 13 -13 11 5 2 -2 4
1532260906985808 -1 8 -20 -9 -5 0 0 -3
1532260907007749 5 -27 -7 -6 -5 -9 -5 -1
1532260907045648 -1 -42 -5 0 -1 -2 61 12
1532260907112469 23 123 26 9 5 -2 -34 -17
1532260907150368 29 -98 13 20 17 11 11 13
1532260907188267 -20 -40 4 1 2 9 -70 -13
1532260907210207 -2 59 -4 -2 -3 -6 5 -1
1532260907234151 1 -56 21 6 2 6 -1 4
1532260907256086 -13 18 -1 3 -1 -1 -1 5
1532260907299986 -34 -91 -13 -7 -2 -2 -14 -12
1532260907337867 -5 34 -23 -7 -6 -8 25 7
1532260907360805 26 75 32 2 -1 2 11 1
1532260907390725 4 21 9 6 5 6 39 19
1532260907412666 3 -2 -2 -2 1 -1 24 -9
1532260907472507 22 32 16 10 6 -4 -18 24
1532260907503424 10 34 26 3 2 -6 12 4
1532260907578224 -12 -19 -15 10 7 8 21 8
1532260907623116 -3 -26 -8 -5 -7 -6 -8 -5
1532260907682943 -2 11 -2 0 -1 1 -4 -8
1532260907705883 -4 -4 32 10 -1 -3 27 43
1532260907727824 5 39 9 -1 0 5 -42 0
1532260907780682 9 -18 -16 -11 -8 -6 26 11
1532260907811600 -7 -34 7 7 6 0 -38 -13
1532260907900362 -31 -12 -34 -12 -7 -3 -7 24
1532260907945242 -11 12 13 2 -2 -7 -6 -36
1532260908013060 -2 -24 0 0 0 1 14 1
1532260908035002 0 -3 111 5 1 2 -10 3
1532260908102820 -9 2 2 0 0 0 -1 -1
1532260908132741 4 -23 -19 -6 -1 1 -1 -1
1532260908224495 1 9 50 1 1 -1 -1 -1
1532260908328218 5 13 39 4 1 1 -1 -8
1532260908344176 -5 2 12 6 5 -1 1 0
1532260908388067 -4 6 -59 -3 0 0 1 2
1532260908470837 11 -26 -26 -6 -3 0 0 1
1532260908597498 3 -3 4 0 0 1 1 -8
1532260908665317 -13 4 48 -5 -3 -1 -1 6
1532260908695244 8 35 112 16 4 -2 3 33
1532260908778016 -8 19 15 9 1 -2 7 -9
1532260908882735 -6 -40 -80 -16 -4 0 -9 -3
1532260908920634 -3 2 -18 0 -4 -8 -5 52
1532260909093172 4 -28 -36 -9 -3 1 -1 16
1532260909182932 1 3 -9 -2 -3 -3 -3 17
1532260909220831 17 -1 5 -1 0 0 -2 31
1532260909302612 10 10 6 0 -3 -2 -5 -20
1532260909332532 -10 13 11 3 3 0 -6 -40
1532260909475151 -5 -2 -13 -4 0 1 3 34
1532260909490111 -4 1 7 1 3 3 12 1
1532260909700548 -27 15 22 4 0 -1 2 6
1532260909828207 -7 -4 -42 -6 -3 3 -13 -67
1532260909903007 -12 1 0 -9 -6 -3 9 -24
1532260909962847 -19 -21 -2 -3 -2 -2 0 -32
1532260910015706 -10 1 -19 -5 -3 1 0 6
1532260910067567 -15 -5 1 0 1 1 0 -36
1532260910278003 -2 8 -35 -2 0 -3 1 5
1532260910608121 17 -15 -33 -12 -5 -2 -5 4
1532260910638042 0 -14 1 1 -1 -2 8 -16
1532260910893358 3 -2 12 12 3 -2 2 2
1532260910945234 -1 12 -27 6 -3 -1 -1 -2
1532260911042959 -2 14 38 0 -1 -2 -2 -2
1532260911095818 6 16 20 7 -1 -2 3 15
1532260911117758 -1 4 1 -3 -2 0 -4 -7
1532260911162639 -7 -23 -24 -8 -4 0 0 -4
1532260911192559 -2 -4 11 -5 -1 1 -1 -5
1532260911230457 7 3 -6 6 0 -1 -2 4
1532260911268356 -2 4 4 -1 2 -8 1 -2
1532260911397012 -5 -19 2 -14 -5 0 0 23
1532260911433913 4 28 24 3 -3 -3 -5 -1
1532260911455858 3 13 27 7 -1 0 -3 -19
1532260911597475 9 0 -10 3 2 1 2 7
1532260911635374 0 -3 1 0 -2 -1 0 1
1532260911688237 0 -2 -8 -3 3 18 1 -4
1532260911725134 -2 -4 -5 -3 -6 -3 -8 -9
1532260911763032 1 1 -2 -2 -3 28 78 17
1532260911867752 5 2 -5 0 1 -8 5 5
1532260911912633 1 -8 -21 -3 -3 3 10 3
1532260911966489 -3 -11 13 1 -2 8 4 1
1532260911980452 4 -14 -53 4 5 9 -5 -3
1532260912003390 -3 2 -31 -19 -4 2 -2 -2
1532260912033311 0 13 48 12 3 3 -1 2
1532260912123081 -4 -4 40 -1 -7 -9 0 -2
1532260912152990 -2 13 5 4 1 -1 -2 0
1532260912197870 -1 -4 -9 2 2 -1 -11 -1
1532260912266687 -8 11 -18 1 0 -5 -26 -19
1532260912295609 -21 20 115 8 0 -26 -42 69

1532260912408308 -5 -33 96 3 1 23 -9 -32
1532260912438228 -16 -54 73 1 6 8 22 -11
1532260912647677 -8 -19 3 9 0 -4 -2 6
1532260912677587 0 -11 -37 0 -4 -3 1 -7
1532260912775337 -1 -9 -15 3 2 1 23 8
1532260912820218 -2 -2 17 0 -2 -2 -8 -3
1532260912843161 -8 -19 -13 1 -1 1 -2 -4
1532260912865098 3 14 25 -1 0 -1 -2 5
1532260912940903 -1 -8 14 -11 -5 -3 0 -1
1532260912962844 1 5 -5 4 6 3 -1 -5
1532260913033655 -6 -29 30 0 -2 -1 -1 -4
1532260913053602 2 -6 -2 3 1 3 0 -2
1532260913083536 0 13 11 9 -2 -1 -5 -3
1532260913135383 -4 -23 1 -11 -2 -1 -2 -1
1532260913195233 3 16 -73 -3 5 4 2 0
1532260913233121 -4 12 74 3 -1 -1 -1 -1
1532260913284983 1 9 58 4 1 0 -7 -1
1532260913307922 3 -8 -22 -1 -1 -4 1 -1
1532260913345820 -6 -6 2 -5 -1 2 0 -1
1532260913382722 2 2 -13 -8 -4 -7 -1 -1
1532260913442562 -3 0 -29 -11 -6 -1 -2 -2
1532260913488438 -7 2 12 -3 2 3 1 -10
1532260913518359 4 18 46 2 0 9 -14 -3
1532260913555267 2 -5 -17 3 -1 -4 3 3
1532260913585180 1 -20 -33 1 1 -10 -7 2
1532260913600142 -1 19 30 1 -1 -1 0 -1
1532260913630060 -1 -2 -4 3 2 -5 1 1
1532260913645019 -2 -5 -4 -5 -2 3 3 0
1532260913674940 -1 -8 -38 3 3 7 2 -8
1532260913787639 1 14 10 -4 -4 5 -5 3
1532260913885377 -5 -32 -14 -7 -3 0 -3 -2
1532260913960177 3 -31 -86 -6 -4 -1 -5 0
1532260913998075 -2 1 16 -1 0 2 0 -1
1532260914087836 3 2 -36 5 0 6 0 -4
1532260914126732 4 3 15 -8 -19 -55 -11 -69
1532260914162636 6 -12 -18 -3 6 22 1 37
1532260914177595 -4 -7 40 2 0 -2 -12 -22
1532260914194551 0 2 -111 8 -3 -1 -7 -4
1532260914298273 -4 -18 -27 -2 -3 -1 -3 -3
1532260914350134 3 0 -18 11 -2 -2 0 8
1532260914462833 -1 -44 -15 -1 2 2 0 2
1532260914485771 -1 2 9 2 3 3 0 -1
1532260914522673 -3 -22 -6 0 0 0 -1 1
1532260914560572 0 3 -1 -16 -6 -4 3 0
1532260914582513 -2 -18 -12 -3 -2 3 -1 -4
1532260914605459 0 17 5 7 4 -2 -1 -1
1532260914628391 -6 -13 13 0 -7 0 -3 -2
1532260914658311 -1 -13 10 -2 2 2 1 0
1532260914680252 -1 -8 3 1 -4 0 -2 -1
1532260914695212 1 -13 3 4 5 1 0 0
1532260914733110 0 10 -3 -3 -2 -3 -2 -1
1532260914755052 1 20 16 1 8 2 -1 -1
1532260914784971 2 16 3 0 10 1 0 1
1532260914800929 -2 4 -13 -7 0 -1 1 1
1532260914815888 1 0 18 5 -2 1 0 0
1532260914912630 -2 -8 -1 1 -4 -2 -1 -2
1532260914942550 -3 -9 -23 -34 -6 -2 -1 -2
1532260914959505 -2 13 -5 -16 -10 -3 -2 0
1532260914988437 -2 -6 -6 15 1 -1 -1 -3
1532260915003388 1 -7 6 4 -1 -3 -1 0
1532260915093152 0 -38 -6 -3 7 1 0 1
1532260915130048 2 -1 2 -4 -4 -2 -3 -1
1532260915212828 -1 1 -1 -32 -4 -2 -2 -1
1532260915370406 61 4 4 -9 -4 -2 3 20
1532260915445206 -28 -77 4 -2 2 -3 -9 11
1532260915527985 10 -120 -12 -2 -5 -3 23 5
1532260915565884 19 -57 21 -17 -6 -2 -10 -29
1532260915602785 -14 8 23 13 5 7 19 -14
1532260915662624 -43 1 36 0 0 -5 -46 9
1532260915715484 19 -9 -10 10 6 15 35 -2
1532260915753400 -10 1 -25 7 6 -2 -14 -10
1532260915777318 -12 -7 -57 10 5 -7 -11 -3
1532260915835164 9 3 -24 -16 -4 19 46 16
1532260915925921 39 -1 5 10 5 -13 -8 -17
1532260916001718 -10 1 -20 -3 -1 10 19 -43
1532260916070534 -31 1 -9 -16 -15 -17 -1 -3
1532260916120401 -20 0 14 -3 -5 -15 -3 -4
1532260916151319 -7 5 -13 5 -1 -3 -18 5
1532260916195201 19 -4 10 0 2 -22 -2 -14
1532260916210161 7 -7 4 5 3 -7 -7 -11
1532260916270001 3 5 14 1 1 5 7 9
1532260916307899 15 -3 3 -2 -4 3 7 37
1532260916337820 0 -2 11 -2 0 2 0 -7
1532260916382699 4 -13 3 -1 2 -2 1 -2
1532260916420597 -7 -9 -19 -1 5 -3 -37 -1
1532260916450518 -4 -1 -3 -5 -2 1 16 -2
1532260916503377 -5 -41 -1 -4 -7 -17 -75 -4
1532260916525317 -11 -12 3 -4 -6 5 40 -8
1532260916706833 10 9 23 6 2 -4 0 2
1532260916735754 -9 -23 -22 20 0 1 2 -7
1532260916772673 -2 -53 -3 -11 -14 -36 -76 -6
1532260916840475 9 91 16 1 5 -1 -26 5
1532260916878374 5 -30 4 1 -1 -6 -9 2
1532260916938214 3 1 8 -9 -5 0 -3 6
1532260917006050 -6 -2 -15 -21 -17 -25 -67 -9
1532260917050912 20 47 22 12 5 -11 -36 12
1532260917132694 -5 -15 -18 -2 1 11 21 5
1532260917162614 1 -5 3 9 2 6 5 -6
1532260917200512 -5 20 -20 -13 -11 -2 -12 -5
1532260917222454 2 14 4 0 -1 -9 -11 2
1532260917268331 2 -28 -1 -6 -1 2 -35 -11
1532260917305232 -12 -7 -2 -1 1 1 -24 -12
1532260917440870 30 -33 15 9 7 5 55 47
1532260917515670 6 19 2 1 2 1 -23 -19
1532260917530629 -14 7 -5 -5 -1 2 7 -18
1532260917567531 2 20 0 0 1 2 -3 -3
1532260917590469 3 -18 5 0 -1 -2 -27 3
1532260917710150 11 -9 21 5 0 -10 -54 11
1532260917763008 -3 8 -26 -3 -3 1 1 -7
1532260917786944 -3 -27 16 -3 -1 -1 0 -4
1532260917816864 3 -2 -56 0 1 -2 1 -1
1532260917830827 -4 -13 -13 -2 -1 -2 0 -2
1532260917959483 1 12 -6 1 -1 -1 2 -4
1532260918003365 -3 10 -25 -1 1 0 -1 -2
1532260918072182 6 13 15 -6 -3 -1 -1 1
1532260918085147 0 -14 46 -4 -7 -2 1 -3
1532260918145984 5 -17 -21 -4 -4 -1 0 1
1532260918235744 -1 26 -13 -1 -4 -3 -2 -3
1532260918423243 4 -11 -8 -1 -2 5 2 -3
1532260918498043 0 12 -7 -1 -1 0 -4 -42
1532260918557883 -13 -11 -18 -3 -1 33 10 -13
1532260918640661 -2 -12 -5 1 0 -1 -5 -11
1532260918677563 6 -1 108 1 -2 0 9 30
1532260918730421 -25 32 51 8 3 11 -2 -65
1532260918783280 -5 -25 10 9 4 8 20 95
1532260918850101 -19 -19 23 -1 -2 1 -5 -57
1532260918880021 -14 5 -8 -5 -4 -6 -2 11
1532260918977766 -1 -10 32 -3 -1 0 3 1
1532260919022647 -9 20 21 1 -7 -5 -2 5
1532260919210145 4 16 -4 -3 -2 0 5 33
1532260919248043 -2 16 -3 -3 0 2 -8 2
1532260919337802 5 8 6 -1 1 -2 -7 -34
1532260919450502 -1 2 6 -1 1 -2 2 0
1532260919503360 1 4 -4 -3 -1 0 2 16
1532260919638000 5 -8 7 -2 1 -4 1 22
1532260919675909 10 0 -7 -1 -3 -1 -2 -15
1532260919735739 -2 1 -1 0 -4 -2 -2 0
1532260919855428 -4 0 11 0 2 11 1 -15
1532260919908278 -18 9 4 -3 -2 -1 -3 8
1532260919975101 9 10 3 -1 -2 -1 0 4
1532260920005019 7 -10 39 2 -4 -5 -2 2
1532260920034939 2 14 2 -2 0 1 2 2
1532260920177557 -1 5 23 3 -4 0 -3 -1
1532260920217450 12 19 -1 -7 1 0 3 5
1532260920245376 -2 -7 6 10 1 1 -1 -1
1532260920335135 -8 -19 -13 -9 0 -2 -1 -1
1532260920365055 0 23 41 -3 -1 -2 -1 2
1532260920470773 -19 -2 -27 0 1 -1 -2 -23
1532260920635333 13 21 61 15 4 -6 0 12
1532260920665254 -6 -1 14 -13 -6 -1 -4 -15
1532260920688196 5 -19 -9 -3 1 1 -1 38
1532260920719109 13 17 4 12 4 -6 1 11
1532260920800897 -7 -10 19 -5 -3 0 0 20
1532260920897631 -11 -16 -11 -5 0 0 0 -7
1532260920920571 8 14 5 -1 0 0 0 -6
1532260920973447 1 -4 -18 2 2 2 1 1
1532260921085131 1 0 -2 -2 -2 -8 -3 10
1532260921132006 4 -1 7 3 -2 -2 12 4
1532260921160929 -4 -2 1 -3 -4 3 1 3
1532260921175897 -3 25 13 4 0 17 1 1
1532260921257669 -1 -10 35 2 0 -9 -1 -1
1532260921302549 5 6 -12 -4 -2 -3 -3 2
1532260921424224 -3 7 46 -9 -3 -3 -2 -4
1532260921447163 4 15 11 1 4 1 2 2
1532260921483066 -7 -61 -43 -21 -7 2 -1 0
1532260921581802 -2 -11 -23 21 9 5 1 0
1532260921632666 1 -2 8 2 -2 -2 1 1
1532260921655613 2 -84 -21 -4 -5 5 3 100
1532260921677546 0 38 0 4 3 -3 17 58
1532260921708464 0 16 -13 -43 -3 7 9 -3

1532260921730404 -4 -25 14 14 3 -1 -1 13
1532260921775304 -5 1 -7 -3 -10 5 0 0
1532260921823177 -2 8 -9 0 -2 1 -1 -3
1532260921865065 -3 -4 -10 1 2 -2 2 1
1532260921880025 -1 -50 -10 -4 -4 3 -2 -1
1532260921932883 3 4 12 -4 -2 0 -1 -1
1532260921985742 1 16 7 11 2 3 4 0
1532260922015662 -5 -4 16 -1 -2 -2 -1 -1
1532260922143321 -3 13 24 2 -1 0 0 -2
1532260922188229 -2 10 74 0 -1 -4 -5 -8
1532260922218120 0 -4 -14 0 0 -1 2 2
1532260922263000 0 11 -68 2 3 1 0 0
1532260922420579 -3 2 0 5 1 2 -1 -3
1532260922465459 -1 3 8 -5 -2 -1 -3 4
1532260922510339 -2 -1 -17 0 -3 -8 -3 4
1532260922525299 -3 3 35 0 2 1 -2 -2
1532260922563197 0 4 9 -2 -3 -1 -1 0
1532260922659977 -2 6 14 -4 -2 -1 0 -2
1532260922712836 3 -8 -67 -3 1 0 1 1
1532260922742756 -1 4 -7 1 0 1 0 1
1532260922810574 6 17 31 2 0 0 1 16
1532260922855455 -1 4 9 3 -1 0 1 -4
1532260922923273 -1 8 18 -1 -1 -1 0 0
1532260923035971 5 2 5 1 0 -1 -1 1
1532260923095811 -1 2 9 -2 -4 -2 -2 5
1532260923155651 10 1 10 1 0 0 1 13
1532260923192553 -1 -8 -10 -11 -3 -2 -2 3
1532260923320212 1 -5 -15 -2 1 0 -1 4
1532260923395011 5 -1 5 0 -1 1 -3 4
1532260923522670 9 1 0 -1 -1 0 1 8
1532260923673267 5 -2 -23 -1 -1 -2 0 -6
1532260923845806 0 -1 10 -2 1 2 -2 -1
1532260923897667 0 -7 -5 -5 -2 -1 1 -3
1532260923927588 -4 1 -24 1 0 0 -2 -11
1532260924010366 -5 -11 -33 0 0 0 2 -2
1532260924033305 2 2 -6 -2 -1 -2 0 4
1532260924100127 -3 0 0 0 1 -1 -1 -5
1532260924250723 -5 -5 -24 -1 -2 3 -1 -4
1532260924363464 -4 1 43 -4 -2 0 -1 0
1532260924393384 0 2 22 0 -2 1 2 -4
1532260924409342 -1 -5 -10 1 -1 0 -1 -2
1532260924468184 -1 4 27 -2 -1 -5 -1 0
1532260924505085 -1 -10 -59 -3 0 -1 1 7
1532260924587864 -3 4 10 2 0 -1 0 -4
1532260924618782 0 -6 -28 -2 -2 0 -1 -7
1532260924715523 2 0 4 3 1 2 0 -3
1532260924737465 -5 -5 -18 -3 -2 -1 -1 -6
1532260924828222 2 4 -13 -2 -4 -1 0 -2
1532260924873101 -2 5 0 -2 -1 -2 -2 0
1532260924985800 -13 -4 -23 0 2 0 -1 -12
1532260925188259 -1 -25 -36 0 0 0 0 0
1532260925210200 2 1 -1 1 -2 1 2 3
1532260925255079 -3 7 18 -2 -1 -1 0 -7
1532260925307939 0 10 19 -2 0 2 -4 -2
1532260925360810 -5 -2 -10 0 -1 5 2 -8
1532260925405677 0 9 30 1 0 0 0 2
1532260925450557 -1 -8 -35 0 3 0 -1 -3
1532260925488456 -1 -4 -22 -2 2 -2 -1 1
1532260925510398 0 -12 -30 1 0 1 3 5
1532260925540317 -1 -2 -6 -1 -3 1 2 2
1532260925555277 -2 -7 -7 -4 0 -2 -2 -2
1532260925570237 2 5 22 3 -2 0 -3 -12
1532260925630076 -2 5 47 2 -2 -1 -2 -3
1532260925675961 -7 -3 -12 -1 0 1 2 1
1532260925705881 -1 -4 8 0 -1 -1 -1 2
1532260925774697 5 0 4 1 1 1 1 12
1532260925795640 0 5 10 -1 -1 -2 -1 -2
1532260925892437 -10 -5 22 -2 -1 1 -2 -19
1532260925938317 4 7 28 3 2 -1 0 6
1532260925975215 -4 -5 -34 -1 -1 -1 -1 2
1532260926020096 -9 -3 4 -2 -1 0 -2 -20
1532260926065973 -3 -19 -45 0 -3 -2 0 -4
1532260926117834 -1 -4 9 -1 -1 2 2 -3
1532260926149750 -1 -1 -27 -3 0 0 -2 -4
1532260926252475 -4 9 40 1 2 1 -4 1
1532260926275413 0 -16 -66 -4 -3 -2 0 -2
1532260926320294 3 8 10 2 0 1 1 -7
1532260926373152 -1 -6 -13 0 1 0 0 -1
1532260926403094 -3 -1 14 -1 -1 1 -1 -6
1532260926507814 0 1 -5 -1 1 0 2 0
1532260926552694 -2 -10 -1 -4 -2 -2 -1 4
1532260926597575 3 -2 -19 -1 -1 -3 -2 3
1532260926673371 -2 0 2 -1 -1 -1 -2 -6
1532260926703291 7 -3 -2 1 1 -2 2 5
1532260926763132 -5 0 16 1 1 0 -2 4
1532260926814993 -1 4 6 -1 0 3 -2 -3
1532260926860870 2 2 16 -1 -2 0 4 4
1532260926927691 -4 10 31 2 0 -2 -4 -4
1532260926980551 -6 11 82 -3 -4 -1 -4 -8
1532260927025430 1 -10 -22 3 1 -4 -2 1
1532260927070310 8 -2 -26 -2 0 -2 0 -4
1532260927093248 -4 -6 -40 3 4 1 0 1
1532260927160071 3 21 45 -2 -3 -3 -1 -2
1532260927257808 -2 1 17 0 1 4 -2 -1
1532260927280747 -1 2 9 -2 0 -1 -3 -10
1532260927393446 -2 -5 7 -1 0 1 -1 0
1532260927550027 0 -1 -7 -2 -1 -1 0 -1
1532260927579947 -19 0 -14 2 0 -5 -1 -17
1532260927625824 4 6 13 3 0 0 -1 -8
1532260927805350 -5 0 -16 -3 -3 -4 -2 -1
1532260927850224 2 -8 -2 -2 0 -2 -1 -1
1532260928060661 0 -4 -13 -5 -3 -2 -1 0
1532260928090582 -3 -15 -32 -2 -5 -2 -1 -7
1532260928114517 2 21 34 -1 -3 3 1 -3
1532260928158401 -3 8 -12 -3 0 0 0 -4
1532260928195302 1 -4 24 -2 1 -3 -2 -2
1532260928240182 6 -5 14 0 0 -1 3 12
1532260928263121 5 -5 28 0 -2 1 -1 3
1532260928308001 -1 -2 -15 -2 0 -1 -1 6
1532260928382800 2 -6 -25 -3 -1 0 0 1
1532260928435659 3 -1 60 1 1 -2 -1 3
1532260928495499 -6 2 -3 2 0 0 0 -3
1532260928578277 4 -10 -32 -3 -1 -3 -1 16
1532260928593238 1 2 -47 -6 -3 -2 2 2
1532260928645099 -8 1 -36 -4 0 -1 1 -4
1532260928682998 0 0 30 0 1 0 2 8
1532260928795697 -3 -1 13 0 -1 -4 -3 -7
1532260928826614 2 -2 -7 -2 0 0 -3 -8
1532260928871525 0 -3 -9 0 1 6 -2 -7
1532260929013145 2 -1 9 -1 0 -2 -1 1
1532260929028106 -2 0 1 0 -1 1 -1 0
1532260929050047 -9 -5 -2 -1 1 -1 -2 -12
1532260929072986 1 1 -12 2 3 0 -1 3
1532260929215605 1 4 -9 -2 -2 -3 -2 1
1532260929260485 -2 1 73 -2 -2 -4 -6 -3
1532260929335284 -1 -1 -5 0 0 2 -1 -1
1532260929403137 2 -1 -9 -1 1 -2 1 4
1532260929567697 -14 19 10 -9 -1 2 3 -10
1532260929658454 6 2 2 -3 -7 -9 -5 41
1532260929703350 1 -2 5 6 -1 -2 -2 1
1532260929912775 -2 7 -2 -1 0 1 -1 -2
1532260929927735 0 -5 -33 -1 0 0 0 1
1532260929950673 3 0 -32 0 1 2 -1 0
1532260929965632 -1 -9 -23 -3 -1 -1 1 -1
1532260930078332 2 -3 1 -1 0 -4 -1 1
1532260930138172 1 -2 -11 -1 -1 1 -1 -1
1532260930160113 -2 2 8 0 -2 0 -1 0
1532260930235911 -1 -3 -18 -2 0 -1 -2 -2
1532260930325670 1 -2 -1 2 1 -2 0 -1
1532260930393489 -3 -3 0 1 1 1 -1 1
1532260930415439 -1 -6 26 -7 0 -1 -1 0
1532260930505190 -9 -10 -12 -10 -10 -4 -4 -7
1532260930520149 0 6 -1 -3 1 0 1 2
1532260930565030 -10 -11 -10 -4 0 1 0 -5
1532260930647809 18 18 34 8 -5 -1 0 5
1532260930715628 -1 -11 -21 -6 -1 -3 -12 -4
1532260930835308 1 -1 -3 3 5 -2 3 2
1532260930865228 8 18 12 -4 -2 -2 0 6
1532260931007847 15 -5 -27 -5 -7 -6 -4 23
1532260931060705 -40 -16 39 7 1 7 24 13
1532260931075665 -4 -118 26 8 6 -1 17 -20
1532260931106604 46 45 8 30 12 -9 -21 18
1532260931121542 -20 24 59 -10 -4 -6 -22 -3
1532260931142485 29 18 24 32 5 1 1 -30
1532260931165425 -21 -6 -7 -31 -9 -16 -28 -13
1532260931188364 -89 -8 -15 -25 -5 -4 23 -5
1532260931225264 17 4 -9 -10 -8 -21 -57 -20
1532260931248203 39 2 -38 -3 8 6 9 12
1532260931302059 28 1 -9 5 3 0 -8 11
1532260931390822 -27 -1 11 5 -4 -2 7 -13
1532260931435702 61 -1 -6 -7 0 1 1 32
1532260931502523 -45 3 -21 6 1 -7 -8 -23
1532260931533440 -17 -3 -14 -6 -3 0 -6 -6
1532260931615222 -4 0 1 -4 -2 -3 1 -1
1532260931645142 3 0 2 1 3 7 15 8
1532260931660101 24 -1 3 4 0 -3 -5 21
1532260931676059 -9 -2 7 4 -2 -8 -23 -12
1532260931704982 1 0 1 0 -2 -3 -3 -4
1532260931727920 -7 2 7 5 4 1 -3 -1
1532260931765819 -7 -107 -1 4 5 1 2 -5
1532260931787761 -1 -17 -15 -3 -3 1 -5 3
1532260931832641 5 1 6 1 -5 -6 -13 0
1532260931855580 5 14 7 5 0 1 4 -2
1532260931893483 3 2 11 0 1 5 5 2
1532260931930379 1 -1 3 -2 -3 0 0 1
1532260931990219 -3 -11 -1 -3 -5 -4 -17 -4
1532260932058038 0 10 5 0 -2 -10 -5 -12
1532260932111894 8 -19 9 1 -5 -3 7 6
1532260932141814 2 -28 14 5 4 -11 -36 3
1532260932170737 -6 -73 5 -5 -3 -4 12 -7
1532260932215616 1 -13 30 5 2 -1 -25 10
1532260932231574 18 117 91 2 3 8 5 -1
1532260932252518 16 31 26 6 5 -4 10 16
1532260932298395 -3 -18 -85 9 3 8 29 1
1532260932380176 15 9 -5 6 4 -3 11 35
1532260932425056 7 27 10 -1 -1 10 58 7
1532260932546731 -9 -36 -30 -9 -2 3 -18 1
1532260932567675 15 1 43 4 4 -3 -57 -8
1532260932590614 -8 30 -32 -6 -7 -5 7 -3
1532260932680373 7 -40 -35 -5 0 -10 -14 10
1532260932710293 -11 0 -5 1 4 4 9 -4
1532260932802048 -4 -5 9 1 3 0 -2 2
1532260932829974 11 -37 0 3 2 -7 -7 18
1532260932875851 -19 -32 -6 1 1 7 23 -38
1532260932965611 -3 -1 -24 -14 -9 -5 5 28
1532260933033430 13 2 14 6 2 3 20 18
1532260933063349 -2 -9 11 2 1 1 -17 -7
1532260933085291 -2 -10 1 -3 -2 -2 13 6
1532260933130171 -8 -21 -46 -7 -2 1 2 0
1532260933190011 4 -23 12 7 1 -1 -7 1
1532260933325648 1 31 47 -9 -5 -2 -1 0
1532260933356581 3 -3 20 8 -4 -2 -1 -1
1532260933385487 3 -7 65 -27 -7 -2 -1 -1
1532260933430368 -4 -31 -21 -25 -8 0 -2 -4
1532260933490208 -2 1 20 8 -1 -1 0 -3
1532260933513147 -10 4 -11 -25 -3 -1 -2 -23
1532260933602912 -11 45 64 2 0 -1 0 6
1532260933634821 5 8 10 2 0 -1 -1 4
1532260933707627 -3 -5 -23 -7 -2 -5 1 -4
1532260933775445 4 8 15 1 -1 -2 0 -15
1532260933835285 2 1 -10 -7 -3 -3 -2 0
1532260933940005 22 1 20 6 -1 -5 -5 13
1532260934067664 26 -11 -8 -6 -2 -2 -7 22
1532260934120522 9 6 -4 -4 -1 -2 -2 -1
1532260934188341 1 -4 -4 -4 -3 -2 -8 -22
1532260934240203 -17 -14 -14 -7 -3 3 -2 -29
1532260934345920 -11 8 11 2 3 4 -17 -106
1532260934480560 4 11 11 0 -1 0 1 11
1532260934517461 4 17 21 3 1 2 -1 15
1532260934600239 -12 -3 -4 1 2 1 4 4
1532260934668058 2 7 9 -2 -3 0 -1 -34
1532260934706954 -13 18 20 8 3 -1 -3 13
1532260934742858 -3 10 6 2 3 2 15 56
1532260934780757 -1 -18 -22 -6 3 3 5 -13
1532260934878512 17 11 28 11 5 5 4 26
1532260934953296 28 -9 2 -2 -3 -3 -1 11
1532260934975236 8 -5 28 6 2 1 0 -3
1532260935014133 20 26 14 -3 -1 -2 6 -45
1532260935095923 10 15 63 19 5 -1 -4 2
1532260935207616 2 -1 -10 -4 1 1 7 58
1532260935283413 -1 4 -5 0 1 0 -1 1
1532260935328293 0 -19 -11 1 0 1 0 1
1532260935462933 1 29 -9 3 2 -1 -2 2
1532260935545711 2 3 -2 3 -1 -2 3 2
1532260935822970 1 -2 3 2 2 0 -1 -1
1532260935920708 7 9 22 7 -2 -1 -2 0
1532260936055357 -8 -12 -10 -2 -1 0 -2 -3
1532260936123167 -3 7 -14 8 3 0 2 -1
1532260936145109 5 9 16 -25 -4 1 2 0
1532260936175029 -9 -14 -32 -9 0 -2 -1 -5
1532260936317647 10 29 54 9 -1 -1 0 3
1532260936379482 -1 7 14 -8 -6 -11 -1 -2
1532260936430346 -2 -9 -1 11 1 -8 -2 -20
1532260936602885 -12 -22 -15 -9 -5 0 1 6
1532260936685662 -6 -4 24 1 -1 0 -2 -14
1532260936798362 3 5 5 -2 0 2 2 -5
1532260936918041 5 8 1 -1 0 4 6 2
1532260936940980 2 12 8 -1 2 6 -3 1
1532260937007802 -3 -38 3 4 -2 3 -3 -2
1532260937037721 1 -4 -40 -4 -1 -2 1 -1
1532260937233198 2 -1 -63 -1 2 -3 3 1
1532260937263119 -2 6 58 -2 -4 -3 -1 -1
1532260937352879 -3 20 47 0 -1 2 -2 16

1532260937474554 4 -3 72 -1 6 2 1 4
1532260937675017 -2 -4 13 12 2 0 -2 2
1532260937720895 0 11 -32 -1 -1 1 -1 -2
1532260937750815 -2 -6 28 2 0 -1 -2 -1
1532260937795695 -1 -5 -1 1 -1 -1 -1 2
1532260937817636 1 -8 0 -3 -3 -2 -4 0
1532260937847556 4 3 15 2 0 0 1 -1
1532260937870495 1 14 -19 0 2 -1 -1 -3
1532260937893450 -2 -10 -6 -7 -5 -2 0 1
1532260937915389 -4 -6 7 -2 0 -1 0 -1
1532260937939326 -2 3 6 0 0 0 1 0
1532260937968248 -1 3 -11 -1 0 -2 -2 -3
1532260937983208 -2 -2 25 2 -1 3 2 1
1532260938058008 1 0 -21 1 -1 2 2 1
1532260938095907 -3 7 3 -1 -1 -1 0 0
1532260938192648 -3 -9 -31 1 1 0 -2 -3
1532260938215586 -1 -11 -23 -3 -1 0 0 2
1532260938237528 -2 -7 -26 -1 1 -1 0 -3
1532260938305799 2 25 3 -2 0 -1 -1 -2
1532260938327741 -4 -19 27 14 6 2 -2 -2
1532260938425479 5 -18 -25 -5 -2 -1 0 -1
1532260938448418 -4 16 24 -1 -2 -2 -2 -3
1532260938515240 15 -20 -54 1 4 3 5 38
1532260938583058 5 -27 -57 -2 2 38 27 -12
1532260938635917 -4 3 -32 7 -1 -6 4 5
1532260938732658 -3 7 -35 -14 -7 -6 2 -4
1532260938875277 -3 -1 20 12 4 3 -3 -18
1532260938913176 0 2 43 10 3 0 -1 2
1532260938944102 -1 7 6 9 -2 -2 0 -2
1532260939040834 -1 2 2 -12 -7 -1 -1 -1
1532260939071772 3 0 2 2 1 1 0 1
1532260939115633 2 4 -8 -5 -2 0 0 1
1532260939145554 3 1 -2 -2 -3 -1 -1 2
1532260939160514 -5 -4 -9 -7 -3 -1 -1 -3
1532260939190435 3 8 11 11 2 -4 -1 0
1532260939220354 4 7 6 9 -1 0 1 0
1532260939243292 5 -4 -11 -3 -1 -2 -1 3
1532260939273212 6 1 1 4 5 1 0 -3
1532260939318092 -3 -9 -7 -2 -1 -1 -2 -11
1532260939407853 -1 5 7 1 -1 -2 -1 2
1532260939430791 -3 0 1 -4 -4 -1 0 1
1532260939453730 4 -11 -12 5 1 0 4 3
1532260939490729 14 2 5 -4 -1 2 3 5
1532260939505700 -5 6 7 2 0 -1 -3 -3
1532260939535609 8 3 2 -2 -1 2 3 6
1532260939572511 4 -7 -14 0 -3 -2 -2 -1
1532260939625370 3 -6 -9 -3 -2 0 -1 -1
1532260939648308 -6 -15 -8 -1 -2 0 -2 3
1532260939670249 -17 -5 -13 3 -1 -2 3 33
1532260939738068 -6 20 -2 7 2 -1 -7 -8
1532260939857748 1 -14 -41 -3 2 3 -1 -12
1532260939904633 -27 23 28 -17 -13 -9 -7 -24
1532260939964462 -2 25 53 1 1 -2 -8 -12
1532260939985406 -18 127 70 83 27 7 1 -15
1532260940001363 -8 -3 -58 -31 -13 -6 -7 25
1532260940015327 9 -56 53 -10 -5 -3 3 15
1532260940045247 30 -27 -9 -11 -4 -5 -9 7
1532260940068185 38 -20 24 10 2 -2 3 6
1532260940105087 -62 15 9 -4 -2 -2 2 -49
1532260940172905 39 21 52 9 4 4 2 9
1532260940262665 52 2 -8 -8 12 0 -5 -18
1532260940294580 -6 -3 9 0 0 0 -1 16
1532260940375363 -5 -4 -5 -9 -4 -5 -2 10
1532260940428223 18 -1 39 10 7 2 0 0
1532260940480084 17 2 -9 -12 -23 -7 -2 6
1532260940503023 -42 -1 -67 -4 -8 -2 -1 -1
1532260940540922 7 4 1 -10 -6 1 1 -1
1532260940562862 20 -3 35 3 -14 -4 -1 8
1532260940578820 -3 -1 -8 -4 10 2 -1 -1
1532260940600761 3 14 1 -6 -15 -5 -2 2
1532260940622702 -1 -4 0 13 2 0 3 0
1532260940660600 1 -37 10 -13 0 -4 -9 4
1532260940713460 4 -3 2 -1 -14 -1 45 6
1532260940728427 -6 6 -6 -7 -2 -7 -22 -12
1532260940773300 1 57 -1 0 9 2 -1 3
1532260940795241 4 -16 11 9 3 2 18 0
1532260940872036 0 66 1 -3 -1 2 9 2
1532260940892980 -6 -58 9 1 0 4 -8 -4
1532260940960798 10 10 8 -50 -15 -19 -42 -1
1532260941012660 16 13 -10 -6 0 -1 -64 1
1532260941057539 -11 30 -16 -15 -4 -1 15 -3
1532260941072500 0 83 22 -5 1 1 -8 -4
1532260941103417 2 -35 -9 -3 2 1 12 0
1532260941118377 -8 -34 -3 -24 -7 6 -3 0
1532260941140318 5 68 1 9 -2 -7 26 6
1532260941155279 2 -2 7 2 1 0 -17 -3
1532260941178217 2 24 -20 -2 0 -5 -59 -6
1532260941208137 13 -6 12 6 -2 -5 37 16
1532260941223097 -6 4 -4 -5 -2 6 31 -2
1532260941253017 1 -28 -2 -3 -2 1 -24 -7
1532260941274958 16 29 8 -4 -1 6 11 7
1532260941297897 -4 11 -12 3 -5 3 27 -4
1532260941320835 -18 -60 -8 -6 -6 -7 -8 -6
1532260941342777 -15 -57 -8 -8 -2 0 -12 -6
1532260941366713 14 -2 0 1 -1 -7 -13 5
1532260941395636 5 -30 13 6 2 1 39 13
1532260941425555 -7 -36 -5 -7 -3 7 -19 -12
1532260941470435 13 25 0 4 2 0 -8 -7
1532260941500355 -24 -67 -8 -7 1 6 -13 -3
1532260941605076 5 48 2 2 0 -4 -18 11
1532260941634995 -11 -23 7 -1 -1 -3 -11 -6
1532260941666910 27 7 11 4 1 -7 -7 14
1532260941710793 6 -4 -4 4 6 10 60 -7
1532260941732734 -1 -88 4 1 -1 -4 -8 6
1532260941800565 -2 32 7 2 0 -1 0 11
1532260941823491 -11 42 1 -3 -5 -11 -69 12
1532260941876349 5 -61 6 2 1 1 18 -5
1532260941905284 4 13 1 4 4 3 28 0
1532260941944169 -17 -57 2 2 -1 -4 -64 12
1532260941965112 -4 58 17 5 0 0 42 13
1532260941988104 -8 -53 -17 -5 -1 1 20 -6
1532260942010045 0 16 2 -4 -2 -1 9 -14
1532260942026003 8 19 36 2 -2 -2 1 5
1532260942092824 13 -9 -5 2 0 1 8 6
1532260942145682 0 36 -9 -1 -2 -1 1 -7
1532260942175602 0 -12 -104 -4 -2 -1 2 -2
1532260942228463 -2 -4 -46 -1 2 1 0 -3
1532260942318221 -2 12 22 -4 0 -1 0 -1
1532260942378062 2 -5 -13 -1 2 -3 1 1
1532260942437902 5 6 -8 -5 -3 -1 -2 1
1532260942467822 -9 8 2 -4 -2 2 1 0
1532260942497741 -2 -2 4 -3 -1 0 0 -8
1532260942544616 1 0 -20 -6 -3 -2 -1 -3
1532260942587504 1 6 0 1 2 2 3 18
1532260942618419 -7 17 13 4 1 0 -3 -6
1532260942702194 -8 -17 -29 -7 -2 -1 -2 -5
1532260942723139 4 -8 -9 -3 1 0 0 -5
1532260942747075 6 70 -1 3 0 0 -1 3
1532260942775001 -24 -5 6 -1 0 1 3 -13
1532260942805921 7 -31 -7 -4 -5 -2 0 6
1532260943009374 8 10 16 1 1 0 2 6
1532260943053256 9 4 14 6 1 -1 -7 -51
1532260943120077 -22 57 -2 -5 -3 -2 -2 2
1532260943225795 14 -15 -2 -1 0 -1 4 77
1532260943270675 1 -9 26 -4 -4 -2 0 -19
1532260943322556 -6 -30 -1 4 3 2 3 12
1532260943390355 -16 -19 20 -2 -4 -1 -1 -41
1532260943458173 0 25 2 5 3 -1 4 -4
1532260943532973 -6 4 -11 -8 -4 0 -4 -14
1532260943675591 16 30 8 -2 -3 4 2 35
1532260943735433 8 -12 1 -1 -3 -4 1 39
1532260943855112 6 26 9 -3 -2 1 0 -13
1532260943930909 2 5 -4 -1 0 -2 -4 -75
1532260944065549 -9 -6 1 -2 -1 -1 -5 1
1532260944335826 -6 14 9 1 0 -1 -1 -10
1532260944374722 -8 -5 -6 -1 -2 -1 -2 -13
1532260944470466 -6 -9 -6 0 -2 -3 0 -3
1532260944508365 0 -11 -9 -5 -1 -1 2 0
1532260944577181 13 4 3 1 0 -1 -1 -2
1532260944620066 10 3 -3 0 1 -2 -4 -2
1532260944695864 2 17 9 -7 -3 0 0 1
1532260944734760 -4 -18 -29 15 7 0 0 -1
1532260944770667 2 18 -21 0 -1 -1 -3 -1
1532260944920264 11 -13 -6 4 1 -2 0 1
1532260944967138 3 -19 -18 3 -1 2 1 1
1532260944995064 2 -15 -10 -1 1 1 -2 1
1532260945137682 -2 8 -7 0 -3 -1 -1 0
1532260945228440 5 13 35 37 7 3 3 3
1532260945280300 7 -7 -18 -9 -4 -2 2 1
1532260945333159 -6 12 12 5 1 2 2 -1
1532260945415938 -15 -33 -13 -17 -1 0 1 -4
1532260945512679 -9 -28 -1 4 1 3 -1 -6
1532260945535618 6 6 -34 11 6 5 2 5
1532260945558557 -10 -22 -116 -15 -3 -12 -3 -2
1532260945595458 6 4 -15 1 -1 -3 -1 4
1532260945633357 -9 -12 56 -6 -2 3 0 -6
1532260945655314 6 -5 10 -8 -2 -2 -2 3
1532260945708169 -3 -4 5 4 0 -5 0 -2
1532260945747052 -1 -10 36 -1 -2 -9 2 6
1532260945783954 5 15 33 5 4 11 5 17
1532260945797917 -5 -14 -8 -11 -3 1 -5 -9
1532260945850775 -4 0 3 5 2 1 -1 2
1532260945910615 -3 -5 25 2 -1 3 -1 -3
1532260945940535 4 5 -7 1 -1 -2 -1 2
1532260945985415 2 -7 -34 -1 1 -1 -2 -1
1532260946023314 -5 -7 -5 -6 -2 -2 -1 -4
1532260946045255 -6 -14 -8 -3 1 1 -2 -16
1532260946090135 -8 -3 -1 -1 -2 -4 3 15
1532260946128033 2 5 1 2 -3 -9 -8 -5
1532260946149975 -7 -5 4 -1 -1 7 1 2
1532260946180893 0 -14 0 -6 -4 -5 -5 -3
1532260946210813 -7 -2 -2 -8 -2 -2 1 4
1532260946232755 7 -7 -4 -3 0 -1 3 5
1532260946277634 0 -10 -6 -20 -8 0 -5 -3
1532260946300572 -5 -6 -5 17 2 -2 -1 -4
1532260946405293 7 6 -28 4 0 -3 -2 2
1532260946459149 -5 28 23 2 2 5 0 1
1532260946488071 4 2 -6 1 1 4 -2 1
1532260946540930 4 1 -26 -12 -5 -1 -2 2
1532260946607753 -2 9 -18 -9 -10 -7 -4 -2
1532260946652631 -32 6 52 -14 -17 -3 -22 45

1532260946750370 -10 -8 57 2 0 -6 0 8
1532260946863068 16 3 25 6 2 2 0 -8
1532260946894001 -8 14 -4 3 -1 -2 -5 -24
1532260946907948 -2 -9 15 5 2 3 4 -2
1532260946930887 0 -8 -37 -5 0 1 0 1
1532260946945847 2 -9 8 -8 0 -1 -3 5
1532260947027629 4 31 23 -1 -5 -2 0 2
1532260947095447 -24 -35 -41 -6 -4 -2 -4 -24
1532260947140327 0 -3 23 8 2 0 1 2
1532260947178226 0 3 -3 23 9 0 -1 -3
1532260947200166 3 9 2 -12 -6 -3 -1 3
1532260947230087 1 0 -13 2 1 -7 -4 -1
1532260947357745 0 10 -36 -18 -5 -3 -3 -4
1532260947470445 -1 8 -8 2 -1 -1 1 -2
1532260947493382 -1 -13 -26 -4 -2 -1 -2 -2
1532260947515324 2 -11 24 1 1 -1 -2 2
1532260947538263 1 9 -3 -1 0 2 0 -1
1532260947687863 -2 -19 -23 -4 -3 -2 -1 -3
1532260947702822 3 23 52 1 2 0 0 0
1532260947762679 -4 -6 -15 -8 -3 -2 -2 -6
1532260947860418 -2 3 -8 -5 -4 -2 -2 0
1532260948190535 -2 -20 -5 -3 0 1 0 5
1532260948250376 -3 8 25 3 2 -1 -2 -2
1532260948325175 1 9 16 -1 -1 3 -1 -1
1532260948460048 -2 1 30 4 3 2 0 -2
1532260948520885 -6 -3 -50 -3 1 0 2 -2
1532260948587707 4 4 -28 -7 -6 -3 -4 -3
1532260948632587 -16 -5 -1 2 3 11 -15 -100
1532260948655525 6 47 -2 1 -3 -61 -46 80
1532260948745286 7 5 84 1 0 -4 -4 -11
1532260948805138 3 -20 64 53 30 15 14 -7
1532260948850005 0 1 -18 -17 -1 -1 0 0
1532260948917824 -3 1 1 19 2 5 3 -1
1532260948940763 3 1 17 25 1 0 -5 -1
1532260948955722 -2 1 -10 11 4 0 -1 1
1532260948970682 -5 -3 -5 -17 -3 -3 0 1
1532260949007584 -1 1 -2 5 3 2 -2 1
1532260949030522 1 2 8 -18 -5 -3 -1 0
1532260949083381 -1 0 -6 -5 -1 0 -4 -3
1532260949120283 7 8 2 4 5 3 1 1
1532260949165163 -5 -6 -3 -2 2 0 1 0
1532260949182117 -4 -2 -6 -1 0 -2 -1 -2
1532260949232981 -2 2 2 0 -5 -3 -2 1
1532260949322741 0 1 -5 8 2 1 -1 1
1532260949352661 0 -1 4 -1 -1 1 2 0
1532260949375600 4 1 3 5 -3 -1 -1 0
1532260949428458 0 -5 -1 -3 -1 0 -3 -3
1532260949459376 -2 21 0 -1 1 -1 7 -1
1532260949540160 1 -4 6 -2 -3 -2 1 2
1532260949563112 -18 0 -4 0 -1 -2 -3 -5
1532260949585040 -13 7 12 0 -1 -4 -9 -14
1532260949772538 30 13 27 -6 -4 -5 -4 4
1532260949825397 -29 83 38 5 6 14 18 30
1532260949857311 -25 -45 -7 0 1 -3 -6 10
1532260949938095 33 127 -34 -3 -2 5 3 -26
1532260949960037 53 7 60 2 0 -5 -5 2
1532260950012896 -23 -5 3 -13 -5 -6 -9 -17
1532260950170474 -67 -3 33 -4 -5 -8 -5 -27
1532260950208373 34 0 -13 37 10 5 8 27
1532260950230314 13 5 4 -14 -5 2 5 -18
1532260950245275 13 4 21 -7 2 8 7 2
1532260950300138 -47 -1 3 -34 -15 -2 -6 -32
1532260950365951 11 -1 22 -6 -2 0 -14 -28
1532260950425792 8 -5 10 2 3 -1 -4 7
1532260950470671 6 102 8 1 2 2 30 4
1532260950507573 -3 -42 1 -1 4 -1 13 -5
1532260950561429 -1 -12 21 0 1 -5 -15 -3
1532260950584367 4 19 20 0 -2 -3 -1 4
1532260950605311 -9 4 -23 -6 0 -4 -23 -18
1532260950628250 4 -38 3 4 3 4 -23 0
1532260950680111 17 -35 -4 -3 -1 -4 -27 -9
1532260950807769 3 37 -16 1 2 5 15 7
1532260950830709 7 79 -1 6 -1 17 28 -11
1532260950867610 14 -40 19 4 2 3 35 12
1532260950890549 -4 -6 -21 -9 -3 -8 -4 10
1532260950950388 -14 -113 -29 2 3 -11 15 9
1532260951055108 -10 -16 9 5 3 -5 2 10
1532260951080042 9 5 12 4 3 8 107 -5
1532260951116943 -25 -56 -5 0 -3 -3 -11 -4
1532260951137887 3 -40 3 3 6 11 -5 2
1532260951182768 -5 -72 -15 -6 -1 -5 -14 -5
1532260951235639 -24 -61 -14 2 1 6 -3 -12
1532260951265546 4 37 -10 -1 0 8 18 29
1532260951289482 -5 -36 1 -10 -11 -22 -38 -11
1532260951325385 22 52 5 4 -2 -5 -4 -10
1532260951363285 -8 -44 -3 -4 4 9 65 16
1532260951385226 5 23 5 4 6 19 65 79
1532260951512885 -2 28 -4 -3 -4 1 71 -30
1532260951617605 0 -25 -16 -9 -5 2 65 5
1532260951632565 -1 -13 2 -2 -2 0 7 44
1532260951678442 0 48 -1 -1 0 -1 -20 6
1532260951700383 2 26 7 3 0 1 0 -4
1532260951723322 4 10 -2 -1 -3 -1 -7 -7
1532260951738282 -2 3 19 2 1 -1 -4 -5
1532260951753242 0 27 25 5 2 1 -2 -3
1532260951775183 3 5 6 4 0 -6 -11 14
1532260951805103 -2 -26 -35 -2 0 1 7 -5
1532260951843002 2 24 127 11 6 5 0 2
1532260951934756 4 -3 -51 -1 -2 0 1 0
1532260952030501 4 16 -67 -4 0 -1 0 -2
1532260952210020 6 -1 12 5 -1 -3 -1 7
1532260952247919 19 8 12 7 4 2 3 28
1532260952277839 -5 -8 -5 1 2 1 -2 -32
1532260952322733 7 -2 6 1 0 0 2 10
1532260952360618 3 1 8 4 2 -1 0 10
1532260952412479 -19 -14 -12 -2 1 1 1 -22
1532260952480298 -20 36 -37 8 -4 -5 -2 3
1532260952504234 -24 -52 -50 -19 -8 -1 -1 -22
1532260952533156 -5 -8 -13 -1 1 2 1 19
1532260952570058 34 -2 38 5 2 2 10 91
1532260952600983 -21 -17 -35 2 5 2 3 8
1532260952667796 25 -11 15 2 -1 -2 4 21
1532260952682756 1 10 27 4 0 -3 0 -16
1532260952712691 -2 11 2 -1 1 1 7 25
1532260952727636 3 -4 -4 -2 0 -1 2 68
1532260952742596 -5 -31 -7 0 -1 0 2 -6
1532260952772517 3 -4 6 -3 -5 0 -3 -4
1532260952795455 26 15 -6 3 -1 -4 7 87
1532260952825374 -6 -26 -62 -10 -4 -2 -4 15
1532260952878234 3 29 61 9 -3 -4 -2 -10
1532260952923113 -8 -5 -28 -2 0 0 0 -32
1532260953020851 -54 -16 -15 -4 -1 1 -9 -96
1532260953102633 -18 9 34 10 4 3 2 -24
1532260953155492 20 30 -2 0 0 0 3 -11
1532260953238272 11 -3 -20 -6 -3 0 9 68
1532260953283150 -5 -12 -15 -2 -1 2 9 84
1532260953342991 5 8 9 -4 0 4 3 26
1532260953374915 1 9 3 1 -1 -4 -2 -10
1532260953447710 1 -11 -10 -3 -2 -2 3 7
1532260953494585 11 -1 -6 -6 0 -1 -6 -8
1532260953538467 13 17 10 3 -1 -1 1 5
1532260953568388 -6 -14 -2 1 0 1 0 -6
1532260953591327 0 14 10 -1 1 1 2 -2
1532260953605293 -3 -9 -3 -2 -2 -2 0 -4
1532260953628233 5 -2 -6 -6 -2 -1 0 0
1532260953658148 -1 -29 -8 -2 -4 0 -2 -1
1532260953695049 5 1 -46 0 0 -2 1 2
1532260953740926 -3 14 26 2 1 0 1 -4
1532260953852627 -3 -1 7 -2 -5 -1 2 7
1532260954033145 -6 1 -14 1 0 -1 0 7
1532260954378222 5 -2 -19 -18 -5 -2 -2 -1
1532260954423102 -11 -7 15 -16 -11 -3 0 -3
1532260954446056 3 -8 -41 4 0 -1 0 -2
1532260954513860 -2 -6 -26 -5 -2 0 -2 -1
1532260954678420 6 7 9 9 0 0 -2 6
1532260954708340 11 2 -5 10 5 2 3 12
1532260954753220 4 3 12 -3 -1 -3 3 30
1532260954790120 -8 -5 15 2 -1 -2 -3 -31
1532260954880878 0 7 16 4 1 1 1 24
1532260954926755 -13 17 5 3 -1 -2 -1 10
1532260954955691 -6 -14 -20 -7 -3 0 -1 -4
1532260954992579 7 -7 -18 -2 0 0 0 2
1532260955007539 -1 0 -12 2 1 1 0 -2
1532260955068376 -3 1 -4 -5 -1 -3 -3 -8
1532260955090318 -4 1 -7 0 -1 5 5 -4
1532260955180078 -2 8 -15 -9 -2 -4 -11 3
1532260955210996 3 14 19 13 -2 7 -4 -2
1532260955247897 0 11 38 -9 -4 -1 2 0
1532260955277817 -6 -18 -13 -6 -2 -6 0 -3
1532260955322697 -10 -43 62 -2 -3 -3 -3 -3
1532260955367577 -1 -20 -10 -15 -6 -2 -1 -2
1532260955390515 0 26 0 -2 -4 5 1 -1
1532260955435395 1 -4 -14 3 -3 4 0 1
1532260955458333 -7 -22 -19 -6 -4 1 -3 -2
1532260955497230 -1 -19 -23 -2 -2 2 0 -1
1532260955510195 -3 -2 7 -5 -1 -1 -1 -4
1532260955563054 5 33 -16 -5 -6 -4 -3 0
1532260955592974 -9 -10 8 4 -3 -20 -8 -38
1532260955607934 2 -61 11 -17 -14 120 10 9
1532260955630873 -5 -23 108 6 8 -22 -4 6

1532260955675753 1 22 -53 25 12 -13 5 6
1532260955712654 12 33 71 -11 -9 -12 -8 11
1532260955742574 -9 10 -87 1 7 -8 -2 -1
1532260955773493 -5 31 -23 5 -2 -4 -1 -2
1532260955810393 -4 21 59 7 0 2 1 -4
1532260955855272 0 2 -11 -3 4 7 1 1
1532260955900152 0 -5 9 -4 -1 -6 1 -3
1532260955945032 -1 -4 6 2 -3 2 1 4
1532260955990910 4 2 4 -13 1 -1 -1 1
1532260956057731 0 1 1 15 1 -5 -1 0
1532260956089646 1 -9 -16 -9 -3 -5 1 2
1532260956132530 0 5 3 -14 -2 3 -1 0
1532260956162452 0 3 -14 4 2 0 1 0
1532260956230270 2 -1 -6 -1 -3 0 0 1
1532260956268168 -6 4 5 -8 -2 -2 0 -3
1532260956334990 0 -6 9 -2 -4 -4 -3 -2
1532260956365907 0 -11 -18 -8 0 -1 -2 1
1532260956462648 -4 7 69 8 0 -6 -5 -9
1532260956575347 -20 2 25 0 4 36 3 -72
1532260956665107 4 -12 7 -3 -4 -9 -1 -4
1532260956815704 0 2 2 -5 -4 -1 0 1
1532260956875544 1 -2 19 -4 -3 2 0 -1
1532260956898498 0 1 11 19 3 0 3 3
1532260956936382 -1 -3 6 -18 -3 -1 -1 -1
1532260956965304 1 -3 -2 16 -4 -2 -3 0
1532260956995223 1 2 9 29 3 0 1 1
1532260957034120 -2 -6 3 -6 0 -2 -2 -1
1532260957063046 -1 -1 -5 -14 0 1 -1 -2
1532260957152802 2 1 0 2 -3 -1 1 1
1532260957175741 -2 1 -4 -3 1 2 -1 0
1532260957242563 -3 -10 -6 0 -1 -4 1 -1
1532260957288440 2 -8 -14 -7 2 2 1 5
1532260957453000 -3 26 -1 0 4 0 -4 3
1532260957640499 44 0 -3 -2 -2 -1 3 -1
1532260957732253 -65 -55 3 -1 -1 1 0 -1
1532260957760179 23 -53 -6 4 0 -3 -6 5
1532260957783117 -19 33 9 -4 -4 5 2 -30
1532260957828995 -1 39 10 5 0 -5 -4 9
1532260957872877 17 1 16 5 5 8 6 -2
1532260957970615 43 -128 -6 7 6 4 10 34
1532260958061373 27 -10 6 0 1 0 -1 7
1532260958098275 -36 -1 -4 -5 0 1 6 4
1532260958128195 12 4 0 -4 0 1 -15 -25
1532260958217954 50 -2 -9 -9 -5 1 11 31
1532260958255853 -1 -2 -6 -3 -3 12 -3 -11
1532260958294749 4 -4 -6 -3 -4 8 -1 20
1532260958316690 -31 1 -16 -7 -6 -1 -18 -5
1532260958352594 8 -4 7 -1 1 -9 4 12
1532260958367554 -24 1 -7 2 2 -3 -4 -5
1532260958390493 -8 2 2 -3 -3 -6 -1 -4
1532260958443351 1 6 -5 -4 -3 7 4 0
1532260958473272 -6 -2 5 4 0 6 2 -7
1532260958533112 -14 -10 -33 -7 -6 4 5 -6
1532260958572009 -3 -35 -12 -1 -4 5 21 1
1532260958593949 1 -20 6 0 -6 -4 -25 -4
1532260958630850 2 23 4 -2 1 2 5 -1
1532260958660770 -2 -38 12 5 3 5 3 -11
1532260958735570 -1 -4 -3 3 2 3 -4 -3
1532260958765490 -2 -34 0 4 1 2 15 -2
1532260958810370 -12 -25 -21 -2 -1 0 3 -3
1532260958825330 20 14 15 3 -4 -2 15 2
1532260958885170 -16 -85 -22 -8 -7 -8 2 -4
1532260958930051 1 -48 14 10 3 -3 16 -1
1532260958968962 18 62 29 10 7 -2 27 -4
1532260958997868 0 -14 1 -7 -4 -3 12 -6
1532260959050728 -19 7 4 -2 -1 0 -67 2
1532260959087629 14 28 -8 -6 -2 -5 27 1
1532260959126525 10 72 -2 0 0 -3 20 -11
1532260959156447 16 -19 2 -2 1 -3 19 5
1532260959178386 -10 -4 -11 -2 -2 -7 -17 -10
1532260959202335 -2 -68 -4 -1 0 2 9 19
1532260959305064 5 -32 -1 -1 -1 -4 -42 19
1532260959342946 -8 -52 -8 0 -3 -10 -60 0
1532260959417746 -12 -6 -11 -3 -2 3 2 -64
1532260959432705 25 35 19 7 0 -8 -41 -27
1532260959447665 15 63 12 4 5 6 6 -5
1532260959462626 13 -18 -4 -2 0 -8 4 33
1532260959492546 -11 -64 -4 1 0 3 -8 -24
1532260959523463 -4 -34 -12 -2 -7 -7 -53 -36
1532260959553383 -12 4 5 1 2 -2 26 -36
1532260959598264 -1 -16 7 4 1 3 -37 -17
1532260959703981 7 -4 7 1 2 1 19 9
1532260959732903 7 3 -8 2 1 0 6 11
1532260959762823 2 -15 10 1 1 2 -3 -7
1532260959792743 -4 -28 16 -2 -1 0 5 8
1532260959815684 1 -10 -88 4 4 -1 -2 5
1532260959980242 -1 5 40 3 1 -1 4 3
1532260960040082 6 2 -1 4 2 0 1 2
1532260960100919 -2 -11 -5 -7 0 -1 0 -1
1532260960160759 0 -5 31 -8 -4 -1 -4 -7
1532260960242541 -1 -5 -42 -6 -1 1 -1 -10
1532260960265478 -10 19 -12 -4 -1 1 0 -8
1532260960303378 0 -16 -3 -1 -1 1 -1 -1
1532260960348257 3 -14 -18 -2 -2 1 0 32
1532260960438041 0 -1 1 3 -1 -2 -3 22
1532260960475916 1 3 8 0 0 -1 2 2
1532260960535757 16 1 -14 1 1 0 -2 13
1532260960587618 -17 -1 -10 -2 -1 0 -1 -29
1532260960685380 -17 -34 -44 -11 -4 -3 -9 -30
1532260960745219 8 -2 -15 -1 -3 -6 -3 16
1532260960775139 10 11 28 0 -1 -2 0 5
1532260960857918 7 27 3 2 1 0 1 5
1532260960947678 -1 -11 -8 -6 -3 -1 -2 2
1532260960985577 3 -48 -8 -1 -1 0 5 -6
1532260961039433 -7 13 15 2 0 1 -5 -41
1532260961083316 6 18 1 0 0 -1 -3 23
1532260961098275 14 14 -1 0 -3 -2 -2 11
1532260961128195 -6 -1 0 -4 -2 1 9 76
1532260961143155 -8 17 -3 -3 1 1 1 5
1532260961173075 1 -1 -1 1 0 0 -4 25
1532260961262835 26 8 18 3 0 -1 -1 22
1532260961315694 3 0 -6 2 0 1 2 -2
1532260961367556 -37 -16 -23 -4 -1 -4 -8 -77
1532260961390494 22 9 7 0 0 0 -1 13
1532260961435374 -1 -5 -2 3 5 1 12 57
1532260961482249 12 58 18 5 3 3 -2 31
1532260961510175 -2 30 2 0 -3 -5 -12 -115
1532260961570014 -1 3 10 -4 -2 -1 -5 -33
1532260961592952 -3 16 -14 -3 -1 1 3 8
1532260961607912 17 -10 -10 -4 -4 -3 1 17
1532260961637838 -9 -23 8 0 1 -1 -2 -25
1532260961652792 -8 -14 -3 -1 -2 -2 1 -12
1532260961667753 5 28 0 1 1 1 2 1
1532260961690691 -2 -31 2 1 0 -1 -2 -12
1532260961750531 -10 -26 -4 -1 0 0 -2 -20
1532260961780451 5 27 19 -2 -2 -1 -4 4
1532260961848270 -20 7 -10 -3 -4 -2 -3 -24
1532260961870211 1 4 -3 -6 -3 -1 3 21
1532260961952989 -6 29 11 -3 -1 0 1 -8
1532260962035768 -6 28 18 -9 -6 -4 -2 -13
1532260962110568 2 -19 -59 -2 1 0 0 -1
1532260962140488 0 -4 13 -1 0 -1 2 6
1532260962185368 1 -3 -4 0 0 -2 -3 0
1532260962268160 -5 4 9 -1 -1 -3 -2 1
1532260962321023 3 23 -1 9 -1 -1 -2 2
1532260962478585 1 -9 -17 7 2 -1 -1 4
1532260962545405 -20 19 -13 9 -2 -1 -2 -8
1532260962575325 11 6 25 15 -4 -2 -1 0
1532260962605246 -5 2 -4 1 -2 -1 0 -1
1532260962665086 2 1 5 -6 0 -1 1 0
1532260962695005 -14 -32 -27 -12 -3 -2 -2 -7
1532260962711961 -5 6 35 3 2 2 0 -3
1532260962755843 6 -18 13 -3 -3 -1 -2 -5
1532260962800723 -6 -3 -19 -4 -4 -4 -1 -5
1532260962815682 0 4 1 1 1 1 2 3
1532260962950322 15 36 45 12 4 0 0 0
1532260962973261 3 1 13 11 3 0 -1 -1
1532260962989220 -1 5 45 -9 -3 -1 1 8
1532260963012157 16 13 7 4 2 -6 2 12
1532260963034098 -6 -25 -93 -1 1 5 2 -3
1532260963092942 -8 12 -14 0 -1 0 4 59
1532260963122861 5 -7 -5 0 -2 1 -1 0
1532260963227581 2 8 12 4 1 1 0 -20
1532260963311357 9 7 -4 9 2 0 -1 -2
1532260963482898 -1 4 13 1 0 0 -5 -10
1532260963535757 -5 -5 -5 -6 -2 -3 -2 -4
1532260963663416 -4 -10 -17 1 3 9 3 1
1532260963685357 -1 -15 3 -2 -2 -1 2 0
1532260963760157 -2 -5 -10 -1 0 1 1 -2
1532260963835960 1 8 -19 1 2 -1 -1 -1
1532260963940674 1 -1 11 -17 -3 0 1 2
1532260964060354 -24 -16 109 1 -4 -51 -68 -82
1532260964113213 6 -3 -77 -2 -5 16 29 4

1532260964165074 5 2 -27 -5 9 12 19 11
1532260964367533 -10 -14 -10 -9 -8 6 5 1
1532260964413411 -1 -1 -8 3 0 -2 0 0
1532260964458307 -1 -11 -25 -3 -1 1 -1 1
1532260964525112 0 -2 -13 -3 -3 -3 0 0
1532260964570988 -2 -12 -25 -2 -6 -2 -1 -4
1532260964600909 3 5 -1 5 3 -3 1 2
1532260964654399 3 3 -10 6 2 1 0 0
1532260964675343 -3 -1 -6 -1 -1 1 -1 -1
1532260964705264 0 -6 0 -2 -2 0 0 0
1532260964728202 4 -25 -3 47 15 1 2 2
1532260964758122 -1 1 2 0 2 0 -2 -2
1532260964803002 -7 -3 -3 -1 2 -2 2 -4
1532260964832921 -12 -26 -14 -6 -4 -1 -2 -4
1532260964855860 1 1 -8 1 2 0 1 1
1532260964900740 -3 19 14 -8 -3 -1 1 -2
1532260964922702 -3 2 3 4 1 -2 -1 -2
1532260964998479 -2 -9 -2 2 -2 -1 -2 -2
1532260965020420 -1 -15 -1 0 0 -4 -3 -1
1532260965127142 2 6 -2 -1 0 0 0 -2
1532260965156066 -2 -14 7 0 0 -1 -1 -3
1532260965185985 -5 -4 10 1 0 -2 0 -1
1532260965209922 -2 -5 -3 -1 0 -3 -2 -2
1532260965230866 -1 1 -20 -1 -2 -5 0 -3
1532260965275745 0 4 -27 -2 -2 5 1 0
1532260965297686 2 8 11 1 -2 0 -1 0
1532260965312646 -5 -4 2 1 1 1 -1 0
1532260965342566 2 10 23 16 3 -1 -3 0
1532260965373493 0 5 53 19 4 0 -1 0
1532260965418363 -1 12 -35 7 -3 -6 -3 -3
1532260965448283 4 10 42 4 1 -4 -2 1
1532260965463243 -4 1 -20 -1 0 10 -6 -4
1532260965486182 -4 2 14 -2 3 -13 -26 -29
1532260965523084 2 30 13 6 8 -11 -1 -15
1532260965567964 13 32 23 1 1 8 9 65
1532260965642763 3 -16 -3 84 38 8 8 2
1532260965665702 -2 -11 -1 -7 -4 1 6 1
1532260965702604 -1 -2 -7 5 -1 -2 4 -3
1532260965717564 -3 -3 -13 0 -5 -3 4 1
1532260965755463 -1 27 -5 -4 -9 -2 -5 -1
1532260965808321 -4 -13 -8 -15 -2 -3 0 -2
1532260965845222 -5 -12 -7 -5 -4 -3 -2 0
1532260965860182 0 1 -14 4 -4 -2 -2 -2
1532260965898080 -2 -3 4 -16 -7 0 -1 0
1532260965965900 -4 -5 -6 -21 -9 -4 -2 -1
1532260966032721 1 -3 5 -6 -4 0 -2 -2
1532260966055659 -1 -2 1 -4 -5 -5 -1 -2
1532260966077601 -4 -4 -1 -8 -10 -5 -1 -1
1532260966092561 0 4 8 -8 -7 -6 -2 -2
1532260966107520 1 0 1 9 -6 0 0 -3
1532260966131457 0 9 -3 8 5 5 2 1
1532260966168358 7 3 3 -4 0 2 2 -1
1532260966198278 -3 -3 -1 -5 -7 -3 -2 -1
1532260966235180 -2 -1 0 -5 -6 -2 -1 -1
1532260966258118 0 -3 -1 6 -5 0 1 -1
1532260966273088 1 -1 -1 0 -1 1 -2 0
1532260966302998 -5 16 5 0 5 0 -1 0
1532260966317959 -6 -11 -4 -4 -2 -1 0 0
1532260966332918 6 8 0 -2 -2 0 1 0
1532260966392758 0 -2 -1 -6 -3 -1 -1 0
1532260966422679 -3 4 -2 -2 -1 -2 1 3
1532260966445617 -5 7 4 3 1 1 1 0
1532260966596214 -11 12 0 -1 1 -2 -1 -5
1532260966648075 2 -2 -5 2 -1 -2 7 7
1532260966663035 14 22 5 1 -1 -1 -4 11
1532260966685983 7 2 -14 -7 0 1 4 6
1532260966707915 5 -11 -18 -1 1 6 8 2
1532260966730854 9 -12 -2 -6 0 7 10 18
1532260966790694 -16 -55 -8 -4 -2 -6 -1 11
1532260966842555 52 43 9 -9 -5 -9 -9 -7
1532260966880454 -28 95 9 9 8 0 0 7
1532260966910373 -13 -113 29 -24 -12 -6 -2 4
1532260966933313 -6 -75 -8 -12 -4 -5 -6 8
1532260966965227 -56 -12 45 -10 -6 -4 4 3
1532260966993153 -29 -62 -27 10 -3 -5 -9 6
1532260967030054 30 124 -33 -38 -17 -10 -16 -23
1532260967082912 -29 -11 4 -12 -4 7 17 9
1532260967127792 -25 -7 33 22 11 14 20 34
1532260967181653 -59 0 -10 -13 0 13 32 -26
1532260967196608 36 0 4 1 1 -6 -13 10
1532260967218560 36 -3 11 4 5 0 0 40
1532260967278390 -40 4 12 27 1 -2 -4 -25
1532260967315292 19 2 17 -24 -5 -1 -13 -20
1532260967345211 -115 0 -16 -2 -9 -13 -6 -41
1532260967390091 -3 -1 -13 -31 -12 -1 8 -29
1532260967442950 31 1 15 12 5 -1 -3 9
1532260967570609 -30 1 23 3 1 1 -7 -47
1532260967675328 -31 -1 -6 -9 -5 -5 -12 -28
1532260967698267 -8 5 5 0 3 1 -5 -12
1532260967720213 5 -2 11 5 1 -6 -7 -12
1532260967765088 -3 -3 7 3 -1 2 5 -24
1532260967780049 -3 -2 7 2 1 2 15 1
1532260967797004 1 0 0 0 -2 2 -10 2
1532260967840885 4 -37 -6 -2 -4 0 44 2
1532260967885766 -5 14 -3 -4 -4 3 30 0
1532260967922667 8 19 19 7 7 2 -3 -3
1532260967952586 2 20 2 -5 5 -6 -20 -6
1532260968013424 6 41 -40 -3 -2 10 53 2
1532260968050326 -1 27 -23 7 1 -1 -1 2
1532260968067281 14 90 19 7 8 16 51 11
1532260968140085 -5 -83 7 -1 1 0 -2 5
1532260968177984 -11 -10 2 1 -1 -7 -29 0
1532260968224859 15 38 22 7 1 3 -15 -3
1532260968252784 12 -3 2 2 -2 -5 -42 -4
1532260968312625 20 -29 2 8 7 11 28 6
1532260968335563 -1 1 10 3 2 3 -5 -1
1532260968395403 -20 -5 -6 3 4 4 13 3
1532260968433301 -6 -20 -15 -6 -4 -7 -55 -4
1532260968463221 1 35 0 -11 -4 -3 -45 -3
1532260968508101 -12 26 3 -3 -2 -6 -35 12
1532260968540019 -10 -21 -11 0 5 2 11 15
1532260968605850 -16 -65 -20 -8 -3 1 38 16
1532260968672662 3 53 20 8 5 7 11 -22
1532260968763418 -1 51 -13 -9 -8 -7 -5 27
1532260968794336 7 -65 9 6 7 10 41 -14
1532260968815280 -2 50 10 2 -1 -3 8 -6
1532260968860160 -8 -84 -25 -3 1 5 37 -11
1532260968890080 4 -12 1 -3 -5 -8 -29 1
1532260968927978 6 28 -2 -2 -1 0 1 -22
1532260968965877 -7 -43 -21 -7 -2 -1 -2 1
1532260969040678 -7 -36 -59 -3 -2 4 7 -11
1532260969123456 1 25 20 4 2 1 0 1
1532260969184294 -3 -40 -91 46 16 4 2 1
1532260969288015 -3 7 6 26 7 1 2 2
1532260969325914 -4 1 -74 -10 -5 -3 1 -2
1532260969355846 7 3 -3 -1 -4 -4 -2 2
1532260969385754 -2 9 23 -6 -1 0 0 -2
1532260969408697 12 9 22 -2 -1 0 0 4
1532260969430634 1 11 6 -4 -3 0 -4 -7
1532260969513413 -5 -18 -111 -7 0 0 0 -1
1532260969535354 -2 6 67 4 -1 -1 0 -1
1532260969618133 12 -11 3 2 -3 0 0 6
1532260969693930 0 17 -7 -12 -4 1 5 -10
1532260969707893 2 3 -3 6 3 2 4 3
1532260969760752 -22 -22 -10 2 2 3 3 43
1532260969843530 3 0 4 7 2 -2 2 -64
1532260969911349 8 5 -14 -2 0 2 2 17
1532260969993131 -2 -6 -39 -3 0 3 1 -5
1532260970127770 6 12 15 3 2 -1 -9 -13
1532260970210549 6 14 -2 2 2 2 -1 2
1532260970270389 -11 -25 -6 -2 0 1 -6 -35
1532260970330229 -5 -17 -17 -2 -1 -3 1 -2
1532260970368127 10 20 35 0 0 -2 -3 12
1532260970413007 -5 26 -47 -1 -3 -2 -2 3
1532260970472848 1 19 25 4 2 2 8 36
1532260970562607 -18 8 13 2 0 2 -6 -79
1532260970638405 -38 -24 1 -2 -1 -2 -9 -85
1532260970728165 1 17 -8 -2 -1 0 1 -35
1532260970862804 -2 -18 -17 -2 -2 -2 -2 0
1532260971058282 0 4 4 -3 0 0 -2 0
1532260971103162 2 37 -4 -5 -2 -4 -3 -3
1532260971133082 -3 2 14 -2 -1 1 -2 -1
1532260971192922 0 2 2 -3 -1 -1 1 -1
1532260971320580 3 -1 1 0 -1 1 1 7
1532260971425301 17 30 16 -2 0 0 0 2
1532260971531026 -9 -20 13 -1 -2 -2 -2 -10
1532260971612799 4 -9 19 6 6 2 -2 -2
1532260971627759 5 -13 -18 -1 -5 -4 -1 1
1532260971643717 -4 18 17 1 -1 1 -1 1
1532260971657679 -1 -2 66 18 4 2 1 2
1532260971717519 10 16 15 -2 -1 1 -2 0
1532260971755418 2 3 -22 -5 -4 -2 -1 -1
1532260971928954 7 30 42 11 3 2 2 1
1532260971950895 -1 -14 -19 0 1 0 -2 -2
1532260971972837 4 5 5 5 1 2 2 0
1532260971995775 -5 -2 -16 -8 -3 0 -1 -3
1532260972025695 -6 -41 -14 -13 -7 -3 1 2
1532260972077557 -1 10 -29 15 3 1 0 -2
1532260972115455 -25 -7 18 3 1 1 4 9
1532260972213194 15 20 5 7 7 3 1 1
1532260972235135 5 -22 38 4 0 3 2 31
1532260972295972 -4 12 39 8 1 -3 -5 -17
1532260972362794 1 -7 -48 -1 1 4 2 7
1532260972392714 5 18 32 1 2 -2 0 3
1532260972415652 4 -9 13 -5 -3 -2 -3 -5
1532260972447567 -3 -21 -24 0 3 -2 1 1
1532260972460533 0 3 -28 2 0 0 0 3
1532260972483471 -11 17 12 -8 -6 -1 0 -14
1532260972505413 3 -12 -53 -18 -7 -2 0 4
1532260972573231 1 -4 -38 -3 -1 2 -1 -1
1532260972595173 -2 9 21 0 0 -3 -2 -2
1532260972625093 3 -17 -6 -1 -2 -3 -2 2
1532260972737792 -7 -19 14 -5 1 -6 -1 -10
1532260972760729 0 -1 -3 5 -2 -4 9 2
1532260972775690 -5 -4 -12 -3 5 0 -4 1
1532260972805617 0 -1 -2 1 0 10 -4 -1
1532260972858469 -4 -11 5 7 -1 -2 -3 -3
1532260973008068 -2 -3 -7 4 1 0 3 -1
1532260973032004 -3 -9 11 -4 -3 1 -1 -1
1532260973044969 -3 -12 -46 1 1 -3 0 -1
1532260973090847 2 -14 -4 -6 -6 -5 -5 -1
1532260973127748 -1 -5 -28 -6 -2 -1 1 -1
1532260973248425 0 -7 14 5 5 -3 1 18

1532260973293305 2 7 64 41 10 -4 -2 8
1532260973308265 -8 -10 -2 8 -3 2 -2 -14
1532260973345167 2 -11 -30 -11 -4 2 -2 5
1532260973412985 0 -9 -4 0 0 -11 -5 0
1532260973427967 1 -2 -22 -7 1 1 -2 1
1532260973450905 -4 2 11 12 4 2 -1 -3
1532260973472846 -1 7 27 -11 -4 1 0 -3
1532260973487806 -3 9 6 -6 -3 2 -4 -2
1532260973525705 -3 0 0 3 2 1 0 0
1532260973570038 -2 -3 -3 -1 2 -1 3 1
1532260973600955 -1 3 22 13 -2 -2 0 -2
1532260973682736 -1 -1 -7 -2 0 -4 -1 -2
1532260973705674 -1 -6 -11 -3 -4 0 0 1
1532260973727615 1 4 -15 -38 -12 0 1 1
1532260973757536 -1 -3 -4 5 0 -1 1 -1
1532260973773525 -8 2 4 3 2 1 -1 -3
1532260973788480 0 -3 0 2 4 3 -2 0
1532260973818397 2 -1 5 -2 -4 -1 -3 -3
1532260973833357 1 -4 0 0 0 0 -1 1
1532260973878237 -1 8 17 3 -1 1 1 2
1532260973900178 0 -5 -16 -6 -1 -1 -1 1
1532260973923117 -3 -3 6 -5 -3 0 -1 -3
1532260973953037 -7 14 25 11 6 -1 -1 -1
1532260974027837 2 -2 -18 0 -3 -1 -1 -1
1532260974050775 -2 2 -7 -2 0 0 0 1
1532260974088690 1 5 -4 4 1 0 1 1
1532260974125576 5 -5 13 -6 -2 -1 -1 2
1532260974163474 -1 -6 -19 -2 -1 0 -4 -2
1532260974185415 -3 -1 5 0 1 -2 0 -3
1532260974245256 0 -2 2 -19 -4 0 -1 -1
1532260974275176 0 1 -12 -14 -8 2 -1 0
1532260974305096 -7 -5 -67 1 0 1 0 -1
1532260974328034 4 4 -5 1 1 -10 2 3
1532260974372921 -7 -14 -11 -6 -3 11 -3 -4
1532260974402835 -3 -19 -25 -5 0 1 -9 -12
1532260974432754 -6 -4 20 6 4 -21 7 6
1532260974447714 6 -31 -47 -1 4 -3 3 -15
1532260974485616 8 -5 -66 3 1 7 -3 -4
1532260974508552 -2 15 106 28 3 -1 -2 -3
1532260974530492 0 -14 21 23 10 7 2 6
1532260974560412 1 -5 -10 1 4 9 2 1
1532260974583352 -1 -2 -11 -11 -3 -2 -2 -1
1532260974605293 -1 -3 5 2 0 1 -1 -3
1532260974620253 1 1 1 4 -2 -4 -3 -1
1532260974643191 -3 -3 -9 -6 -3 -2 -1 -1
1532260974665133 0 -3 2 9 1 -1 0 0
1532260974695052 1 15 28 -1 -1 -1 -3 -2
1532260974711010 -1 -8 -19 -7 -4 -4 -2 -2
1532260974732951 -4 -1 -16 -48 -15 -7 -3 -3
1532260974755899 0 9 4 22 14 7 1 -1
1532260974800769 -2 -5 -29 -49 -26 -9 -1 -3
1532260974822727 2 1 15 -11 1 1 0 0
1532260974845650 3 1 12 14 1 1 0 0
1532260974882554 0 0 1 2 5 0 -1 -1
1532260974913468 -4 -10 -4 4 0 -2 -1 -2
1532260974958349 4 5 -13 -32 -9 -6 -1 -2
1532260974980290 -1 -6 -10 1 -10 -9 -3 0
1532260975025170 1 1 -7 21 5 0 1 1
1532260975048109 0 5 2 8 2 -1 -1 -1
1532260975116925 -1 -1 7 13 2 0 -2 0
1532260975265527 0 5 -1 0 -1 5 -1 -2
1532260975289475 -2 -5 -7 -6 -7 -4 -2 0
1532260975310407 -2 -2 -4 -6 0 1 -1 0
1532260975333346 -2 -2 -2 0 -1 -2 0 1
1532260975378225 2 -1 0 -1 0 -1 -1 -2
1532260975408146 -6 0 0 1 -12 -6 -2 -3
1532260975445047 6 2 0 -2 -3 -2 -1 2
1532260975467986 -2 -4 0 1 3 3 -1 -4
1532260975490925 9 1 0 -2 -6 0 1 3
1532260975512866 -4 -7 0 -2 -2 0 1 0
1532260975542786 -3 4 1 2 0 0 -1 -1
1532260975565724 7 -3 2 -1 1 1 -1 1
1532260975647506 -1 -1 -4 5 4 1 0 -2
1532260975670444 -6 -2 4 0 -2 -2 -4 0
1532260975700365 12 37 45 -1 1 0 6 4
1532260975723304 -4 -3 1 -3 -3 -10 1 -9
1532260975775165 -48 -26 -11 -6 -2 0 -1 -6
1532260975798103 52 37 -6 1 0 4 11 15
1532260975828023 35 5 23 -2 1 4 1 7
1532260975902823 -15 -12 8 9 4 14 23 27
1532260976000561 -3 4 9 3 5 4 8 6
1532260976022503 31 82 0 2 -1 -3 3 48
1532260976068380 28 58 27 7 3 0 0 -25
1532260976113260 -58 -39 12 11 5 4 10 15
1532260976128235 -1 -24 13 17 3 -1 0 11
1532260976196039 2 32 13 0 -1 -4 -4 -23
1532260976232940 2 -44 -36 -4 -2 -2 1 18
1532260976300759 10 18 15 14 6 7 3 9
1532260976322700 7 -24 -18 -10 -6 -3 2 -20
1532260976337660 -12 -5 -12 -7 -1 3 10 -15
1532260976420439 34 6 -27 6 4 6 -2 -4
1532260976443378 -25 0 13 -25 -14 -6 9 13
1532260976489264 21 1 7 6 11 -6 4 22
1532260976503217 -1 1 -2 -1 -6 -4 -17 -37
1532260976533137 15 -4 15 7 0 14 -5 -15
1532260976555094 19 -1 -17 2 -2 -3 -10 -17
1532260976607938 0 -1 0 -5 -4 -3 -9 9
1532260976660796 -5 -4 -8 -2 -2 -9 -4 6
1532260976697698 11 107 -28 2 3 2 -1 7
1532260976900156 -5 4 -4 -7 -4 5 28 -3
1532260976938054 4 63 57 8 2 6 -10 -1
1532260976983932 7 -49 -39 2 3 -14 -13 16
1532260976997895 -5 -38 -12 7 4 -1 -25 3
1532260977020846 21 -6 22 9 4 -2 -20 -20
1532260977065713 -33 -53 -49 -23 -12 -17 -4 -27
1532260977087655 -8 29 -5 -3 -1 -2 -4 9
1532260977140513 -5 1 -19 -20 -3 0 30 -14
1532260977223292 -4 -18 -5 -1 -1 3 6 -10
1532260977247228 -9 35 -11 -6 -8 -15 -102 -8
1532260977285127 -14 -22 5 -2 -1 4 13 -17
1532260977306071 9 7 19 0 2 -2 -17 5
1532260977342972 10 10 7 -4 -2 -4 -5 -7
1532260977365910 -4 0 2 2 1 -2 7 -30
1532260977381868 -5 -32 -2 -1 0 -1 -3 8
1532260977417772 0 -51 -8 -8 -4 -1 41 22
1532260977449687 -14 -1 -1 -3 -2 -7 -4 3
1532260977500551 -7 7 -14 -6 -3 -6 -24 7
1532260977530470 18 5 5 4 4 7 7 24
1532260977553409 5 31 17 4 -1 1 34 69
1532260977605273 -13 -59 -20 -10 -11 -9 -27 -45
1532260977705004 -5 6 -10 -6 -3 1 24 20
1532260977740908 -12 -23 -12 0 2 4 10 -31
1532260977770828 -4 -14 0 -2 0 1 -2 20
1532260977824684 -10 -12 -2 -1 -1 0 18 -12
1532260977847623 8 -6 7 2 0 -1 9 15
1532260977891505 7 14 16 0 -1 -2 1 6
1532260977928412 -2 -26 -35 -2 -1 0 0 0
1532260977950348 8 -2 0 0 1 0 -2 8
1532260977995228 0 5 -1 1 0 -1 0 0
1532260978010188 1 14 26 4 1 -2 -2 3
1532260978040108 -1 0 0 9 3 1 4 4
1532260978063046 0 4 54 6 -1 -2 -2 0
1532260978100944 4 1 -59 2 -5 -3 -3 1
1532260978130865 -1 -20 -14 -17 -4 -1 -1 -3
1532260978160785 -12 15 18 -10 -3 -1 0 0
1532260978197687 6 -6 3 -5 0 1 3 13
1532260978235585 -6 26 -10 0 1 0 -2 -5
1532260978250545 -4 -16 15 -2 -2 -2 -1 -4
1532260978272487 5 12 22 3 0 0 -1 2
1532260978288444 -4 4 4 1 1 -1 0 -1
1532260978303404 0 0 6 -5 -2 -3 0 10
1532260978333324 -1 -3 -17 -1 0 0 0 7
1532260978363244 -2 -18 25 1 1 0 1 -8
1532260978400144 -12 65 56 -6 -15 -10 -10 -9
1532260978423084 3 -22 -6 -2 2 6 1 -4
1532260978469958 1 -22 -96 0 0 1 -1 0
1532260978542764 -1 -31 -20 3 5 2 -4 -9
1532260978557724 -2 -5 7 -2 0 0 3 -4
1532260978595635 0 3 -3 -7 -5 -3 -4 10
1532260978632524 -7 -5 5 3 1 -1 -3 -55
1532260978670422 2 -8 -12 -1 0 -2 -5 61
1532260978701339 9 -1 -4 1 -1 -1 -4 35
1532260978768161 3 10 2 -1 1 -1 0 14
1532260978790102 -6 -9 2 -2 0 1 0 8
1532260978828999 1 8 -3 -1 -3 0 -1 9
1532260978895819 2 -8 -7 0 -5 -2 2 1
1532260978926736 0 -6 -11 -1 1 0 3 77
1532260978970620 -19 4 3 -2 3 -3 -14 -60
1532260979000540 10 17 20 5 2 2 7 53
1532260979053398 6 -8 -14 -7 -3 0 7 91
1532260979090300 -5 3 -9 -3 -2 1 -4 -8
1532260979120219 11 -2 0 0 2 0 0 32
1532260979188038 15 7 11 4 1 1 -1 32
1532260979247878 -3 14 25 1 0 -1 5 9
1532260979390497 5 10 24 8 2 -2 3 -2
1532260979465297 11 1 -9 1 0 0 -6 69
1532260979489243 -4 -2 0 0 -1 -1 0 -19
1532260979667756 -1 2 3 2 2 -1 4 14
1532260979712635 -2 4 2 -1 0 1 -2 6
1532260979765494 -10 -10 -11 1 0 -2 -1 3
1532260979818353 -7 4 8 5 2 2 4 -20
1532260979863233 16 -1 -2 -2 0 1 -1 0
1532260979908113 1 4 25 3 0 2 1 2
1532260979952992 -4 -13 -27 0 1 -2 -1 -3
1532260980050731 -2 -17 15 -2 1 -1 -1 -2
1532260980065692 1 -8 -17 2 -2 -1 0 5
1532260980103589 -2 1 -3 -2 3 0 0 -7
1532260980148470 -4 -4 -10 7 5 7 -3 -54
1532260980163432 -1 0 -8 2 -1 0 1 11
1532260980185371 -24 -24 4 -5 0 -1 -3 -24
1532260980200331 7 -6 -1 8 5 1 -2 8
1532260980223269 6 -6 -11 8 0 1 -1 10
1532260980238230 -9 2 18 -27 -5 -1 -2 -26
1532260980275131 -6 -13 -24 24 7 6 3 -10
1532260980321008 5 -25 -18 -10 -3 -2 0 2
1532260980365888 2 8 -15 32 2 0 2 5
1532260980432710 -3 13 6 8 -4 -1 1 -3
1532260980530448 -4 -3 -10 -3 1 0 0 -3
1532260980673067 -14 -23 -41 -12 -3 -2 -1 -3
1532260980830646 5 21 9 4 1 2 2 -4
1532260980860566 -2 8 -7 1 2 11 1 1
1532260980905446 -5 -23 -66 -12 -5 -3 1 2
1532260980935366 -2 -11 9 4 4 16 43 -30
1532260981018143 6 11 5 -6 -5 -6 -6 3
1532260981056050 4 6 -4 2 -2 -6 -2 25
1532260981093942 -5 1 -1 5 2 3 -4 12
1532260981122864 0 14 6 -2 -1 0 -3 -8
1532260981154779 0 -1 -29 -8 -1 0 -1 13
1532260981197665 -1 -10 -12 -1 1 1 1 8
1532260981242545 -1 2 -4 -3 0 -1 -5 -39
1532260981265483 3 9 23 2 -1 -1 2 10
1532260981318341 -2 10 4 -3 -2 -2 1 -4
1532260981363221 0 0 -4 -1 -1 -1 -3 -2
1532260981408102 -1 -8 1 2 -1 -1 -5 -5
1532260981490881 2 2 -5 -2 -2 -4 -2 2
1532260981528792 0 4 2 -3 -2 -2 -1 -2
1532260981595600 6 -5 5 4 3 -8 15 7
1532260981648459 -6 -9 -5 0 2 -9 -6 -4
1532260981678379 7 4 4 2 0 -6 1 1
1532260981820000 3 11 14 -4 -3 -3 -2 -1
1532260981872859 -3 -20 -21 -3 -1 -3 0 0
1532260981925717 2 24 1 -1 -2 -1 0 -1
1532260981947659 -4 -17 3 0 -1 -5 -1 -2
1532260982000517 0 13 -5 5 0 -5 -2 0
1532260982053376 -2 -5 48 24 6 0 -1 -2
1532260982114213 2 -12 -48 -7 -3 -3 1 -1
1532260982150117 19 -59 -45 2 4 12 -4 -37
1532260982188016 10 58 15 6 4 10 0 -6

1532260982270794 -7 12 76 26 4 4 -3 6
1532260982285755 -1 -7 -29 -5 -8 -5 2 8
1532260982322657 -2 -4 -13 1 -2 -4 -4 1
1532260982352576 -3 -7 -13 -4 0 2 0 -1
1532260982368533 3 3 6 37 -2 0 2 4
1532260982398453 -7 -10 -5 3 -2 -1 -1 0
1532260982450315 -1 1 -15 -13 -4 0 -2 1
1532260982495195 -4 -9 -36 -15 -7 1 0 -1
1532260982525114 5 0 15 -1 3 -3 4 14
1532260982556033 0 1 3 5 1 -1 -2 -5
1532260982570992 -3 -37 -53 -8 -2 -3 -2 -2
1532260982607894 -1 12 17 1 1 0 -1 -2
1532260982637812 2 8 14 0 1 0 0 0
1532260982660752 -1 6 22 7 2 1 0 0
1532260982765471 0 -1 0 5 0 0 -3 -1
1532260982840272 2 -3 -13 -12 -3 -4 1 -1
1532260982870192 1 -3 6 -8 -5 -1 -3 1
1532260982944999 -2 -6 -3 -2 0 -2 0 -1
1532260983027770 2 11 20 0 0 1 -1 -3
1532260983102610 2 3 -5 -2 -1 -1 -2 -1
1532260983125561 2 -3 5 -1 -1 -3 0 0
1532260983163460 0 4 8 0 0 0 1 -1
1532260983185401 -5 -14 -10 -4 -2 -1 -2 -3
1532260983260201 -2 -2 -4 -5 -3 1 -1 1
1532260983313060 1 4 3 0 0 0 0 0
1532260983372900 -1 -2 -31 -1 -1 -1 -1 -2
1532260983440718 2 0 7 1 -2 -2 -1 -2
1532260983515519 2 -6 8 2 0 -1 0 2
1532260983584335 -1 6 5 -1 -2 0 0 0
1532260983807737 -3 2 5 1 -3 -1 -1 0
1532260983861604 1 -3 -9 6 -3 -2 0 0
1532260983905486 -3 2 -1 -4 -1 0 2 0
1532260984070047 0 -2 2 0 -1 2 0 -2
1532260984137872 -1 -3 0 -3 -1 3 5 1
1532260984438062 -2 10 23 6 -1 -11 -11 -3
1532260984527822 -4 2 1 -2 4 -10 -9 -16
1532260984580680 3 2 -2 -5 -1 6 0 5
1532260984625561 0 1 4 10 -3 -4 -1 -2
1532260984670441 1 -3 4 8 1 3 1 0
1532260984693380 -2 7 2 -2 13 4 0 -1
1532260984738260 -1 5 9 -3 3 0 -1 -1
1532260984760201 -1 4 15 -3 -6 -2 -1 1
1532260984828019 -4 -5 -6 -5 4 2 0 0
1532260984844974 2 -1 -8 0 -2 -2 -1 0
1532260984858936 0 -3 -3 2 -2 -1 -2 -1
1532260984947699 2 1 1 -2 -7 1 -1 0
1532260985000558 5 1 -4 0 -1 -4 0 2
1532260985083336 -12 -1 2 -4 -2 -2 0 0
1532260985120238 -2 7 11 -6 -3 0 0 0
1532260985143177 -10 1 -2 -12 0 1 -1 0
1532260985225955 -10 4 7 -6 -3 -2 -1 1
1532260985300754 17 16 -1 0 1 9 14 5
1532260985390515 4 -17 -4 3 -1 -5 -7 3
1532260985458334 -5 -32 -26 -2 -2 -22 -43 -10
1532260985503214 -23 -25 35 3 -2 -11 -27 -9
1532260985540116 41 4 39 2 4 4 10 15
1532260985578014 24 55 -9 -1 -1 -1 -4 -1
1532260985622894 -40 -59 29 3 -1 -2 -10 -39
1532260985705672 6 61 -46 -11 -8 -2 1 44
1532260985825353 -12 6 -5 -5 -5 -5 6 3
1532260985900152 -8 -1 61 5 2 6 6 19
1532260985967971 39 0 19 -2 1 6 11 43
1532260985990910 -36 1 -14 0 -4 -2 1 -9
1532260986012851 0 0 -8 -7 -4 -5 -8 -17
1532260986065709 -11 -3 -20 -2 0 -1 9 -36
1532260986110589 18 2 -1 -4 -5 -5 -15 21
1532260986148488 17 -1 1 3 1 3 13 14
1532260986223289 17 0 6 5 4 5 7 11
1532260986260190 18 2 16 1 2 -2 6 22
1532260986350947 4 0 -7 -2 0 -1 -5 8
1532260986365906 7 -1 6 -3 -4 -5 -6 2
1532260986440707 7 -35 15 4 -4 -3 10 1
1532260986538464 12 6 -39 4 -2 -3 11 6
1532260986568365 -4 -58 30 1 -2 5 18 5
1532260986622221 -4 -13 -27 4 2 -4 -25 -2
1532260986665107 9 32 -55 -1 -5 -7 5 -4
1532260986688046 8 9 1 -4 0 1 -9 -3
1532260986747886 15 20 60 4 4 10 21 12
1532260986935384 13 30 37 12 2 -20 -16 -6
1532260987025145 0 9 -17 -5 0 -3 -3 4
1532260987182723 -1 15 9 1 0 5 43 3
1532260987205661 22 73 17 6 2 8 30 -4
1532260987333319 -18 15 -27 -9 -4 -1 20 0
1532260987557719 0 17 16 8 4 -1 2 -11
1532260987708317 -4 3 52 1 2 -1 -5 0
1532260987754204 1 -30 28 -1 -1 0 -1 -4
1532260987842957 -6 -16 -10 0 -2 -2 -3 -12
1532260987962637 10 17 6 5 2 0 -1 3
1532260988098274 1 13 10 2 0 0 1 0
1532260988150136 -9 4 27 4 1 -1 0 5
1532260988181053 6 -20 -58 -1 -4 -7 -2 49
1532260988225933 18 -7 4 -2 -2 2 3 58
1532260988277794 24 9 12 2 1 0 -2 14
1532260988293751 -14 -36 -50 -18 -3 -2 0 12
1532260988390493 2 -10 9 5 3 1 -8 -25
1532260988421419 -2 -5 -9 -2 -2 -1 -1 -20
1532260988443351 27 -24 -3 -1 0 0 -4 19
1532260988565027 2 6 17 3 -2 -2 -2 -12
1532260988698669 20 -16 -8 -3 -6 -5 7 86
1532260988765490 -2 9 -19 -3 1 0 -7 -28
1532260988795410 -1 6 -22 -2 -1 0 4 83
1532260988825331 -15 14 17 3 1 -1 -8 -43
1532260988885170 9 -46 -17 1 1 0 -2 -60
1532260988923068 -28 9 -2 -2 1 0 -12 -23
1532260989065687 -17 -20 -30 -8 -6 -6 0 -28
1532260989110568 -2 -3 2 1 1 -1 -2 0
1532260989156444 -3 33 7 -5 -5 -6 -5 -3
1532260989275127 8 -18 16 5 2 4 3 7
1532260989462626 -10 10 2 0 0 -3 -1 -33
1532260989554381 -16 8 -2 0 0 -2 1 -40
1532260989575325 -3 -6 -4 3 1 -1 -5 -11
1532260989620205 14 43 6 3 -1 -3 2 38
1532260989688023 12 -17 -8 -4 -1 -1 2 11
1532260989899457 -12 -17 13 -2 -1 -3 -2 -24
1532260989920402 -2 -29 -9 -4 -1 -2 -1 -15
1532260990033100 3 -12 -16 -1 0 0 -1 1
1532260990273457 -2 18 10 11 10 1 1 2
1532260990385158 3 11 9 5 -4 -3 -2 2
1532260990482923 -8 -8 5 -19 -1 1 -2 -3
1532260990640502 -2 -7 4 -8 -4 2 -2 -1
1532260990663441 -4 -6 8 1 2 -4 -4 0
1532260990785116 2 13 65 1 -2 3 0 2
1532260990828000 -2 -11 -15 -4 1 -2 -2 0
1532260990895820 6 2 -41 -7 -4 -9 0 -1
1532260991120219 1 2 7 -2 0 -6 -1 0
1532260991135179 6 1 -1 -9 -4 -7 -1 6
1532260991165099 0 2 -6 1 0 -6 -1 -2
1532260991210977 5 7 18 2 0 0 -1 1
1532260991277798 0 -23 -15 0 1 0 0 -2
1532260991293754 -1 0 8 3 -1 0 -2 -2
1532260991316694 0 11 19 1 0 1 0 3
1532260991360576 -1 0 7 4 2 9 -1 -1
1532260991443355 14 1 11 14 4 -2 11 39
1532260991563035 3 6 23 6 4 4 5 4
1532260991600934 2 12 -9 6 3 2 2 1
1532260991630854 -4 6 6 -3 -1 1 -5 -2
1532260991652795 -1 -4 -5 -2 1 4 4 2
1532260991698672 -2 -11 -14 0 0 3 2 -1
1532260991727595 0 11 16 -3 -2 0 -1 -3
1532260991750534 2 3 -72 10 0 -2 -1 0
1532260991788432 -2 7 9 -7 -2 1 -4 -2
1532260991840293 -5 -2 18 -11 -3 -5 -1 -2
1532260991863232 -1 -4 -10 -6 -1 2 5 -1
1532260991900133 0 -16 -11 4 4 4 -2 14
1532260991930054 14 20 -7 1 -2 -6 5 65
1532260991945013 7 -77 -52 -2 -1 7 5 37
1532260991982911 -3 16 -42 -2 -1 -11 -21 -12
1532260992020811 -7 23 74 -33 -7 6 0 -13

1532260992035771 3 40 109 66 20 6 16 8
1532260992110576 -3 -6 14 -2 -5 -9 -2 -3
1532260992125537 2 -4 -11 -1 0 -3 0 -3
1532260992164432 0 -1 -14 -5 -2 -1 1 0
1532260992208315 -1 -7 -32 -3 -2 -3 1 -1
1532260992305057 -2 -3 -1 8 1 4 1 -4
1532260992365894 2 0 3 1 -1 -2 -1 1
1532260992417755 -1 2 -5 -3 -1 -1 -2 -1
1532260992538434 1 -6 9 -2 1 2 1 -1
1532260992620214 -2 1 15 -2 -1 -2 -1 0
1532260992651134 2 10 -6 -4 -4 0 -1 1
1532260992702992 3 1 -4 6 10 3 0 1
1532260992762833 -3 3 -28 6 0 2 3 10
1532260992852593 15 8 1 -4 7 28 -34 94
1532260992898478 -2 -16 20 6 3 10 17 27
1532260992913430 6 9 -67 71 18 -6 0 -14
1532260993003189 2 0 -20 -42 -15 -3 0 1
1532260993070010 0 3 30 3 9 2 0 2
1532260993115888 -1 0 -3 -8 -2 -2 2 1
1532260993273467 1 -2 -3 3 2 0 1 1
1532260993295447 -2 -1 -7 -8 -2 -4 -1 0
1532260993318386 -1 2 0 0 8 2 -1 0
1532260993348306 -5 -10 -3 -34 6 3 1 -1
1532260993370248 -2 -2 -3 -23 -17 -10 -5 -1
1532260993527826 -1 -3 -2 0 -2 1 1 -1
1532260993550764 -3 -2 -3 -1 1 0 -1 -1
1532260993640525 7 0 -7 -10 0 1 0 4
1532260993783143 4 4 0 -2 0 1 -1 -4
1532260993849965 -6 10 24 0 -2 -1 -2 -5
1532260993902824 -8 -13 28 6 2 1 -14 -18
1532260993962663 -3 4 -25 -8 -3 -4 10 80
1532260994015522 7 21 -10 -1 3 1 2 -2
1532260994075362 -47 -19 15 17 12 6 2 2
1532260994113260 2 16 -1 -2 3 5 8 54
1532260994165122 -11 -38 8 -1 0 6 14 -6
1532260994285799 -15 78 10 11 2 -3 0 41
1532260994330679 58 55 3 -3 1 -1 -2 -10
1532260994428418 -72 -97 -17 4 1 -1 3 -19
1532260994480279 23 7 -6 -11 -3 2 4 1
1532260994548098 48 12 1 -8 0 12 11 39
1532260994607938 -3 -29 10 -4 -1 4 -1 -13
1532260994630876 -17 -11 2 -4 -4 -3 7 -4
1532260994660796 -34 7 -2 -5 -2 37 7 -2
1532260994690716 10 -10 0 9 -3 -18 -6 -6
1532260994803415 10 -3 9 -3 -2 -3 0 2
1532260994840316 -3 -3 4 1 4 25 -3 -17
1532260994857271 6 -3 -10 -2 1 -13 3 34
1532260994908135 -14 2 1 -6 -5 2 -6 -11
1532260994938055 8 -3 2 0 1 3 2 3
1532260994961991 0 -2 0 0 -3 0 -4 -9
1532260995027815 -6 14 7 4 4 9 6 0
1532260995051751 -5 -37 -5 -6 -3 -2 7 -4
1532260995117575 0 15 7 -13 19 3 -2 -3
1532260995185393 -2 25 -9 13 3 0 -16 -2
1532260995200353 4 63 10 -4 -5 0 13 1
1532260995245234 -1 12 4 -9 -5 -4 -25 -5
1532260995283132 -28 1 -15 -13 -11 -15 -20 -6
1532260995335990 1 -4 8 3 -4 -1 1 -2
1532260995440714 -4 12 -10 -1 2 10 -51 -12
1532260995538449 6 39 1 -1 0 3 6 7
1532260995590310 2 -55 -2 2 6 15 31 6
1532260995628210 -1 19 1 -3 -9 -5 14 5
1532260995673089 3 -63 -2 8 2 -2 -21 0
1532260995725959 -2 -14 -2 -1 1 -6 -26 -21
1532260995762850 -11 -26 1 1 0 -3 3 -38
1532260995867569 7 -39 -16 -8 -5 1 31 12
1532260995950348 2 -10 -8 -3 -2 -2 5 30
1532260996100945 -8 27 11 3 1 0 35 -27
1532260996137846 -2 -18 -26 -5 -4 -5 -37 -2
1532260996212646 3 8 5 -1 -2 -1 15 -4
1532260996272487 -2 -14 17 4 3 2 -2 -2
1532260996333324 3 -17 34 -3 -2 -2 0 0
1532260996542764 -2 4 32 0 1 -3 -2 -5
1532260996602604 0 13 16 1 -4 -3 -1 -3
1532260996708321 -16 25 25 3 0 2 2 7
1532260996872881 0 3 -10 3 -1 -2 -1 6
1532260996895820 14 7 23 16 2 -3 1 -4
1532260996955660 1 28 20 13 7 4 2 1
1532260996992561 -15 -70 -114 -24 -5 -1 1 0
1532260997038457 -4 -4 10 8 1 0 1 -24
1532260997182054 -2 -2 -8 -1 -4 5 -2 -37
1532260997204993 -8 12 31 3 -2 5 -4 -19
1532260997322678 6 -10 1 6 4 2 2 5
1532260997360577 -15 19 30 6 1 1 3 -4
1532260997459325 -9 -5 -10 -3 -1 -2 -3 -20
1532260997503204 -9 -7 -3 -7 -3 -2 4 22
1532260997570017 3 -7 -9 -3 -1 1 -2 -12
1532260997660774 -10 -3 6 -4 -2 -3 -1 -28
1532260997705668 16 38 42 7 4 2 2 2
1532260997750534 -1 -18 -45 0 -1 10 35 9
1532260997780454 -18 -13 -8 -1 -3 -7 -19 9
1532260997870214 3 -9 -16 -1 0 0 5 52
1532260997923073 -18 -11 -7 4 5 -3 -12 -4
1532260997982912 18 6 18 2 2 1 2 -37
1532260998020813 14 20 17 4 0 -1 -3 4
1532260998155452 -12 8 25 0 1 1 -6 -66
1532260998193350 -11 17 -1 1 2 2 -3 -15
1532260998268150 -11 -22 -6 -4 -3 -1 0 -2
1532260998283110 -8 -12 -88 -7 -3 0 -2 -1
1532260998313030 -7 25 23 2 1 0 10 -11
1532260998410768 -43 -64 -98 -27 -5 -3 -8 -22
1532260998568347 12 4 2 3 1 1 0 29
1532260998837643 -7 1 -4 -1 -3 1 0 -7
1532260998860566 -2 2 -3 1 -2 -3 0 -8
1532260998958305 -3 4 -6 0 -1 0 0 -9
1532260999064022 -6 21 -2 2 -5 -2 0 -2
1532260999107910 10 -21 3 2 3 3 1 5
1532260999130848 -10 -2 -5 8 -4 -1 -5 -2
1532260999191686 -4 -8 -11 1 1 0 4 10
1532260999288428 11 7 9 -1 0 -1 0 5
1532260999340289 2 0 0 -1 -2 -2 8 5
1532260999364225 -1 -17 -22 -1 1 0 -2 2
1532260999408107 -3 16 14 16 5 1 2 -5
1532260999475926 -1 1 -33 8 -2 0 4 -4
1532260999557707 5 12 6 -4 -2 -1 -2 13
1532260999625526 -6 -19 -24 -38 -6 -1 0 -2
1532260999813025 0 19 29 32 5 1 1 0
1532261000000523 -9 -19 -20 -9 -2 0 0 -3
1532261000143142 2 4 3 -3 2 5 2 6
1532261000196001 -1 13 51 6 3 3 1 -8
1532261000240881 1 -15 -9 -1 -3 -6 -6 -16
1532261000367542 -6 1 0 -1 1 3 4 -4
1532261000413419 0 9 31 1 -2 0 0 -4
1532261000465280 2 -2 0 0 -1 0 3 2
1532261000488231 -12 -1 -2 1 1 0 -2 -11
1532261000518139 2 6 -20 4 1 -2 2 -4
1532261000563019 3 11 21 12 4 3 -1 -4
1532261000585957 5 7 16 -4 -2 1 2 4
1532261000630838 -2 -7 0 1 0 -5 -12 -13
1532261000652781 8 8 18 17 4 -1 1 5
1532261000675717 3 3 6 1 0 -1 1 3
1532261000742539 0 2 -1 -1 -1 -13 -8 1
1532261000840278 2 -1 -10 -6 -6 -11 -6 0
1532261000908096 -1 -5 2 -2 -1 7 14 6
1532261001028774 -2 27 23 -1 -2 0 -1 -2
1532261001051713 -3 -5 2 3 4 1 2 1
1532261001087616 1 7 -13 -4 -2 0 0 0
1532261001132496 -1 -7 -15 1 1 2 1 0
1532261001178379 -2 17 0 -2 -4 -5 -1 -2
1532261001238214 -4 12 22 0 -3 1 0 -2
1532261001283093 19 -42 10 2 0 -19 -23 40
1532261001313013 5 23 -8 -2 -11 14 -19 -22
1532261001335953 -12 5 -14 -3 2 4 7 -14
1532261001365872 -6 -40 -34 12 12 3 8 10

1532261001410751 1 -4 -12 -4 1 3 6 -2
1532261001425712 -5 3 -33 -4 -6 -1 -4 -3
1532261001455636 3 -31 -4 13 5 2 1 -10
1532261001485552 -3 0 3 15 1 -1 -1 -2
1532261001523450 0 0 -12 -12 -4 -6 0 3
1532261001538436 -3 9 5 -5 -6 -3 -1 -4
1532261001598251 -1 1 13 16 7 -1 -1 0
1532261001628171 -1 2 -2 4 0 -1 1 -1
1532261001777771 -2 7 4 -6 0 -3 -2 1
1532261001852570 1 0 17 7 -1 -2 -1 -3
1532261001899445 -1 6 4 3 -1 1 0 -2
1532261002063008 0 -6 1 -5 1 3 0 0
1532261002152768 0 -3 2 -1 0 -2 1 0
1532261002205627 3 0 4 3 1 -1 2 1
1532261002273445 -1 -8 -35 0 -3 0 1 -1
1532261002475903 1 2 2 9 1 0 0 -1
1532261002550772 1 7 10 -8 -2 0 -2 1
1532261002632553 1 -1 -21 2 -1 -1 -2 0
1532261002738270 0 0 0 1 -1 1 -2 0
1532261002842990 -1 -1 -8 -3 0 2 0 -2
1532261002917790 1 -3 -11 -2 -2 -3 0 1
1532261003015529 -1 2 3 1 -1 1 1 -2
1532261003120249 4 -5 3 -5 -2 -2 0 1
1532261003180089 -3 0 1 1 0 -1 -2 0
1532261003307753 -3 3 -12 -2 0 2 -1 -2
1532261003660825 0 0 5 0 0 0 -1 -1
1532261003885226 -3 -12 1 -5 0 -2 0 0
1532261003938084 1 -2 -3 -3 -2 -1 1 -1
1532261004020862 0 1 9 8 2 0 1 0
1532261004462713 0 -4 -12 -1 -1 0 -1 1
1532261004492666 0 -4 2 1 -1 -1 -2 1
1532261004553503 1 6 19 1 1 1 1 1
1532261004605364 -1 0 1 1 1 -1 0 -2
1532261004740005 1 0 -1 -3 0 0 1 2
1532261004905562 -1 0 -12 -2 0 2 0 1
1532261004988359 -2 -1 -2 0 0 -1 -1 -2
1532261005003300 -2 2 -5 -2 -1 -2 0 0
1532261005048181 -2 -10 1 0 -2 0 0 0
1532261005116008 -5 -14 -2 3 -1 -2 0 -1
1532261005160878 3 0 -9 -11 -5 0 1 1
1532261005175838 -1 17 26 -2 -2 -2 0 -2
1532261005214735 1 -4 25 0 -3 -1 2 -1
1532261005250639 -1 3 -23 0 -1 -1 -1 -1
1532261005295519 -1 -7 -28 -10 -2 0 -1 0
1532261005348378 0 0 -10 -17 -3 0 0 2
1532261005461076 -2 -4 -31 2 -1 0 3 1
1532261005505968 -1 3 12 1 -2 0 -5 -2
1532261005527898 -1 -3 -7 5 0 0 0 0
1532261005625636 -1 -13 -11 0 -3 2 -1 1
1532261005715396 -3 -8 -6 65 19 4 1 0
1532261005760276 0 3 10 -3 1 -3 -3 0
1532261005880954 -1 0 6 2 1 -2 -2 -1
1532261005970713 -1 -3 -34 -3 1 -2 -1 1
1532261006015594 -1 -11 -24 9 -1 -1 1 0
1532261006046510 -2 0 14 -13 -3 0 0 -2
1532261006150233 2 5 -21 2 0 -1 0 0
1532261006240996 0 6 26 6 3 -2 -3 -2
1532261006301828 5 -1 16 2 0 -16 -11 2
1532261006360671 1 7 18 28 12 16 2 3
1532261006375630 -6 43 95 30 -6 -8 -12 -6
1532261006428494 2 -18 13 -16 4 6 6 6
1532261006473370 0 -7 14 1 0 0 -2 -1
1532261006518249 4 14 18 12 10 2 2 2
1532261006548169 -4 -7 -6 1 -6 -3 -2 0
1532261006593049 -2 -4 -1 -10 4 0 1 0
1532261006645908 -1 0 -19 -6 -8 0 -1 -1
1532261006682809 2 -2 -5 -1 -5 -2 1 -1
1532261006720707 1 3 -2 9 1 -1 1 -3
1532261006742649 -1 2 5 -8 -5 -1 -1 -2
1532261006780548 -15 -6 -2 -4 -4 -2 0 -3
1532261006803494 -6 -12 -2 -1 2 0 -3 -2
1532261006840388 1 2 6 0 -2 -2 -1 -3
1532261006863327 2 -1 1 -1 -2 -3 -1 0
1532261006878286 -1 -4 -1 0 0 -1 -1 -1
1532261006900227 0 -4 4 4 3 3 0 0
1532261006945108 3 -2 -1 -4 -3 -1 -1 1
1532261006983009 7 6 3 -4 -3 0 1 3
1532261007089721 -5 -6 -10 -4 -1 1 -1 0
1532261007170505 -19 14 13 3 -1 -2 -4 -16
1532261007193444 3 5 10 -3 -5 -2 -3 3
1532261007238327 3 6 13 5 -1 -2 0 -3
1532261007275225 39 31 11 6 4 3 0 2
1532261007305161 2 33 -8 0 1 3 1 0
1532261007336069 -17 16 -28 -9 -3 -2 0 -4
1532261007395902 -7 -26 6 1 -2 -2 0 12
1532261007425822 34 -58 15 3 4 5 3 19
1532261007447764 22 52 9 -26 -5 -6 -14 7
1532261007492643 -19 0 -15 1 -1 -2 -2 -5
1532261007522564 3 0 -6 -10 -6 -4 11 7
1532261007560462 18 -40 7 6 0 -2 -1 5
1532261007628282 -28 0 3 4 4 2 -2 -6
1532261007650230 -24 71 5 13 7 7 2 11
1532261007673161 -7 88 1 -1 -1 -3 -9 -1
1532261007727017 5 15 -7 -9 -7 -5 -5 -2
1532261007740984 -22 -9 -2 -9 -4 -6 -4 -16
1532261007792840 13 -22 -11 -7 -4 -3 -7 2
1532261007815779 7 8 3 11 -1 -2 -2 2
1532261007890579 -37 -22 -6 3 3 4 -8 -30
1532261007928478 -16 4 -5 4 1 1 -4 -13
1532261007950419 -31 8 -3 -4 -5 -7 -4 -12
1532261007995300 0 -2 1 2 -2 -11 -4 -28
1532261008020232 15 -3 3 0 1 1 11 27
1532261008078078 -29 1 -8 -3 -2 1 -3 -9
1532261008115981 -13 2 2 -2 1 5 6 7
1532261008137918 21 4 1 2 4 11 6 11
1532261008190777 -4 -1 4 25 5 0 -4 2
1532261008220697 15 -3 -6 -2 -2 -1 0 -4
1532261008280537 6 3 -3 -3 -4 -3 -4 -6
1532261008310457 -4 0 -2 -3 -5 -6 -5 -1
1532261008348354 20 -1 -2 -2 -1 0 1 6
1532261008445097 4 13 -1 -1 -3 0 13 2
1532261008550814 -4 -12 -2 3 9 3 -5 3
1532261008580749 -17 -52 -19 -15 -13 -8 -20 -7
1532261008634590 -5 -1 -25 -6 -5 1 20 -4
1532261008655534 -3 37 4 -1 0 5 -54 -17
1532261008700414 3 31 15 13 8 0 -14 6
1532261008800147 -10 -50 2 -7 0 0 11 -3
1532261008821104 -7 25 -9 -2 8 20 33 3
1532261008865971 3 23 3 -1 -1 1 20 -4
1532261008902873 -11 8 -21 -6 -4 -5 0 -2
1532261008925811 -13 -52 -19 -8 -7 -9 -86 -17
1532261009045491 -4 -12 -19 -7 -4 -4 12 0
1532261009128270 9 12 -2 -1 -3 -1 -6 -5
1532261009165171 12 46 14 9 4 0 10 26
1532261009210051 -16 -14 -3 0 -1 -1 0 -6
1532261009405529 -23 -50 1 5 4 0 -2 -39
1532261009465369 14 62 24 6 1 -1 -19 5
1532261009607987 14 -4 16 11 7 10 40 10
1532261009697747 -2 12 0 -5 -1 -5 -1 17
1532261009803464 8 12 -8 2 -2 -2 13 25
1532261009908184 6 26 2 1 -1 -2 -2 -5
1532261010012904 -1 4 -70 -2 -2 2 4 4
1532261010110642 -2 6 74 -7 -4 -5 -1 -3
1532261010155523 -2 -18 -64 -10 -5 -1 -4 -2
1532261010298142 -8 6 7 -1 -3 -4 4 37
1532261010335042 -5 -19 -20 5 0 -2 -6 -19
1532261010387902 -17 23 -20 -7 -4 -1 -1 -39
1532261010425800 2 -17 -74 -3 -3 1 -1 7
1532261010455734 1 36 34 2 -1 -1 -4 -5
1532261010620280 42 14 41 16 6 -2 6 19
1532261010680120 2 -32 -32 -15 -5 -8 -7 28
1532261010875597 9 -10 2 2 2 4 0 69
1532261010935437 9 4 7 0 2 9 -12 62
1532261011048136 -13 18 7 0 0 0 6 14
1532261011325395 -3 14 11 4 2 -1 -3 20
1532261011363292 -10 -100 -73 -14 -5 -2 1 -26
1532261011468013 5 24 18 5 2 -2 -2 7
1532261011550791 -28 -13 81 0 -5 -3 -5 -6
1532261011617613 6 -26 0 -1 -1 -2 -5 14
1532261011723330 8 20 2 -1 -2 -2 -8 -24
1532261011753268 8 -10 -15 -2 1 2 2 25
1532261011806120 -9 -88 -1 0 -1 -2 -3 -12
1532261012045469 -32 -25 -36 -6 -1 -1 4 8
1532261012367608 -6 -3 -5 -1 0 2 1 2
1532261012405508 4 6 -5 1 -1 -2 1 -1
1532261012652845 -1 -3 -8 -10 -2 -1 0 -4
1532261012682765 0 -2 -17 3 4 0 -1 1
1532261012712702 6 -2 -1 3 3 1 -2 -2
1532261012930103 -3 -5 3 38 10 0 1 -2
1532261013005902 -3 0 -13 15 4 3 2 -1
1532261013110621 0 25 44 11 1 1 1 0
1532261013238302 5 27 59 4 -3 -10 -2 2
1532261013284156 9 17 61 0 0 -5 -1 0
1532261013320060 -12 2 -4 -3 0 4 1 0
1532261013387879 9 8 3 0 1 5 1 4
1532261013432776 5 3 15 -1 1 -2 3 0
1532261013462679 -1 -1 5 -4 0 -2 0 0
1532261013539474 2 -4 11 -2 -1 -1 -1 -1
1532261013605299 -4 -12 -10 -7 0 2 0 0
1532261013650177 1 9 36 0 -2 0 0 17
1532261013673117 -2 -1 -37 1 -1 -2 -2 -3
1532261013717996 0 5 22 0 0 -8 -1 0
1532261013762876 5 4 3 2 1 2 9 -2
1532261013785815 -1 -3 -6 0 1 5 -2 -5
1532261013807756 -2 5 7 6 3 19 7 0
1532261013837676 0 -4 -4 -1 0 -18 0 -1
1532261013905496 -7 -15 5 -7 -2 -5 -4 -2
1532261013928434 4 21 16 11 2 -1 -1 -1
1532261014003233 -3 -20 16 -1 5 5 2 -1
1532261014063074 -1 -19 -48 -12 -2 3 0 0
1532261014107954 1 4 -11 4 0 0 -2 -2
1532261014138871 -3 1 11 -3 -2 -1 2 -1
1532261014175772 2 8 -20 17 6 2 0 0
1532261014197714 -2 13 -4 -2 -1 3 1 2
1532261014227633 2 -6 -16 -3 -1 -1 -3 0
1532261014273511 -3 -1 -17 -3 -3 -2 -1 0
1532261014296449 -1 -13 11 -1 -1 0 1 1
1532261014310412 -13 26 1 1 2 -1 5 -28
1532261014340332 12 -7 4 -8 0 13 -10 20

1532261014408150 -33 -19 -9 -1 0 -14 -23 30
1532261014438494 -3 -62 -82 -14 -3 -5 -8 1
1532261014498322 -1 6 -10 -7 -2 1 -1 -5
1532261014528243 -2 -1 -37 0 0 3 -3 -1
1532261014550183 0 -9 -16 -1 -2 -5 0 -4
1532261014603058 2 18 4 46 9 0 -1 2
1532261014647937 0 -7 -7 -10 1 -1 3 1
1532261014685836 1 4 2 -8 -1 -1 2 0
1532261014730716 0 4 19 -13 -4 -1 0 0
1532261014782578 2 -4 4 1 2 1 0 -1
1532261014843415 -2 -10 -24 -2 -1 0 -1 -1
1532261014874339 2 2 17 0 -3 -1 1 -2
1532261014895283 -2 4 -2 2 2 0 -1 -3
1532261014926200 2 -3 -11 1 -1 -2 -1 0
1532261014940163 -1 -1 -2 -2 -1 1 2 0
1532261014955123 -1 -6 -15 -2 1 1 0 -1
1532261015015960 -1 -11 -17 0 -1 0 1 0
1532261015037900 1 2 5 -1 -1 -1 -1 0
1532261015075799 -1 2 15 3 -1 0 0 -1
1532261015120680 2 -2 -1 11 4 2 0 0
1532261015142621 -3 -4 -14 -9 -5 0 -2 -3
1532261015165574 1 2 5 0 -2 1 -1 -1
1532261015181532 0 6 23 2 1 -1 -1 -1
1532261015240375 -2 -2 -10 -1 0 0 -1 -2
1532261015263313 2 -3 -8 -1 -3 -2 -1 -2
1532261015308193 0 0 -3 -1 0 2 3 -2
1532261015353073 -3 -6 -13 2 2 0 -4 0
1532261015420892 -2 3 14 -2 -3 -2 0 -1
1532261015450812 -1 1 3 2 1 -2 -1 2
1532261015487712 1 1 -9 -2 -1 0 -1 -1
1532261015502673 -2 0 9 0 -1 -1 -1 -1
1532261015585452 2 5 50 5 0 -1 -2 0
1532261015615396 3 16 14 -2 1 4 1 0
1532261015638334 1 -15 -23 -1 0 0 2 1
1532261015660275 -3 -4 -29 5 4 7 -1 0
1532261015720116 -4 14 10 3 4 -4 -4 -4
1532261015780995 -9 -4 3 1 6 19 -2 -39
1532261015862776 -1 10 -53 -29 -14 1 4 2
1532261015907657 0 -10 -6 4 3 -1 1 -1
1532261015969491 -3 8 19 -1 -3 -2 -2 -1
1532261015991448 -1 -1 9 -18 -4 -1 -1 0
1532261016028334 1 1 -4 -18 -3 1 -1 0
1532261016065235 -2 -1 -5 3 -2 1 0 0
1532261016080195 -2 4 -4 5 3 1 1 1
1532261016110114 0 -4 -15 -2 1 1 -1 1
1532261016162974 3 7 12 18 2 0 1 2
1532261016207853 0 -3 -9 5 6 0 0 -1
1532261016260712 0 2 1 -2 -1 -3 -1 -1
1532261016282653 -3 -1 2 0 1 0 -1 -2
1532261016297613 -1 -2 -4 2 -1 -2 0 -2
1532261016343491 -1 -1 -3 -6 -1 -1 -3 0
1532261016365432 6 8 8 1 -2 0 0 -1
1532261016403331 1 1 5 -3 -5 -2 -1 0
1532261016440232 -13 -12 -13 -1 -2 -2 0 -1
1532261016590829 -8 24 -3 3 2 -1 -3 8
1532261016657650 5 -32 -7 -2 -2 -1 1 19
1532261016718487 10 -46 -20 -3 -5 -4 1 -16
1532261016770348 -25 6 8 2 3 3 1 -23
1532261016853127 29 59 4 1 2 -1 -1 -4
1532261016875069 22 28 3 -3 -4 -5 1 28
1532261016995746 -12 22 2 5 6 6 -1 -3
1532261017025666 1 -29 19 -3 -3 2 4 2
1532261017056584 3 -41 -3 -10 -3 -6 -1 2
1532261017079523 9 -10 -8 -7 -1 -2 -2 -1
1532261017130387 -29 17 -11 -4 0 2 3 14
1532261017175266 6 6 23 -5 -3 1 -3 -7
1532261017190227 9 17 -9 4 0 0 -14 -33
1532261017235107 48 11 -4 3 3 1 7 22
1532261017258045 35 -6 -33 -3 -3 6 4 10
1532261017310904 31 -5 0 1 2 5 5 45
1532261017370743 14 -2 -3 3 -2 2 6 38
1532261017446541 -18 -4 -1 1 -1 1 6 20
1532261017513362 -1 1 17 4 3 6 6 -7
1532261017603122 -56 1 -16 -10 -10 -3 -8 6
1532261017662977 11 -2 2 -2 0 3 5 12
1532261017745741 1 -4 -3 -4 -6 -2 3 -2
1532261017805581 3 -76 0 -3 3 2 14 6
1532261017865421 5 1 1 3 -2 2 13 3
1532261017956191 -5 -28 -18 -4 0 0 -7 -1
1532261017979116 -3 9 5 -4 0 3 4 -4
1532261018017016 0 9 -9 -6 -2 -1 0 -2
1532261018082840 5 30 -5 1 -2 3 63 3
1532261018278317 -36 -99 -45 -19 -17 -21 -20 -17
1532261018345138 0 -16 -8 -16 -5 -2 7 0
1532261018427917 4 -1 7 5 2 3 -16 7
1532261018578515 -5 16 -3 3 -1 -4 2 -4
1532261018660295 -25 -40 -17 -5 3 2 13 -5
1532261018750055 -20 -32 -11 -4 0 1 6 -31
1532261018870733 4 52 23 7 4 -1 -21 -45
1532261018990413 -2 7 -20 -9 -1 -6 -34 -10
1532261019178916 -2 -43 21 -4 -1 0 4 1
1532261019245729 -3 -1 -44 -11 -5 -1 -2 -2
1532261019313548 7 4 27 6 1 1 -1 4
1532261019350450 -1 3 -37 -1 1 0 0 -4
1532261019403308 2 3 -3 1 -2 -1 -4 1
1532261019478109 3 -23 -14 -16 -5 -3 0 5
1532261019590807 7 11 20 -2 -2 0 -2 11
1532261019703505 -5 1 4 2 1 -2 1 -1
1532261019823186 -8 3 15 -1 -1 2 -5 -2
1532261019899980 -9 -5 -5 1 2 2 2 24
1532261019942866 0 -6 3 0 1 -1 -1 6
1532261020047585 8 -14 -24 -2 -1 -1 1 36
1532261020078503 -7 -2 -17 -2 -3 -4 0 -2
1532261020124380 3 6 5 3 1 -3 -2 0
1532261020160284 2 4 -3 1 4 2 5 42
1532261020235084 -20 5 -14 -7 -4 -2 -3 12
1532261020302903 25 -6 -2 4 4 0 -5 -1
1532261020379698 16 -19 2 1 -1 -2 2 38
1532261020476439 -10 25 9 5 1 -1 -3 -3
1532261020535282 -2 14 9 -2 -4 -5 -1 30
1532261020611078 -11 -43 -4 -1 0 -1 5 31
1532261020722780 14 24 17 4 2 -4 -9 -28
1532261020737739 -4 -4 -35 -3 2 2 3 33
1532261020792593 -6 -38 2 3 3 4 14 22
1532261020812540 -12 42 47 12 0 0 -2 -115
1532261020865398 37 -46 -25 -4 -2 -2 0 48
1532261021001052 1 -22 -1 -2 -2 -2 -4 60
1532261021037937 -2 2 -7 -2 1 3 1 -64
1532261021097777 0 -8 14 -3 -1 -1 -5 -15
1532261021142657 3 -13 -16 -3 0 1 0 -1
1532261021420912 -6 -2 -3 1 0 -1 -1 2
1532261021480753 6 12 9 2 -2 -1 2 5
1532261021555553 0 2 -8 1 2 0 -2 0
1532261021578492 2 -4 5 0 -1 0 -3 0
1532261021735073 1 -13 -5 3 0 0 -1 0
1532261021765992 0 10 29 -6 -5 -1 -2 -6
1532261021802892 0 -6 5 4 2 1 5 -1
1532261021975430 -10 -16 -30 -2 -1 1 0 -3
1532261022110070 11 10 -7 -28 -7 -1 0 2
1532261022147968 0 5 19 6 -2 -1 -1 1
1532261022277622 -2 -14 -29 -11 -4 -2 -1 -2
1532261022463126 7 6 24 0 -5 -4 -2 2
1532261022522966 -4 -7 11 3 -1 -6 -2 6
1532261022719441 -1 8 23 3 -6 -21 -9 -4
1532261022912923 -2 0 1 4 1 -1 -1 0
1532261022973776 1 12 -2 -1 -1 -4 -3 1
1532261023019638 -2 -4 -3 -6 -6 -3 0 1
1532261023100422 -1 6 7 -2 -1 -1 -2 -3
1532261023175222 -6 -15 -14 -4 -3 -1 1 -2
1532261023265979 1 -10 -1 -1 3 8 5 5
1532261023377681 -7 -1 5 2 1 0 2 2
1532261023415579 -3 17 14 25 12 2 2 0
1532261023520299 -2 30 -44 -1 0 5 3 0
1532261023543238 1 -6 3 -8 -1 -1 -4 -1
1532261023565179 2 -1 -2 -1 1 5 -2 2
1532261023700817 0 -1 4 3 3 1 -1 1
1532261023752678 -4 -33 78 -5 -1 0 -1 0
1532261023835457 4 -3 -42 -14 -10 -15 -6 -102
1532261023873355 2 -23 -57 -7 -12 -55 -29 99
