1532261051413035 -1 -3 -2 -1 0 0 3 -1
1532261051480854 -1 -7 -4 10 0 0 -3 -4
1532261051562636 -1 -25 4 -5 -2 -3 -2 -1
1532261051638433 -2 -16 0 3 3 1 -1 -1
1532261051705270 -4 1 -19 18 3 -1 0 -2
1532261051758128 -1 8 0 -11 -4 1 -3 1
1532261051828939 -2 -7 -17 -3 0 0 -2 0
1532261051862849 -1 3 -3 -4 -5 0 0 -1
1532261051892768 2 0 -26 1 0 -4 -15 -1
1532261051983553 1 4 9 -1 -1 0 1 2
1532261052135148 10 7 1 1 0 1 -1 1
1532261052186012 -20 1 15 12 5 2 9 -4
1532261052207952 -29 4 11 10 1 2 -4 -18
1532261052290731 40 -3 -3 -8 -4 -1 3 -12
1532261052380492 -9 5 4 3 5 1 -6 5
1532261052418405 -23 -1 8 19 8 3 -4 19
1532261052455307 40 -12 29 2 1 1 -69 18
1532261052487221 -84 -7 -2 -7 -19 -5 28 -13
1532261052523125 -7 -50 3 0 -3 -6 18 -31
1532261052680732 49 7 -22 4 -4 -41 -73 78
1532261052695692 -40 -21 -10 11 3 17 43 -36
1532261052741602 -49 -2 -26 -9 -8 -8 3 -17
1532261052770509 -70 -20 40 -5 -1 -8 -15 -30
1532261052808408 9 3 26 -2 -2 -6 24 23
1532261052868247 38 7 -5 6 2 -11 -17 8
1532261052883207 -10 14 -24 -2 4 4 7 -10
1532261052929085 -7 -22 -40 2 6 5 38 7
1532261052960002 -8 57 -11 10 0 -4 -10 -10
1532261052980946 -1 127 -2 -4 -5 1 -16 -4
1532261053010866 -6 -128 21 6 -3 -1 -17 -5
1532261053032808 2 -69 73 -14 -5 -7 -16 1
1532261053070706 -2 26 -2 -1 -3 4 14 -6
1532261053123565 6 11 16 3 3 8 -19 3
1532261053160466 -9 -29 -4 0 -2 5 4 -7
1532261053183405 -9 -18 -11 -9 -8 -14 -48 -9
1532261053213324 1 -3 5 -14 -6 0 3 2
1532261053243244 -4 0 -7 -12 -7 -5 42 5
1532261053258205 -16 -30 11 -2 -1 -1 8 0
1532261053385863 -13 -46 0 0 0 6 27 -1
1532261053437725 6 -8 -36 1 4 -9 7 2
1532261053482605 -9 -15 12 -9 -4 -11 -33 -15
1532261053618242 -7 -31 33 -9 -5 -7 -15 -7
1532261053640183 -2 -4 14 -2 -1 4 -35 -5
1532261053656141 -4 7 12 -3 -6 -18 -26 -6
1532261053701038 6 11 23 2 5 29 -25 1
1532261053745900 -8 -9 1 2 -9 -7 -47 -4
1532261053775820 24 -33 -19 3 -3 -61 10 6
1532261053797762 18 -16 -16 34 4 -5 -37 2
1532261053842641 0 -25 6 -5 -6 -9 -47 -1
1532261053925420 -13 -20 29 19 6 11 -18 0
1532261053970301 -4 9 6 3 5 11 30 0
1532261053988253 -3 7 0 -2 -1 24 7 1
1532261054002215 -6 24 -14 -9 -6 -13 17 -4
1532261054030141 -3 -32 -3 21 6 4 4 2
1532261054053079 2 18 14 -7 -2 0 5 0
1532261054097959 -3 -24 -19 -1 0 -4 0 0
1532261054120899 3 6 9 -2 1 -3 4 0
1532261054142839 0 -3 13 1 1 -3 -2 -1
1532261054180737 -2 10 17 -2 -1 1 1 -2
1532261054202679 2 -12 -15 -7 0 1 -1 3
1532261054285458 11 -15 -6 -3 -1 -1 -2 5
1532261054413116 99 28 0 11 7 1 -5 4
1532261054577676 -8 6 -5 -1 2 2 4 -3
1532261054653474 20 -2 -5 -2 1 3 1 3
1532261054675415 71 -22 -27 -6 -6 -1 -2 -17
1532261054750215 45 4 11 -2 -1 -4 -10 15
1532261054832993 8 -1 -5 -1 0 -2 -5 -18
1532261054877874 29 -36 0 -2 -3 0 -8 -11
1532261055110252 15 8 -4 -8 3 0 3 4
1532261055207991 1 14 1 2 -2 -1 -5 7
1532261055297751 35 90 10 1 1 0 -3 -13
1532261055395489 35 30 5 2 0 -1 8 -16
1532261055463308 0 -6 6 46 3 -1 3 4
1532261055487244 47 -17 9 15 2 0 -2 2
1532261055500210 -1 -12 6 -12 -1 1 -1 -2
1532261055545090 3 -11 6 -22 -3 0 -2 2
1532261055560050 13 -8 47 -23 -6 -5 -3 -4
1532261055620887 -12 12 2 -5 0 2 5 -13
1532261055650811 -13 -24 -45 -15 -3 1 -3 -2
1532261055687708 36 1 -10 -4 -2 -1 -1 3
1532261055718625 -52 -6 2 0 1 0 -3 -20
1532261055734582 36 -2 -1 -3 -4 -3 -3 -29
1532261055755527 -26 -16 13 3 2 3 1 39
1532261055778466 -3 1 1 1 0 2 15 49
1532261055800432 84 39 -6 -9 -9 -11 -10 21
1532261055830327 -34 -6 -3 -2 -2 0 -3 -29
1532261055890166 127 7 -3 0 -1 -1 -3 1
1532261055907124 3 40 4 1 -1 2 -7 -12
1532261055936093 -8 8 11 3 -7 -2 3 2
1532261055987923 7 -2 1 2 0 0 -2 6
1532261056017825 1 -2 -6 20 6 -1 -1 -4
1532261056055725 -12 -13 12 -8 -4 -2 1 11
1532261056085645 2 0 2 7 2 5 -1 -2
1532261056130524 2 1 10 -15 -6 -2 -3 -1
1532261056168423 0 -4 -25 -7 1 0 2 -1
1532261056235278 5 32 -2 27 -3 1 -2 -5
1532261056251202 8 13 34 16 -1 -3 -3 -6
1532261056273160 0 5 0 32 3 0 4 2
1532261056295084 -4 -28 -108 34 5 0 0 2
1532261056319020 -1 2 75 -8 -2 0 -3 2
1532261056340961 -7 -13 -11 -39 -12 -4 -12 0
1532261056385841 2 6 10 8 1 2 -1 3
1532261056467622 -18 -33 -37 -45 -6 0 -3 -6
1532261056520481 3 11 6 2 -1 -1 21 4
1532261056558380 1 -8 6 32 -1 -2 -1 3
1532261056588300 4 -13 -88 -1 -3 1 -4 4
1532261056656118 8 16 -12 -19 -3 1 2 4
1532261056707980 -15 -55 -18 -7 -10 -10 -11 -9
1532261056858577 4 -40 6 3 8 5 -17 1
1532261056918417 2 12 13 -19 0 4 -10 1
1532261056978257 3 2 90 -6 6 0 5 4
1532261057015157 19 -16 -74 7 9 8 -4 23
1532261057114892 -36 6 -31 -2 1 -1 55 -7
1532261057135835 41 84 25 25 9 5 -34 13
1532261057150796 -12 -16 23 90 19 11 9 0
1532261057180716 5 5 -10 -35 -10 -4 -4 5
1532261057217616 -26 -76 -73 -40 -5 0 15 -9
1532261057263494 6 48 21 1 -3 -7 17 -4
1532261057323334 -40 28 -10 -5 -3 -1 47 -4
1532261057420075 -27 -59 -33 -95 -16 -2 -26 9
1532261057472934 2 -35 -49 -27 -8 -3 -24 -10
1532261057488891 20 42 16 -4 10 5 -38 5
1532261057517814 -26 -23 37 18 1 -3 -8 -16
1532261057577653 -6 -4 -41 -38 -8 -2 -6 6
1532261057660455 -32 -80 23 -2 -6 -7 -11 3
1532261057720311 -11 -2 -19 -10 3 4 -1 -2
1532261057818049 -13 -30 35 -18 -5 -3 1 7
1532261057833009 -2 10 26 -1 -11 -9 -3 -4
1532261057848967 45 65 14 24 2 -1 1 6
1532261057877889 -11 73 109 8 -10 -9 -13 -9
1532261057907809 33 -18 -99 -17 -6 -2 12 7
1532261057954691 15 21 -65 7 0 0 -15 -5
1532261057975628 -21 22 -3 -5 -3 -2 13 25
1532261058050428 -4 17 42 7 -5 -6 -15 16
1532261058110268 0 -24 6 13 7 8 -9 -7
1532261058155157 -2 3 -41 -13 2 7 16 4
1532261058216982 -1 15 39 33 4 2 1 -1
1532261058238924 9 18 -6 1 4 -1 -20 0
1532261058282806 -1 2 14 6 2 2 0 -1
1532261058312726 -3 8 -10 1 0 -1 0 -2
1532261058350625 2 12 -6 -15 -4 -3 -1 0
1532261058388523 2 41 8 3 1 -4 0 -2
1532261058410465 1 -18 5 1 1 0 0 0
1532261058515184 1 11 5 2 -2 -2 -2 0
1532261058583010 -6 -33 19 -6 -2 -1 -2 -5
1532261058620909 2 21 29 4 -1 28 7 4
1532261058650829 -2 -5 -60 -3 0 -11 0 -1
1532261058732627 0 11 0 -3 -5 -2 -1 0
1532261058785484 -3 -11 -31 3 1 -2 1 -1
1532261058860285 -2 -10 -24 -9 0 0 1 -1
1532261058905166 0 -5 42 3 -2 -1 0 0

1532261059025842 5 -3 74 26 25 19 12 -2
1532261059070723 -1 2 -13 -3 -5 -7 -4 -2
1532261059107624 0 13 24 14 3 0 0 -2
1532261059146537 1 23 46 10 3 9 6 -5
1532261059220323 -5 10 24 4 -2 -1 -1 -1
1532261059273181 -6 22 17 -1 -2 0 -7 -13
1532261059303101 0 -21 2 -5 0 -1 -1 0
1532261059341000 -4 2 -10 -2 -2 -5 -7 1
1532261059370919 -1 9 5 -3 0 3 -1 -4
1532261059467893 5 4 2 -7 -1 1 0 -1
1532261059505805 3 -9 0 36 5 2 2 0
1532261059550671 -1 -1 2 -3 0 -1 -2 -1
1532261059610511 -2 10 16 -3 0 -1 1 -1
1532261059655392 2 19 -28 1 1 -1 2 0
1532261059708262 0 -4 -6 -2 1 0 3 0
1532261059730191 -3 0 -3 -2 0 2 -1 -2
1532261059776069 0 4 -7 0 -1 0 -2 -5
1532261059812970 -2 -16 13 -2 -2 -2 -1 0
1532261059850869 -3 0 -4 -1 -5 5 2 -3
1532261059865829 -2 -22 19 -23 -9 -2 -1 2
1532261059925669 2 2 -53 -1 0 0 0 0
1532261059955606 1 -5 85 -1 -2 0 -1 -2
1532261060053343 -8 1 5 -2 -4 -1 -5 -14
1532261060077263 16 -11 -3 3 -1 -13 21 103
1532261060120148 3 -2 -16 0 1 -12 -5 -9
1532261060180986 4 4 37 -11 -3 9 0 -9
1532261060210906 0 6 19 36 5 -5 -1 -3
1532261060262767 0 -5 -4 13 1 3 0 -3
1532261060292688 3 1 3 16 2 0 1 2
1532261060330586 -1 -2 -2 -21 0 1 1 -1
1532261060437301 -5 -12 -12 -6 4 1 0 -3
1532261060451266 6 6 5 -1 1 2 -1 2
1532261060473205 0 -9 -15 28 9 3 1 -1
1532261060503124 0 2 -3 -17 -6 -4 -1 0
1532261060585903 -3 -2 1 -1 -1 -3 -3 0
1532261060728525 -5 -3 -2 -8 0 0 -2 -2
1532261060773402 3 6 7 -4 3 3 -1 3
1532261060848202 -6 -6 -6 -7 -3 -3 -6 -7
1532261060923002 -1 0 9 -2 2 1 3 2
1532261061027721 -23 -12 4 -1 2 -5 -2 -8
1532261061178319 -25 -2 5 12 -2 -5 -7 -5
1532261061245149 11 13 20 6 -2 -2 -24 -7
1532261061291018 71 31 2 -27 -9 -8 -9 6
1532261061306975 7 27 39 -4 -5 2 27 5
1532261061485497 -73 -7 9 -6 -11 -10 -20 -12
1532261061762756 -19 -4 17 13 7 3 -17 -18
1532261061830575 -4 32 10 -6 1 -20 -15 -3
1532261061875455 -1 -54 14 7 -6 -11 15 2
1532261061980175 -13 20 -46 -53 -10 1 -18 -5
1532261062055973 -3 -17 18 -1 3 -2 -17 -4
1532261062085892 7 10 21 13 4 -18 -23 1
1532261062122793 -2 4 1 3 2 -9 -9 -3
1532261062152713 -14 2 -2 0 3 -2 -34 -8
1532261062213551 12 31 32 0 -1 -15 -64 -6
1532261062303311 11 -8 -95 5 1 9 19 4
1532261062378111 1 12 -29 18 -1 -19 -23 -1
1532261062497790 -3 -5 -103 -4 -2 -2 27 2
1532261062536687 2 9 16 -2 -4 -12 -22 4
1532261062610489 1 28 -13 -6 -1 -67 -39 -4
1532261062649385 6 0 -16 0 -3 -16 -40 -8
1532261062738153 6 -11 30 2 -3 -70 -55 -4
1532261062791007 7 9 -19 5 6 51 -14 -5
1532261062835886 3 -7 9 9 4 2 17 1
1532261062880766 3 9 8 10 12 39 2 2
1532261062927641 0 -8 -1 -2 -2 -6 5 0
1532261062955568 -3 -10 -9 -9 -5 -9 -3 -2
1532261063001444 -5 13 20 -1 -4 7 1 -3
1532261063023385 3 -21 -8 3 2 -2 0 -1
1532261063060286 -3 17 15 0 -1 -3 -2 -1
1532261063090207 -4 18 3 1 2 0 1 0
1532261063128105 3 -31 -20 3 -1 2 -2 0
1532261063232825 67 22 6 -2 0 -8 0 77
1532261063277705 -128 18 -2 2 1 5 -14 -16
1532261063315604 39 8 -7 -4 -5 1 15 -5
1532261063383422 70 -9 -8 2 -4 -5 11 22
1532261063450244 21 22 16 -10 -3 -2 5 -6
1532261063526041 -41 6 35 0 -3 -2 0 -10
1532261063690601 -11 -3 0 1 1 -52 -12 6
1532261063758419 -17 -3 -1 -1 -2 5 1 37
1532261063788359 -14 -7 -5 11 8 3 -2 -2
1532261063810300 -7 -1 -2 1 1 2 -2 0
1532261063885101 -1 -4 -5 36 17 7 2 0
1532261064057638 -53 -25 -11 -2 -1 2 -4 -14
1532261064118486 70 -4 -2 4 1 1 21 -40
1532261064185297 -18 30 3 -14 -3 -1 -1 -62
1532261064223196 -7 17 -8 -4 -4 -4 0 0
1532261064245137 65 7 -3 0 -7 -10 -3 33
1532261064283036 -7 16 12 19 2 -2 0 1
1532261064298993 -17 -9 -7 -16 -5 0 -6 1
1532261064336908 -2 -14 -55 -14 -5 -2 -4 -2
1532261064380775 3 -15 -17 14 0 -2 -2 3
1532261064410695 -17 -10 -55 -2 1 0 -2 -1
1532261064432636 3 -20 20 0 -1 0 -2 2
1532261064500454 -1 12 19 3 0 1 -3 -13
1532261064523395 -33 -30 -57 -5 1 -2 -2 -7
1532261064560294 9 -92 -11 2 1 0 -7 -53
1532261064598193 -38 -18 1 0 -1 -3 -1 35
1532261064613153 -8 6 2 0 0 0 1 12
1532261064637089 -9 31 5 -6 -6 -6 -2 32
1532261064680971 11 -24 -1 -3 -3 -3 6 20
1532261064725852 3 -3 4 2 1 0 6 18
1532261064747792 -1 1 0 0 -1 1 3 -9
1532261064815612 -2 -15 -6 13 9 2 0 0
1532261064853510 -9 -11 11 -13 -1 1 0 -4
1532261064893404 2 12 5 28 13 3 1 1
1532261064920332 -4 -23 7 0 -1 0 1 -3
1532261064935292 -3 -45 4 -18 -5 -1 1 -1
1532261064980171 5 23 1 12 6 1 0 2
1532261065010092 -3 -3 -25 17 0 -5 -1 -3
1532261065041009 -4 -10 -13 -10 -5 -1 4 -9
1532261065092870 7 -12 6 10 0 1 0 1
1532261065122790 1 25 33 25 10 0 -1 1
1532261065175648 -17 -5 5 -15 -12 -4 -1 -2
1532261065213548 7 0 -25 25 10 1 0 -2
1532261065258428 -7 -13 -24 -19 -7 3 3 2
1532261065333228 14 -20 -14 -30 -2 1 -9 19
1532261065355169 2 0 -32 -2 -7 -3 11 34
1532261065416006 16 26 9 -7 4 5 9 19
1532261065437948 14 12 63 9 -11 -29 -31 -4
1532261065505766 3 -46 30 13 -6 -6 7 1
1532261065527708 6 -1 24 -33 -1 5 9 3
1532261065588545 7 10 13 -1 2 5 9 -8
1532261065618465 7 -43 -46 11 -6 -4 -2 33
1532261065648385 -32 -2 21 16 3 -4 -16 -49
1532261065670326 37 33 14 -12 2 9 22 4
1532261065710220 14 35 16 -3 1 -1 -26 11
1532261065745126 -15 -16 3 -31 -14 -3 5 -4
1532261065812945 -1 17 -14 -61 -14 -6 -19 -5
1532261065872785 -11 -6 36 1 6 7 1 -2
1532261065925643 7 13 20 -10 -15 -11 -1 9
1532261066046321 2 34 -16 0 -3 -4 5 32
1532261066187942 17 44 -32 -48 -11 -5 -6 8
1532261066330561 -8 -29 -31 12 6 2 11 -58
1532261066390401 -38 -71 20 5 2 1 4 -38
1532261066458219 15 58 71 55 18 7 5 1
1532261066503099 1 17 43 0 -5 -11 -8 -7
1532261066547979 -9 -16 -34 7 0 -3 8 -77
1532261066720518 -7 -7 -1 -8 -4 -5 -7 18
1532261066743457 -1 -7 -40 -36 -5 5 3 8
1532261066818256 -1 -8 -5 -13 -3 0 0 -2
1532261066870117 10 11 -1 4 2 -2 0 3
1532261066930955 4 13 8 -4 -2 0 -1 -2
1532261066990796 -3 -23 -6 2 0 1 1 0
1532261067104491 2 13 26 -7 0 -1 1 0
1532261067125435 3 -8 9 38 4 2 0 2
1532261067140395 -2 13 11 -11 -4 -3 -3 0
1532261067193254 -1 16 29 7 -1 0 -1 -1
1532261067253094 0 -13 16 6 4 -2 -3 0
1532261067320912 1 1 -15 -7 -3 1 0 0
1532261067380752 -4 -9 10 3 6 0 -2 0
1532261067463531 0 20 33 19 1 -1 -1 -1
1532261067545312 -5 21 -1 -4 -2 -17 -7 -68

1532261067575236 -14 29 23 -7 -8 50 -10 -44
1532261067613131 0 -16 21 -25 -5 6 2 -6
1532261067637067 2 22 -122 -2 -5 -8 -10 4
1532261067672971 2 -9 12 -2 -1 1 0 -1
1532261067717851 5 11 6 50 22 7 17 5
1532261067732810 1 9 0 -2 1 5 2 -4
1532261067792651 0 13 10 -19 2 0 2 -3
1532261067822571 -3 -2 9 -3 -4 1 -3 -2
1532261067973168 0 2 11 3 1 -3 -5 1
1532261068040987 -3 1 10 1 1 4 1 -1
1532261068107808 0 1 -17 0 -3 -1 -3 -3
1532261068130747 -3 -9 -67 -4 -6 -4 -2 -3
1532261068182608 2 5 27 2 0 -2 -2 -1
1532261068250427 -1 2 14 0 0 1 -2 1
1532261068394049 -1 -1 -9 0 0 1 -2 -1
1532261068431947 0 -1 -10 -1 -2 -1 2 0
1532261068499766 0 -2 -25 -1 -1 -4 -2 -3
1532261068550630 -2 -5 -2 -1 -1 -2 -2 -3
1532261068685270 -1 -2 -5 1 -1 1 1 1
1532261068763062 -2 -1 -1 0 -1 -3 -2 -2
1532261068827888 0 -5 -3 -2 -2 -1 2 2
1532261068844843 -3 -1 -9 -3 0 -5 -2 -2
1532261068925627 -2 -2 -1 0 -2 -1 -2 -1
1532261069008406 -1 -5 -81 2 -4 -5 -3 -3
1532261069045308 0 16 71 19 0 -7 1 -2
1532261069098166 3 -4 -13 -2 1 -3 -5 -1
1532261069202886 3 9 12 6 6 31 14 34
1532261069240784 16 8 -15 54 28 -3 -2 6
1532261069270704 7 -4 -18 10 1 5 5 14
1532261069330544 6 4 -41 5 2 4 2 6
1532261069437259 -1 1 1 16 3 4 -1 0
1532261069473163 -1 0 2 -11 -4 -3 -2 -2
1532261069547963 1 -3 -10 -9 -2 -1 0 -1
1532261069570901 1 0 4 -2 -4 -2 -1 -1
1532261069630742 0 -3 23 6 1 -1 1 -1
1532261069675626 2 -5 -8 7 2 -2 -1 2
1532261069818240 3 0 -8 2 4 1 0 1
1532261069840181 -1 1 2 3 -2 -4 0 -2
1532261069863120 -5 -11 -26 6 10 4 1 -1
1532261069952880 3 1 7 -1 -3 -1 -1 0
1532261070050619 7 13 9 -17 -3 -2 -5 -2
1532261070088518 -2 10 6 12 10 8 13 7
1532261070170299 34 5 1 5 4 1 -6 -8
1532261070193237 -31 -25 -9 -15 -16 -9 -11 -13
1532261070230139 -25 18 19 7 8 5 -10 -1
1532261070297957 10 -1 3 -3 -6 -7 -5 -4
1532261070327877 24 1 4 -1 -1 -2 -6 -9
1532261070350816 -20 -15 -10 -12 -2 0 11 -6
1532261070396702 -17 -5 -18 6 -1 -4 -4 -13
1532261070425616 -2 -4 -20 -15 -7 -4 19 -5
1532261070463514 12 11 4 8 4 3 -2 14
1532261070493435 -8 -9 2 -2 -3 -3 -3 -2
1532261070530336 -11 -5 5 -3 -3 -1 -4 -10
1532261070598155 12 1 4 5 -2 -3 4 3
1532261070643034 -9 -12 -11 -10 -4 -4 60 -5
1532261070680933 -15 -23 10 8 2 -10 -11 -8
1532261070710853 5 -15 -16 2 -3 -17 3 0
1532261070725813 -8 -15 -19 -8 5 24 -9 -8
1532261070762715 6 110 3 2 -2 -17 -6 -4
1532261070808592 4 -99 -30 -12 0 3 -9 7
1532261070830533 -8 39 29 -10 -1 16 15 1
1532261070907328 1 1 9 7 -2 -8 9 0
1532261070920293 -5 2 -9 -7 -5 0 -8 -4
1532261070935253 -3 25 -6 1 0 -5 -27 2
1532261070950213 -5 -7 2 16 11 4 -7 -1
1532261070965173 -1 11 -28 -12 0 12 52 0
1532261070988112 -4 -35 12 8 3 -3 -13 -5
1532261071010053 7 12 8 10 -1 -7 -9 3
1532261071026010 -3 45 -128 -27 -4 -2 -12 3
1532261071047952 -2 -33 48 8 1 -8 4 3
1532261071077872 -8 -12 107 -3 -6 1 24 -7
1532261071100810 4 31 47 4 2 15 26 1
1532261071160651 -1 -3 2 -4 -3 22 59 -1
1532261071190570 6 -30 -15 3 -1 -3 -1 -1
1532261071205531 -12 -33 -54 -7 -4 -3 48 -5
1532261071250410 6 20 50 -2 0 -12 10 -1
1532261071265370 -2 -12 -30 -22 -11 -12 -30 -7
1532261071288310 0 7 40 -3 1 -29 -14 0
1532261071310250 -1 -3 13 7 2 1 31 9
1532261071325210 -2 7 5 -6 3 25 48 -6
1532261071348149 1 2 -59 -7 -1 36 28 8
1532261071393029 -5 25 -13 8 1 -57 -15 -15
1532261071445888 -7 -3 -27 -3 -4 80 46 75
1532261071475808 -1 31 -3 0 -12 -12 13 -9
1532261071527669 -9 -1 8 -26 -4 67 -16 -12
1532261071550608 -5 3 4 9 -9 -47 -14 -10
1532261071595488 -3 18 8 10 -6 6 -8 -3
1532261071640367 1 -13 -4 -4 -8 -51 -34 -4
1532261071663306 -1 -7 -6 7 1 2 -41 -1
1532261071730128 -4 -11 -2 -1 1 5 6 0
1532261071761044 -7 2 10 6 3 3 -4 -10
1532261071776005 -5 -7 -14 21 12 7 1 30
1532261071790965 13 19 -25 7 -2 -3 -2 21
1532261071880725 20 38 28 -3 1 13 8 -14
1532261071902666 10 19 2 -2 -2 -3 -4 -34
1532261071947545 31 -9 -10 0 2 12 7 -3
1532261071970485 -69 -40 -8 0 -3 7 -3 3
1532261071985445 44 -57 -15 -8 -3 -12 2 12
1532261072015364 6 32 17 2 2 0 -2 3
1532261072060245 -30 0 -15 -2 -1 2 0 7
1532261072135061 -4 24 -64 -35 -16 -4 -3 -5
1532261072172944 -29 -41 22 -22 -4 1 2 -2
1532261072195882 -19 25 75 2 4 0 -1 -5
1532261072270682 14 -3 -48 -3 -2 -1 -2 0
1532261072300602 -3 -6 -27 8 -1 0 2 5
1532261072369418 -21 7 -8 -2 -2 -6 12 62
1532261072398341 74 -30 -5 -2 0 -2 -3 -11
1532261072413301 1 26 -3 0 -3 0 -4 -43
1532261072473141 1 -27 -3 -10 4 0 0 13
1532261072518020 -8 31 0 14 4 1 -3 -14
1532261072540959 16 -12 -33 27 13 3 0 -2
1532261072683578 4 0 23 1 0 -2 -1 3
1532261072900996 9 10 -1 -14 -4 1 -1 17
1532261072930917 -1 -40 2 -40 -7 -2 -3 0
1532261072953855 3 8 -7 -23 -3 2 2 3
1532261072990757 12 17 -17 4 2 2 0 12
1532261073020676 21 18 -82 -21 -3 1 1 7
1532261073185236 7 21 -32 0 0 0 -1 -10
1532261073238101 -23 -20 -6 4 2 0 0 -65
1532261073268021 -14 37 -3 0 0 3 2 -25
1532261073410639 -14 -10 -3 1 -3 -3 -5 4
1532261073478458 7 -1 -2 -4 -3 -2 6 3
1532261073523338 -4 16 39 6 10 2 -6 -14
1532261073560240 -3 0 -13 -8 -5 -2 -4 -1
1532261073590160 -5 -8 -25 14 6 2 6 2
1532261073651000 -2 -2 -3 5 3 -1 0 2
1532261073732778 -4 -3 -3 -12 -3 -2 -4 -2
1532261073785637 4 -3 -9 20 6 3 4 9
1532261073860437 1 -7 -30 -29 -9 -2 -2 -2
1532261073935237 4 6 6 -9 -9 -1 8 -5
1532261073981114 7 9 -17 0 -5 1 -18 -4
1532261074012032 -7 -13 -9 -7 2 4 7 -6
1532261074115754 -9 -18 -16 -19 7 -2 3 -3
1532261074205518 3 9 0 10 2 -3 1 0
1532261074348133 27 36 -12 1 16 12 -5 -65
1532261074363093 13 -63 -6 9 8 1 -16 -43
1532261074460832 0 -60 -18 46 14 -7 1 -9
1532261074490751 23 20 -4 -18 -3 -3 30 -2
1532261074527653 18 13 17 -12 -6 -4 -5 2
1532261074604451 6 -5 -4 -5 11 4 1 10
1532261074633370 -1 -6 16 8 5 6 22 -15
1532261074670272 -5 -2 -8 1 -1 -1 -1 8
1532261074761028 -21 -30 3 -7 -9 -7 7 -17
1532261074865749 -7 -11 -7 -13 -1 -1 -1 0
1532261074941547 -1 27 41 -18 0 3 -9 -51
1532261075053248 -11 -26 -20 -4 -6 -5 -20 -9
1532261075075189 -11 -25 3 -5 1 1 -1 -2
1532261075172927 -16 -35 -24 -31 -1 3 2 -2
1532261075255706 -3 -4 -8 -7 2 1 16 13
1532261075405306 3 4 -34 -43 -5 -1 -6 0
1532261075445199 19 33 7 -3 -10 -22 -9 -2
1532261075465146 7 36 73 19 0 -3 -12 -2
1532261075547925 -10 -71 -109 -12 -3 4 3 -1
1532261075600783 -14 2 39 15 6 9 1 6
1532261075637685 6 3 -34 -7 -6 -4 8 -17
1532261075690543 10 20 4 4 -1 -5 3 -2
1532261075720463 -12 5 -54 -5 -3 1 5 0
1532261075743401 -13 -12 -17 -30 -8 0 5 -6
1532261075825183 10 25 0 5 1 0 1 4
1532261075863082 -1 -25 -24 -11 -2 1 1 0
1532261075967802 1 9 -10 2 0 3 -1 0
1532261075991738 0 44 -26 -11 -4 -4 -2 0
1532261076014677 -2 -7 -9 -3 0 2 -1 -2
1532261076043615 1 23 23 14 0 -1 -3 0
1532261076110421 -2 -8 40 17 6 -1 -1 1
1532261076178239 -6 14 11 5 0 1 1 -1
1532261076208158 -2 -17 -32 -28 -6 -2 0 -1
1532261076268997 -1 -17 -8 -3 -1 -1 0 3
1532261076312880 -2 -20 -44 -2 -4 0 3 14
1532261076342799 30 14 101 1 -1 11 -9 103
1532261076365737 -37 0 33 -11 -16 -68 -41 -87

1532261076448516 1 35 104 -17 -8 11 1 -18
1532261076478453 -10 -44 7 -33 -7 2 -7 -15
1532261076547269 0 15 17 -25 -6 3 -1 -2
1532261076598157 1 2 -12 -1 -1 7 3 -1
1532261076680936 -3 -2 0 4 2 -7 -1 -4
1532261076702877 -2 -5 -12 2 -1 1 2 -6
1532261076725816 -1 -5 -2 2 -1 4 3 -3
1532261076777677 0 2 9 1 -3 -2 1 -1
1532261076815575 0 -2 13 -2 -2 0 -1 2
1532261076838534 -1 2 3 0 -2 -1 0 1
1532261076922291 1 -2 3 -14 -7 1 2 2
1532261076965176 -3 -7 10 6 5 -5 1 2
1532261076988134 -2 -6 -19 8 4 -1 0 0
1532261077011053 -3 -1 8 -13 -4 -1 -1 -1
1532261077055933 -1 4 16 0 -1 0 -1 -3
1532261077124749 -2 -2 16 -3 -2 0 -3 3
1532261077190573 -2 -9 -13 -3 -3 -2 2 -6
1532261077213512 -2 -2 -12 -3 1 3 1 -1
1532261077235453 1 -3 -5 0 -2 1 0 2
1532261077280333 1 -4 -14 -2 -1 0 -1 1
1532261077310253 -2 4 44 27 4 1 0 -4
1532261077355133 1 27 37 3 -2 -3 0 0
1532261077422951 6 18 52 2 0 20 11 27
1532261077445890 3 -12 1 0 -1 28 -4 23
1532261077467832 -1 -4 -20 -1 7 26 15 31
1532261077527672 3 0 -13 -4 2 20 12 15
1532261077574546 -3 -9 14 48 10 6 1 -12
1532261077619426 1 -2 32 -23 -4 -1 2 1
1532261077663309 -3 0 36 -1 1 -3 1 -7
1532261077700210 -2 1 35 5 3 2 1 0
1532261077730130 -2 -6 -5 6 0 -2 0 -1
1532261077790968 -1 1 15 7 2 2 -1 -2
1532261077812914 0 -3 -10 0 8 1 2 0
1532261077835847 -3 -9 -66 13 5 3 0 -1
1532261077857789 0 1 22 -6 -5 -4 -2 -1
1532261077895688 1 1 3 -9 0 2 0 0
1532261077934583 3 5 5 8 0 4 8 2
1532261077963506 2 3 6 -1 0 -1 -8 1
1532261077993426 -5 -12 -3 -11 -4 0 0 -2
1532261078008386 -5 -1 0 -27 -3 1 -5 -4
1532261078068225 -4 -7 -11 -2 1 2 2 -1
1532261078195885 3 -4 -15 -10 -3 -5 -3 2
1532261078225805 -1 7 -20 -7 -1 -2 -10 11
1532261078242759 -7 9 21 6 5 -4 -21 -12
1532261078277666 21 -9 -15 -6 -6 -7 -5 10
1532261078362440 -21 -11 -40 1 2 -2 -8 -16
1532261078413303 -47 -4 1 13 8 3 6 1
1532261078511042 35 5 8 4 0 1 2 -1
1532261078577863 56 16 -2 -2 -3 7 27 12
1532261078667623 -14 -11 -14 -13 -6 -11 -12 0
1532261078690562 -22 -1 24 46 9 3 -10 -8
1532261078780321 26 14 12 1 1 3 -1 25
1532261078818220 -8 29 14 -9 -3 1 6 8
1532261078878060 54 10 11 13 12 -3 -38 7
1532261078924935 32 25 -8 -29 0 7 0 13
1532261078992763 -20 1 -4 -16 3 0 -10 -19
1532261079035639 -9 -3 -10 1 2 3 5 1
1532261079050598 -3 -1 -11 5 -2 -5 -8 2
1532261079073537 3 -23 -1 2 4 -1 -3 -3
1532261079163297 -14 12 -12 -3 -6 -3 -10 -13
1532261079230119 -2 17 -9 -4 0 -1 3 0
1532261079268017 0 30 3 2 7 9 -16 1
1532261079306915 2 -46 -26 -1 0 -4 -13 -3
1532261079327858 -6 56 47 -4 3 19 14 1
1532261079350796 5 39 7 3 2 23 65 -2
1532261079410639 -5 26 16 5 1 11 -28 -2
1532261079433582 -5 23 6 5 0 -23 8 -6
1532261079485436 -1 -22 18 -7 -7 5 23 -13
1532261079516354 1 13 39 14 5 1 -41 2
1532261079553255 6 18 -13 -1 2 9 -63 -2
1532261079568215 -3 -22 -3 -3 1 0 -2 -2
1532261079583175 -3 0 30 7 -1 -4 62 -4
1532261079613110 -1 5 7 4 0 2 20 6
1532261079628055 -1 17 0 4 1 5 -1 0
1532261079665953 -1 -7 -10 2 1 -12 21 0
1532261079717815 -10 -30 -9 -4 -8 -6 9 -5
1532261079740753 3 -9 -1 3 2 -11 -8 8
1532261079755714 -7 -6 -8 -6 -3 13 -8 -5
1532261079793616 6 -7 6 -1 2 36 -39 -1
1532261079808574 6 -5 -5 -3 0 1 3 0
1532261079830513 -11 39 9 6 11 76 -49 -1
1532261079875393 5 -3 2 2 0 3 -35 -1
1532261079898332 -16 3 6 4 1 -13 -5 0
1532261079920273 -8 42 3 -7 -7 -34 -6 -12
1532261079996081 0 1 6 3 3 33 -42 -7
1532261080018012 9 -13 8 -1 0 0 3 3
1532261080040950 2 -9 -6 -2 -1 -2 -11 -2
1532261080062892 1 0 2 2 2 2 -12 -3
1532261080094807 -8 4 11 0 1 0 0 -4
1532261080122732 7 -6 4 -7 -3 -7 -6 7
1532261080145671 2 -8 -7 1 0 -3 -8 0
1532261080183576 -5 -26 -6 2 0 1 -7 -10
1532261080205511 -18 -30 -18 5 5 8 12 -3
1532261080250390 -11 3 -9 -1 0 -2 4 -7
1532261080333169 29 3 6 0 -6 -7 -12 7
1532261080437889 -27 15 -3 -26 -6 -1 16 30
1532261080505708 13 -17 0 -8 -3 -2 -10 4
1532261080618407 36 11 -42 20 0 0 -3 7
1532261080648326 22 -11 -12 4 7 1 1 0
1532261080700188 -49 -15 6 1 -4 -7 -26 24
1532261080715147 28 10 0 1 1 3 10 -24
1532261080738086 32 0 -24 -11 -2 -3 -7 6
1532261080753047 55 10 8 -7 -1 3 23 45
1532261080827847 -9 -13 5 -16 -4 -3 -6 5
1532261080985425 25 73 -21 -2 -4 -3 -1 5
1532261081023324 -19 75 -10 -4 -1 -6 -2 -39
1532261081053243 0 -18 -16 4 -4 -18 -52 121
1532261081092139 -41 -17 -1 5 -1 -2 10 -36
1532261081121062 -15 -4 0 -1 -3 5 -33 49
1532261081165942 -27 -10 -3 31 4 10 11 -39
1532261081270662 3 7 -6 10 0 -3 0 5
1532261081300583 6 -9 26 -19 -7 0 -2 0
1532261081332497 -6 -16 19 6 2 2 -1 0
1532261081375382 1 49 -29 7 1 1 -2 -4
1532261081541936 7 -21 -2 1 1 46 -4 55
1532261081600779 10 -18 0 0 0 0 4 -17
1532261081660628 0 14 9 1 -2 -21 -1 -1
1532261081820193 2 1 3 -6 -4 -4 3 9
1532261081834155 8 2 3 -10 0 -4 4 4
1532261081952838 -11 -25 -28 -44 -17 5 -9 -7
1532261082012678 -2 1 2 5 -2 -5 39 0
1532261082088487 -28 -57 -15 22 0 0 14 -3
1532261082148315 -23 -7 -2 5 8 4 -4 -11
1532261082170257 14 5 -23 0 -2 4 -19 -16
1532261082215137 0 -27 -10 -8 -2 -2 -14 16
1532261082290934 10 29 31 -34 -9 1 9 7
1532261082357756 21 35 30 45 -1 -10 -8 9
1532261082387675 6 26 -105 15 1 -1 -16 -4
1532261082425574 -3 -90 -49 -27 2 10 11 -50
1532261082455508 -10 -58 -20 -11 -10 -10 -2 34
1532261082508353 8 14 -13 3 10 5 -18 -2
1532261082568193 -2 -7 -27 0 11 5 -9 7
1532261082657953 -1 -2 -62 -29 -3 4 1 -5
1532261082702833 20 -37 34 -7 -7 -4 12 30
1532261082741729 4 -35 36 -15 -12 -8 -16 26
1532261082762673 0 29 25 -7 0 1 -36 -31
1532261082793590 -2 2 30 5 2 -4 -4 -34
1532261082868390 -1 -23 -67 -40 -4 -3 -1 -9
1532261082905291 11 5 -74 37 2 -4 5 -3
1532261082958150 5 -26 19 -2 8 3 34 6
1532261082988070 -5 -8 -6 -21 -1 -2 4 -35
1532261083040929 14 -40 5 15 4 -1 -8 40
1532261083107749 -12 -26 4 -53 -11 -3 -16 -2
1532261083191526 -9 -50 -46 -32 -7 -2 0 0
1532261083235408 -1 26 -8 9 1 1 -11 45
1532261083280288 15 48 3 -20 -16 -11 -14 12
1532261083318187 1 -14 -12 5 0 -1 6 9
1532261083378026 12 12 15 -8 -6 -3 -1 5
1532261083446843 1 -3 7 12 0 -3 -2 3
1532261083469781 3 12 26 9 0 0 3 6
1532261083490725 6 -10 -2 -15 -3 -2 1 -2
1532261083505687 5 45 6 1 -2 0 -1 14
1532261083551563 -3 -6 -5 2 0 2 0 5
1532261083693184 -5 -49 -7 -3 -2 0 -2 -2
1532261083725099 3 7 12 -4 -1 -3 -4 -3
1532261083753024 -8 23 -2 -1 -2 1 3 -1
1532261083782944 -4 -21 -50 21 7 2 -2 -2
1532261083805886 0 -1 4 -31 -8 -1 2 0
1532261083820843 -2 -3 3 4 0 1 0 3
1532261083857744 3 -15 -59 -4 7 6 2 4
1532261083902624 -2 7 29 -18 -5 -1 0 -1
1532261083940523 2 31 22 -7 -6 -4 -1 -1
1532261084068182 -2 11 84 -25 -7 4 -3 -34

1532261084105083 -9 -24 -108 -11 -7 0 2 -8
1532261084150960 1 -9 -35 11 -1 -4 -6 -7
1532261084180880 -11 9 -29 -37 -8 1 2 -1
1532261084232741 1 -1 21 60 6 -1 -6 -3
1532261084262662 -7 -15 -8 -11 -3 0 0 -3
1532261084277621 2 11 6 -7 1 2 -1 -2
1532261084316518 -3 -1 6 -10 0 3 3 6
1532261084390320 2 -11 7 -4 -2 -3 0 -1
1532261084420240 -2 -20 -13 -5 -1 3 -1 -1
1532261084525957 2 -4 -1 3 4 -2 0 1
1532261084556874 0 -4 5 -1 0 0 -1 0
1532261084579813 -3 -1 1 1 2 -4 0 1
1532261084600757 2 -2 -2 30 12 2 0 2
1532261084637658 1 -2 31 10 4 1 6 0
1532261084668576 2 -6 -17 3 -4 1 -3 0
1532261084720437 -1 4 -6 -1 -2 -12 -1 -2
1532261084788256 -3 -2 -27 -8 -3 -18 -10 -11
1532261084829147 -7 -11 2 -8 -6 3 -2 -1
1532261084856075 -1 -4 -39 1 1 5 3 0
1532261084892976 -1 -10 6 2 -3 0 0 -2
1532261085065515 -1 -4 2 -3 0 -1 -5 -5
1532261085103413 -1 7 -2 0 2 -1 1 -1
1532261085170234 0 -1 -5 4 -2 -3 0 -1
1532261085215153 -4 -5 14 -9 -1 -3 0 0
1532261085312897 3 -4 -9 -1 1 0 11 -1
1532261085372742 -1 2 -5 1 1 2 2 -2
1532261085441548 3 -2 17 0 -2 -5 -5 -1
1532261085478449 1 -5 0 0 0 -2 2 1
1532261085508368 -5 9 82 20 5 1 1 -5
1532261085553248 -4 21 -42 4 -2 -1 -2 -6
1532261085598135 0 -8 -41 -16 -5 -1 3 0
1532261085644012 1 -13 -4 -6 0 -8 3 -6
1532261085672934 -3 2 12 -1 -6 -32 -17 -9
1532261085732775 1 -8 -35 4 8 -8 21 11
1532261085747735 2 -4 51 -23 -7 15 18 -20
1532261085777655 5 33 -10 34 6 -15 9 -8
1532261085800593 9 15 -14 17 13 4 10 -9
1532261085815553 4 26 -4 -11 -7 5 1 1
1532261085890353 0 -1 10 4 0 8 9 -5
1532261085913292 -10 3 14 -7 -4 -2 7 0
1532261085944209 6 5 -16 -12 -4 -2 15 -2
1532261085988107 -7 0 29 40 1 -1 -4 -2
1532261086025990 0 -1 -12 -2 1 -3 -1 -1
1532261086092812 1 -6 -15 -6 0 -1 -2 -3
1532261086115751 -1 5 -25 0 2 2 -1 -1
1532261086243409 -1 -12 -7 5 4 -3 -6 0
1532261086259379 3 11 6 2 -5 0 5 4
1532261086280311 1 3 3 -11 -3 -1 -1 -2
1532261086325191 4 5 1 6 2 4 15 5
1532261086371072 17 -3 -1 1 -3 -2 -9 -2
1532261086430908 12 1 -14 -5 0 1 2 -7
1532261086512689 -23 -9 -4 -7 -4 -4 -5 -4
1532261086536625 53 16 18 17 11 14 -1 32
1532261086565548 -13 -7 -5 -6 -3 -6 5 7
1532261086678246 6 -2 -15 -5 1 -8 -7 -33
1532261086761025 2 10 -6 -5 -6 -1 61 6
1532261086782966 23 17 5 4 9 4 0 19
1532261086835825 -24 -1 5 12 8 2 -3 10
1532261086904642 0 -5 14 0 -3 -4 -37 -14
1532261086970465 -20 6 2 -23 -10 -6 -18 -13
1532261087053252 7 17 11 -13 -1 4 53 25
1532261087129041 2 26 3 5 -4 -2 -23 -5
1532261087217803 -5 37 2 3 -5 -9 8 -6
1532261087270662 6 -18 -7 -6 -5 -8 73 3
1532261087293601 2 -42 13 1 -1 -30 -36 -1
1532261087323521 3 12 21 9 1 -8 3 -6
1532261087338497 2 22 31 4 -4 0 -30 -4
1532261087368401 -3 0 -9 0 0 -6 -27 -6
1532261087390342 -4 -19 -58 -9 -9 -29 -16 1
1532261087458162 6 14 -26 4 -1 6 89 1
1532261087533958 0 2 14 -2 -1 13 25 3
1532261087607762 -4 6 14 -1 0 -2 -32 -3
1532261087630700 3 -3 20 1 3 26 95 9
1532261087675579 -1 -9 12 0 -6 -5 -47 -4
1532261087722460 10 15 5 -14 4 9 57 4
1532261087765339 2 -32 14 4 -6 -34 19 2
1532261087818198 0 -6 -6 6 6 20 4 3
1532261087856106 -2 -2 -1 1 2 2 -2 0
1532261087871057 0 -7 -16 -1 -1 0 2 1
1532261087900977 -3 -11 -24 -13 4 1 6 7
1532261087922918 2 25 9 11 0 2 0 0
1532261087967798 1 -6 14 5 -2 -2 -5 -6
1532261087997718 7 17 1 2 1 -1 -1 4
1532261088043596 -17 -47 -75 -10 -2 1 3 11
1532261088080497 18 -20 -25 -4 -6 -32 2 -8
1532261088148315 -30 -1 -5 0 -1 1 -4 2
1532261088178235 13 -18 -6 1 -7 -17 -11 13
1532261088305894 -20 -8 -50 -51 -11 -3 -21 -14
1532261088357756 -21 -7 57 -38 -4 2 -4 -12
1532261088380694 -11 -83 -29 2 2 3 -2 -3
1532261088463473 18 56 3 4 2 -2 1 -5
1532261088553233 13 22 -1 3 4 4 4 24
1532261088606095 2 2 1 -5 10 2 1 -1
1532261088642993 -2 26 59 -16 29 7 3 -11
1532261088710811 12 4 -60 32 8 0 2 4
1532261088732753 -2 0 16 20 -2 0 0 -1
1532261088755692 -2 10 36 6 -2 -2 0 -3
1532261088779627 -2 -20 11 -5 -3 -1 1 15
1532261088800571 -65 24 6 0 -3 -2 -10 -90
1532261088823510 34 -7 -8 -1 1 0 0 32
1532261088853430 -2 -67 1 0 -4 -2 -1 30
1532261088898310 -15 -13 -7 0 -4 -12 -12 -30
1532261088920251 14 -33 -4 3 1 -4 -6 24
1532261088996049 12 -23 -87 -15 6 5 1 0
1532261089033947 2 -33 25 5 6 -1 -1 3
1532261089062870 -2 10 -55 -6 -2 2 -1 -3
1532261089130702 -1 -23 16 13 0 -2 0 2
1532261089152630 -8 25 1 19 6 1 0 -3
1532261089198506 -6 -20 -2 1 -1 -2 -2 -7
1532261089258347 5 -6 -2 -9 1 2 -2 -17
1532261089318186 17 -20 2 0 -1 -4 -13 -18
1532261089340129 -17 -19 -7 -5 -3 -3 -5 -1
1532261089372044 -5 -13 -5 -2 -6 -7 -6 -2
1532261089407947 -5 -3 -1 0 2 2 3 -11
1532261089430886 -2 -2 0 2 0 0 0 3
1532261089475766 -1 8 6 2 4 3 0 2
1532261089490725 5 11 7 6 2 1 2 6
1532261089610405 1 -8 -19 -27 -6 -2 0 0
1532261089640326 -3 4 -32 16 -7 -3 -29 -2
1532261089678224 2 22 21 4 -3 -5 22 -11
1532261089700165 2 11 -2 14 4 1 -27 0
1532261089753024 -8 -4 14 -15 -4 -3 35 15
1532261089790923 6 30 67 5 -3 -2 -9 -10
1532261089812864 -13 -24 17 -27 -10 -5 -13 -2
1532261089850763 -10 -6 -9 -12 2 29 -25 -4
1532261089887664 7 -18 37 -10 -4 2 0 1
1532261089918582 -3 56 30 51 10 -5 5 -2
1532261090000363 12 -23 -74 -39 -14 -3 2 -3
1532261090060203 1 27 4 83 17 2 15 7
1532261090129019 -16 -37 -16 -7 2 4 3 1
1532261090150960 -2 -14 36 -23 -17 -7 -20 -7
1532261090172902 2 -5 -36 8 12 2 3 4
1532261090187861 -2 4 -3 -35 -11 -2 5 1
1532261090210800 11 90 3 10 4 2 27 -10
1532261090262662 10 92 37 -1 -5 -2 8 1
1532261090308539 -5 -30 4 -5 2 3 -18 -26
1532261090345440 4 41 13 0 -7 -5 -2 21
1532261090368378 -14 -41 -27 -5 -3 1 -50 -86
1532261090428218 7 2 13 24 6 2 -10 10
1532261090450160 -3 -28 15 39 7 3 5 3
1532261090473099 9 65 24 9 -8 -11 -8 -1
1532261090496037 -8 21 55 11 0 -4 -4 -3
1532261090525958 -22 -31 34 5 3 1 -35 9
1532261090555886 -7 -19 -42 10 1 3 0 22
1532261090600757 6 26 18 12 -2 -5 14 -15
1532261090630677 0 7 -11 -15 -7 3 3 35
1532261090668576 -14 9 20 -23 -12 -6 6 -10
1532261090684533 13 14 13 83 22 12 0 8
1532261090698496 -2 3 46 9 -1 6 9 9
1532261090728416 1 -28 -31 -20 -3 -4 8 8
1532261090750357 -7 4 74 -25 -10 -1 3 -3
1532261090765317 6 35 79 21 -6 -14 0 3
1532261090818176 -10 15 15 -4 -3 2 -18 -70
1532261090833136 -7 93 -3 2 0 0 4 -37
1532261090863056 11 27 -42 -11 -2 0 -17 37
1532261090894970 -9 -26 6 11 5 0 -57 -21
1532261090916912 -9 -7 -49 -27 -10 -3 -12 9
1532261090938858 -13 -10 -15 -55 -11 -1 17 8
1532261090960795 10 -17 -2 -25 -7 -3 6 16
1532261090982736 -3 -8 3 -23 -9 -5 1 -1
1532261090997696 7 13 30 4 5 2 1 10
1532261091043573 -6 -1 -18 22 8 3 15 1
1532261091095439 4 18 60 -32 -6 -1 -8 4
1532261091133333 5 53 58 8 -7 -6 -2 -4
1532261091185194 21 34 -3 11 12 4 -15 30
1532261091208134 12 26 -6 0 0 6 4 26
1532261091223094 4 -10 18 -8 6 6 -6 15
1532261091267973 12 13 -14 8 3 -1 13 4
1532261091297893 -7 11 9 28 3 -2 9 5
1532261091327813 3 -1 1 15 -1 -2 -4 2
1532261091387653 -12 -10 1 -9 1 0 1 2
1532261091418587 -3 -3 9 -21 -2 -2 1 -2
1532261091493370 -1 -26 -25 5 1 -1 1 0
1532261091532266 3 -5 -17 6 2 4 1 0
1532261091545232 5 42 1 -9 -4 -2 -1 -1
1532261091560191 8 10 -8 9 4 1 0 1
1532261091621029 -1 13 -4 1 0 0 -1 0
1532261091665908 -1 -11 -1 -5 4 6 -3 -2
1532261091710789 -2 -4 25 8 1 10 0 -1
1532261091732730 0 9 14 5 -2 -4 -3 1
1532261091815509 3 4 -11 -7 -1 -1 0 1
1532261091853407 16 11 21 -2 -1 -2 -1 24
1532261091883328 -17 -14 -63 -3 -7 -12 -9 -5
1532261091905274 6 1 -54 -4 0 -4 10 13
1532261091988048 -22 44 4 -13 -15 -14 10 25

1532261092055866 5 20 32 5 -1 -7 1 3
1532261092092767 -2 3 25 68 13 8 -1 -11
1532261092115706 2 9 10 13 -3 3 0 2
1532261092152607 6 4 16 -9 4 1 0 -1
1532261092190506 3 34 46 -7 -7 0 0 2
1532261092228405 3 -11 -20 -2 0 -1 0 8
1532261092258325 -3 15 12 1 -2 -6 -3 -9
1532261092327141 10 10 14 -1 -3 -2 -5 16
1532261092356063 -4 3 24 -8 -3 -3 0 -2
1532261092371023 -1 -9 -13 -20 -7 -1 -1 12
1532261092400944 -2 9 40 3 2 3 1 -1
1532261092430867 0 5 -11 -3 -4 1 0 2
1532261092460783 0 4 -11 4 3 0 -1 -2
1532261092482725 3 0 -8 -7 0 0 1 0
1532261092505663 2 14 14 10 5 -1 -1 5
1532261092550543 0 0 -11 -6 -4 -1 1 -1
1532261092573482 -1 -24 -41 -2 0 0 0 3
1532261092618362 -9 1 42 -5 -4 -10 1 -20
1532261092633322 -25 -5 -15 -9 -9 -15 -3 51
1532261092670223 16 0 -20 -4 1 -43 -40 -7
1532261092738070 -9 -7 83 10 6 6 -6 3
1532261092827801 2 -25 -43 1 7 9 9 6
1532261092880662 0 -6 -10 12 6 17 10 8
1532261092904625 3 14 33 -8 -7 0 0 -1
1532261093000364 -4 -4 -15 4 0 1 0 -1
1532261093032278 1 -1 -6 12 -2 0 -1 0
1532261093053222 -1 -3 -4 -1 -4 3 -3 0
1532261093075163 3 7 9 1 9 4 1 2
1532261093113062 0 -3 -6 -3 1 -2 1 -3
1532261093136998 1 -2 3 5 7 -1 1 -1
1532261093165921 -1 -1 7 0 -3 0 1 -2
1532261093195840 1 0 -1 2 3 0 0 1
1532261093217782 1 -2 1 -9 -1 -1 0 0
1532261093255686 -3 -2 1 8 -3 -4 -4 0
1532261093315521 -4 -2 -1 -2 -5 -2 -2 -3
1532261093338487 -7 -9 -7 -8 -2 -4 1 -1
1532261093360401 -5 3 9 2 -10 -1 0 -2
1532261093405290 1 -1 1 2 0 0 -1 2
1532261093437195 1 1 -1 0 -1 -3 -1 5
1532261093481078 -7 -7 -6 -3 -3 -2 -5 -4
1532261093510997 13 -9 -5 -1 -4 -3 -1 9
1532261093525958 14 3 -4 -2 -2 -1 2 8
1532261093555882 -6 -13 -8 3 3 2 -1 0
1532261093653616 -33 -7 -20 2 1 -2 -6 -9
1532261093705477 -24 -1 5 25 5 4 -3 -16
1532261093766315 21 13 -6 -1 1 0 -3 0
1532261093795238 -20 -21 -12 -25 -15 -11 -1 -17
1532261093952828 35 22 7 -2 -3 -4 -3 34
1532261094059531 -5 1 10 -2 0 -3 -28 -4
1532261094193173 -11 1 -3 -5 2 3 -6 -3
1532261094268970 5 -39 28 23 7 3 0 5
1532261094291910 -3 -37 13 -3 -2 -2 74 -1
1532261094312854 -9 -11 7 -12 -11 -41 -80 -2
1532261094328810 -4 70 8 1 -1 -15 -48 -1
1532261094463451 -1 -33 29 2 0 3 -23 -7
1532261094560191 6 -14 45 0 -1 -5 124 16
1532261094575152 -6 29 -109 0 3 17 24 -9
1532261094717770 -1 10 60 8 2 -12 -35 -4
1532261094770629 -1 -10 -61 -9 -3 16 29 2
1532261094808528 -1 21 14 -5 -9 26 67 4
1532261094838448 3 3 20 -5 8 74 -48 -3
1532261094861387 -4 17 15 7 1 38 13 1
1532261094950150 5 -16 25 2 -1 -22 -24 -2
1532261094996027 -4 -18 4 -1 -6 -2 92 6
1532261095064842 0 -1 -4 1 2 -9 -20 1
1532261095100746 1 -23 -10 -3 -3 -13 -3 -2
1532261095145627 2 14 12 1 -2 -4 -1 4
1532261095265307 -9 -70 -18 5 -1 -6 -2 -4
1532261095422894 36 5 5 32 4 -3 13 2
1532261095460784 -13 -4 31 82 30 9 6 4
1532261095490704 -7 -6 -34 8 3 1 1 -1
1532261095558524 -8 15 -60 12 6 2 -2 -11
1532261095573483 -8 -13 29 0 0 -1 -1 -2
1532261095648282 1 -9 -14 -15 -7 -7 -5 0
1532261095663243 38 39 5 11 1 1 -2 -5
1532261095760981 20 -4 11 -1 -2 10 10 41
1532261095775941 2 -5 0 -4 0 -2 13 -3
1532261095835781 3 27 -90 28 13 2 3 -3
1532261096000341 32 34 9 3 -1 -3 -2 43
1532261096038240 31 59 0 -9 -6 -9 1 -28
1532261096060182 -1 6 11 5 1 2 -30 -102
1532261096099077 -33 -8 -17 -9 -3 -4 2 4
1532261096135979 -8 -14 13 81 19 0 3 -1
1532261096172885 -5 -14 -2 -57 -15 -4 2 3
1532261096187839 -1 6 -49 94 44 10 9 8
1532261096255659 -10 -9 30 -8 -10 -4 0 -1
1532261096278597 -15 0 24 5 2 1 0 -6
1532261096315498 -2 14 0 -12 -6 -4 -4 -4
1532261096345418 16 20 -61 -18 -2 1 2 21
1532261096360378 -6 -42 -26 -8 0 0 3 5
1532261096390299 -53 -32 -5 -8 -3 0 1 -38
1532261096435178 9 46 24 5 3 -7 15 78
1532261096496015 4 11 7 8 5 -2 -1 -33
1532261096532917 18 36 4 9 5 -3 3 1
1532261096577797 0 4 4 -1 -1 -4 6 9
1532261096690496 1 -13 -1 -3 -1 1 4 11
1532261096765295 -24 -16 -2 20 20 3 1 -4
1532261096810176 3 3 -2 9 -5 -4 -5 -3
1532261096840095 -11 -8 -9 24 3 2 -3 0
1532261096855069 2 24 -7 -27 -7 -2 -5 -4
1532261096877995 -4 -12 0 7 -4 -2 -8 0
1532261096915893 11 -5 -26 -19 -12 -3 2 -5
1532261097012634 -21 26 45 12 52 10 4 6
1532261097110373 13 21 42 25 11 -2 17 11
1532261097170213 7 1 -18 5 -3 0 -26 -1
1532261097238069 -23 -84 17 -30 -2 2 14 -6
1532261097321807 -8 5 -32 -4 5 5 -1 -16
1532261097449466 -3 -7 10 -47 -10 -4 3 -4
1532261097583109 9 38 -3 -6 -1 2 18 15
1532261097627989 3 6 -5 17 4 1 1 2
1532261097657909 10 6 -35 -39 -8 -3 0 -5
1532261097696805 1 25 26 17 7 3 16 0
1532261097732709 -17 -19 -26 11 1 -2 5 -3
1532261097778586 2 -6 -72 42 20 9 6 9
1532261097838426 -2 -88 29 2 1 -2 -5 -29
1532261097860367 7 46 24 -7 -3 -5 22 28
1532261097890301 22 52 16 -3 -1 0 12 20
1532261097913226 -13 -49 -31 0 3 2 19 -7
1532261097943146 -1 -13 18 100 18 7 28 8
1532261098017946 31 65 14 -49 -6 2 -4 10
1532261098055844 9 16 57 -63 -8 -2 3 -1
1532261098102720 12 -2 -108 5 8 9 24 12
1532261098160564 -22 1 -20 -27 -11 -3 -12 7
1532261098198463 9 1 -20 -39 -24 -9 -47 5
1532261098280245 -19 -36 -26 -35 0 -1 11 -4
1532261098303183 -34 -4 -14 -22 0 2 15 -10
1532261098319141 3 -10 6 1 0 1 1 -6
1532261098371002 -33 -78 -36 -1 -3 -2 -6 0
1532261098392943 19 17 21 3 2 3 -7 29
1532261098437823 14 57 7 6 -1 3 15 -25
1532261098475721 -20 -40 5 15 5 5 -13 -14
1532261098543540 -25 -40 -20 -10 -2 1 6 -17
1532261098603380 -4 -7 -21 33 9 2 7 -10
1532261098670202 -3 24 19 -1 2 -2 0 -2
1532261098746996 -1 -25 -18 -8 -2 0 1 -1
1532261098775918 -2 16 -1 -3 -1 1 0 1
1532261098805850 1 2 5 -4 -1 1 -1 1
1532261098842747 -2 0 -4 3 -3 -2 0 -2
1532261098865679 4 11 17 20 0 -1 -1 0
1532261098895599 -1 52 19 -7 -1 -1 -4 -2
1532261099024254 2 5 -19 -1 0 2 2 1
1532261099045199 2 13 22 6 1 1 -1 -1
1532261099090079 -1 0 52 -20 -7 -1 -3 -1
1532261099142937 -2 -10 -53 -5 -2 10 -2 29

1532261099285555 -3 9 21 1 2 -8 -2 12
1532261099315476 5 12 12 6 -5 1 -2 -5
1532261099353375 -4 -16 -31 -11 4 3 -3 -1
1532261099398255 2 6 -28 -7 -2 2 -3 -2
1532261099510954 -4 -8 12 3 4 -2 0 -1
1532261099540873 2 -4 -3 -5 -3 3 0 3
1532261099570793 -3 -2 -2 -3 -2 -1 0 2
1532261099630633 0 -2 4 8 3 -5 -3 -1
1532261099675514 0 -4 -13 8 -1 0 -1 0
1532261099713442 -2 2 5 0 -1 2 0 -1
1532261099879997 -2 -14 -36 0 2 -1 0 0
1532261099930861 -1 0 -5 1 -1 5 0 -1
1532261100027602 0 -5 1 0 -1 0 -3 0
1532261100156266 -3 3 9 4 -3 -4 -3 -1
1532261100185181 -1 -3 3 4 -1 1 -1 -3
1532261100200141 0 -2 -23 -1 0 0 -1 -1
1532261100223079 1 -3 -30 -2 -1 -4 0 0
1532261100267959 -1 1 -5 -3 -3 -2 -1 0
1532261100342759 -1 2 36 0 0 -1 -3 -2
1532261100366696 2 2 6 2 -2 2 -1 0
1532261100410578 -1 -1 -2 0 1 -1 0 0
1532261100433517 0 -12 -30 -2 -4 -1 -2 -2
1532261100455466 -1 0 1 9 3 -2 0 0
1532261100500344 -2 5 33 -12 -10 -1 -1 -2
1532261100568163 0 3 -14 4 2 -1 -1 -2
1532261100590649 -1 3 -2 11 2 2 -1 0
1532261100620569 2 1 1 2 2 -2 -1 -1
1532261100710329 -2 2 -5 -3 -2 -4 -1 -1
1532261100749225 -4 0 23 3 -2 -1 1 -1
1532261100778147 -1 -4 -8 -3 -1 2 0 -1
1532261100875886 -1 -2 -3 -1 -3 0 -1 -2
1532261100942707 0 -1 -27 -1 0 2 1 -1
1532261101003178 -3 0 23 4 0 -1 0 0
1532261101033099 0 -8 -28 -1 -1 0 -1 -2
1532261101108617 0 6 64 -6 -1 -1 0 0
1532261101162459 4 3 -8 0 2 -2 -1 2
1532261101206341 -2 -7 -18 -3 -5 -4 -4 -5
1532261101228282 -9 14 37 0 -1 -7 -25 -51
1532261101280143 2 12 -49 -8 -2 13 1 19
1532261101392842 2 -20 -35 -37 -7 5 -2 -3
1532261101467641 -5 1 4 37 6 2 2 -2
1532261101513519 1 3 17 0 6 2 0 -1
1532261101565381 0 -3 -2 2 -6 -2 -1 -1
1532261101707999 5 0 -15 -13 -3 -1 0 0
1532261101752879 -2 -2 8 0 0 0 1 2
1532261101805738 1 3 -3 -11 -6 -1 1 -1
1532261101933397 2 9 14 6 2 1 0 1
1532261101985257 1 7 11 -11 -6 -2 -1 -2
1532261102053077 -8 -1 -8 4 -5 -7 -9 -5
1532261102097957 -4 2 3 -2 2 -3 -5 -4
1532261102142837 2 -10 0 -1 -3 1 1 2
1532261102172757 6 3 4 -2 3 7 10 13
1532261102248554 25 18 14 6 -1 -4 -11 -12
1532261102300416 24 1 7 9 2 1 2 5
1532261102360255 6 -17 -19 -28 -6 2 3 -1
1532261102383194 3 1 15 59 7 1 -3 -1
1532261102436053 13 5 2 3 2 3 -3 -6
1532261102517833 3 -1 1 2 -6 -2 38 13
1532261102653471 44 40 41 10 7 1 94 19
1532261102728271 -50 -34 24 4 3 14 -61 -47
1532261102773151 6 -11 23 -9 1 2 14 13
1532261102796090 30 2 10 13 5 10 90 -11
1532261102885849 -11 10 -4 -2 -1 -1 0 6
1532261102908802 16 26 20 8 -1 4 12 0
1532261102930730 -1 25 9 4 3 -2 10 3
1532261102960649 10 41 22 19 5 2 10 3
1532261102983588 -5 -49 -52 -5 -4 -2 -3 -1
1532261103043428 -1 -2 -106 -21 -1 -5 -66 -5
1532261103073348 8 -46 67 10 3 24 13 5
1532261103118229 -5 -87 2 -1 -12 -11 57 -15
1532261103148148 1 4 -93 -5 2 3 -37 7
1532261103178068 -4 -5 5 -1 -12 -32 -46 -4
1532261103193028 5 9 29 -2 10 41 13 2
1532261103230926 0 25 25 -11 -4 16 4 -1
1532261103252868 -6 6 29 0 -3 0 -29 -7
1532261103320687 2 -24 -12 -1 -4 -5 39 1
1532261103359582 6 13 -120 4 8 15 -36 10
1532261103373545 -14 -20 39 8 2 40 18 -9
1532261103418425 -14 20 -49 -9 1 24 3 -11
1532261103455327 0 23 -53 -7 -1 -3 3 3
1532261103470286 -3 -10 1 16 4 -2 -29 6
1532261103530126 -7 -9 -77 -11 -3 4 -42 -3
1532261103561044 8 21 44 -8 -2 6 13 -2
1532261103590964 6 -3 54 2 11 29 31 7
1532261103627865 -9 16 20 -8 -4 -8 -21 -9
1532261103657786 6 -22 8 -1 -1 -8 -28 0
1532261103687706 -6 7 25 0 -2 -34 -23 -8
1532261103717625 -3 -40 6 -2 -3 -8 -51 -8
1532261103740564 3 2 3 1 12 14 10 -17
1532261103763503 -3 26 -4 2 -5 2 -7 -1
1532261103793423 0 -3 -4 -1 -3 -7 -4 -1
1532261103838311 8 -14 8 4 4 -9 -13 7
1532261103905124 -3 -7 -2 -1 -1 5 18 -2
1532261103972955 -14 1 -12 0 -3 -3 -2 -3
1532261104017822 21 -1 6 -2 -2 -2 -1 1
1532261104070681 9 -5 3 -1 -1 -4 -3 0
1532261104092623 -27 -10 -1 1 -3 -20 -5 -43
1532261104115561 13 -3 -1 -5 -7 -11 -3 7
1532261104160442 -92 -40 -8 -8 -5 0 -6 -24
1532261104198340 2 -11 -9 -30 -6 3 2 22
1532261104220282 43 -51 -9 71 31 6 10 14
1532261104265161 12 -6 31 -37 -13 -1 -1 -4
1532261104280121 -7 -11 31 -8 -5 0 -1 -1
1532261104318019 15 19 15 20 8 4 2 7
1532261104332980 -22 21 -15 7 2 1 0 2
1532261104362900 21 14 -14 -9 -7 -2 -4 4
1532261104400799 -18 6 8 0 -1 -2 -2 -26
1532261104452659 18 5 -6 1 1 -1 4 31
1532261104483577 -24 -22 -4 -4 0 0 -5 20
1532261104520479 25 -10 -9 -6 -8 -3 4 34
1532261104580319 -15 -1 53 -84 -13 -4 -8 -13
1532261104618217 13 -11 -120 23 -8 1 3 8
1532261104648137 2 -27 69 -9 2 0 4 3
1532261104745875 -10 -14 -4 -5 -4 -2 -6 10
1532261104782777 22 -46 -26 1 5 12 12 -81
1532261104805721 41 90 7 2 6 -7 -18 -22
1532261104858575 -14 -22 -4 0 -1 0 -1 -36
1532261104888497 40 -11 -18 33 -2 9 16 62
1532261104903455 11 -11 6 -27 -14 -9 -3 -12
1532261104963295 5 -6 39 47 -3 1 6 8
1532261105009180 13 13 13 -46 12 6 2 10
1532261105090953 -37 -2 16 0 1 3 -2 -3
1532261105130847 -11 20 16 8 6 3 3 0
1532261105144809 -1 26 1 2 -1 -2 -1 2
1532261105172734 3 -45 13 0 -3 -1 1 2
1532261105202654 -15 -89 -4 -6 -4 -3 9 53
1532261105240553 -66 16 9 2 0 -1 -40 -104
1532261105278451 14 -33 0 -5 -7 -32 -45 59
1532261105315352 75 1 4 6 3 32 6 57
1532261105330313 4 36 -1 1 -1 2 40 6
1532261105353252 -4 -17 -11 -4 -5 -1 12 -44
1532261105391150 -16 -20 -6 -6 -6 -20 -3 -10
1532261105405113 -4 -9 0 0 -1 -20 20 -10
1532261105443012 -7 -39 -4 -4 -2 -8 -4 -4
1532261105510830 -8 4 -2 1 3 -4 0 -7
1532261105547732 -9 -6 -2 2 3 -3 -3 -4
1532261105593610 -7 -19 -32 -32 -2 -1 -1 -3
1532261105615550 3 0 -6 12 2 0 0 2
1532261105638489 0 3 11 -19 -3 -5 -3 -1
1532261105669406 -2 2 -11 4 -3 -5 -7 -5
1532261105683369 -1 2 -1 11 -9 -6 -25 -3
1532261105705310 3 -3 1 5 1 -2 7 3
1532261105743209 1 28 13 36 10 2 -1 4
1532261105758169 -10 -19 15 -7 4 4 1 -4
1532261105788088 -4 0 -2 43 4 -5 -2 -25
1532261105811027 7 15 -12 -5 -5 -2 7 14
1532261105825988 -17 -16 -28 -39 -6 0 -6 -2
1532261105855907 -12 -33 -55 -22 -17 -5 -3 -2
1532261105892808 4 10 35 32 4 -7 0 3
1532261105907768 -14 -23 -28 18 0 -4 2 -8
1532261105930707 -4 -11 2 -37 -7 -2 -3 -2
1532261105945667 3 19 35 -40 -10 -6 1 1
1532261105960628 4 0 25 -16 -13 -13 11 -9
1532261105983566 -25 78 -26 -10 -3 1 36 22
1532261106013487 8 105 36 26 5 19 16 -79
1532261106065347 1 -81 31 4 -4 -3 -26 52
1532261106125187 -15 -5 -10 8 3 -13 20 -4
1532261106140147 -24 9 -36 4 0 9 8 -32
1532261106186025 22 59 68 -70 -10 -6 -6 -1
1532261106200984 -20 -74 -28 -13 0 -2 -3 -6
1532261106245865 5 58 27 20 5 2 11 -1
1532261106290744 3 -4 39 -10 -7 -6 -54 -10
1532261106320664 -11 42 66 35 -2 -11 10 -6
1532261106358564 -18 11 -34 -3 4 4 -2 30
1532261106373523 -5 -14 -7 1 -7 -7 -24 -8
1532261106403443 13 -25 -8 49 10 -11 -20 -19
1532261106448323 3 -8 8 -46 -15 -23 -42 -13
1532261106485225 22 42 39 -2 -4 -11 -34 -7
1532261106508163 -2 18 -11 25 10 7 14 -3
1532261106538083 -1 69 57 -2 -16 -12 -31 -7
1532261106553043 1 -29 -51 20 11 5 -63 -8
1532261106576980 -37 -10 -48 -7 -5 -5 14 13
1532261106612883 -13 -84 16 -14 -3 -1 -17 -23
1532261106642803 -4 33 2 17 17 11 33 11
1532261106695661 1 -128 -16 -13 -9 1 -78 -24
1532261106734558 -11 -41 34 -13 -12 -7 19 -33
1532261106757497 29 78 26 0 -3 2 20 15
1532261106794398 -4 0 97 -8 0 4 4 2
1532261106823321 -11 5 22 -6 2 4 33 -3
1532261106890142 -2 -10 -101 -5 -2 1 0 -10
1532261106936019 -9 -76 -31 -13 0 0 25 -28
1532261106965939 -3 -45 -45 1 1 -2 5 -6
1532261107002841 -6 -58 -5 1 -4 3 -9 -3
1532261107062681 19 54 39 -16 -5 1 -8 8
1532261107100579 -8 -26 -46 -34 -10 0 -16 3
1532261107130499 -5 -11 64 -36 2 10 -41 -5
1532261107190339 10 69 -51 -3 -1 -1 2 -8
1532261107273118 1 25 8 10 -3 -2 -26 -7
1532261107311018 -18 -8 17 2 -1 -5 -14 -11
1532261107340937 -11 6 -6 -12 0 -10 -9 -37
1532261107355896 3 4 11 -7 -2 10 90 14
1532261107445657 -12 -18 -5 17 8 2 -15 1
1532261107520456 -1 3 5 -4 -3 -4 -4 -2
1532261107573315 6 -5 2 2 3 4 2 0
1532261107619206 -3 -6 5 1 -1 -1 -2 -1
1532261107648114 -3 -5 -6 -11 -5 -5 -5 5
1532261107663075 0 -10 -4 -12 -4 0 -3 0
1532261107692995 20 -6 -60 -12 -2 -1 5 14
1532261107760814 -17 -33 -18 1 -3 1 -3 -11
1532261107896450 3 -3 -29 -20 -1 -1 1 3
1532261108000173 -6 44 59 5 1 -10 19 -67

1532261108090932 -8 -15 -34 -16 -8 -5 -5 0
1532261108105899 -1 -6 6 -8 0 -3 9 -3
1532261108338309 -4 6 -4 -15 0 0 1 -8
1532261108495879 -1 8 3 -2 -2 -1 1 -2
1532261108577661 2 -7 -13 -8 1 1 -1 2
1532261108638499 -1 7 21 1 -2 0 1 0
1532261108705320 0 -3 -20 -2 -1 -1 -1 -1
1532261108766157 -3 1 -6 2 -4 0 -1 -2
1532261108871895 0 2 0 -3 -4 -17 -4 -1
1532261108915757 1 6 33 26 5 -1 0 -4
1532261108984573 -6 9 47 1 2 2 -2 -4
1532261109058376 -1 6 -7 1 1 0 -1 -1
1532261109110237 3 -2 -3 0 -1 -2 -1 0
1532261109155117 -2 -6 -13 -3 -4 -3 -2 -6
1532261109186040 0 6 26 2 0 11 -2 0
1532261109275794 1 4 25 9 4 0 1 0
1532261109312696 -3 -3 -2 -2 -1 0 0 -1
1532261109365563 0 -10 -66 1 11 21 -7 65
1532261109403453 1 65 71 3 -7 7 -3 4
1532261109433380 -6 -5 -12 -4 -6 -21 -22 -26
1532261109448340 7 -6 -68 3 1 1 8 17
1532261109523156 -5 -9 9 -38 -18 -7 -4 -5
1532261109575999 5 19 -1 2 -1 -7 -2 1
1532261109597939 1 -2 5 -7 -2 1 0 -3
1532261109725598 -1 -2 -44 -2 2 -2 -1 -2
1532261109778457 0 -1 11 8 3 -3 -3 0
1532261110002856 -1 3 14 -4 -1 0 -1 -1
1532261110047736 1 1 3 1 -2 -1 1 -2
1532261110092617 1 0 -2 2 0 5 2 0
1532261110108574 -1 -2 0 5 1 0 1 -1
1532261110145475 -4 -6 -5 1 -3 -2 -2 -2
1532261110243214 -3 -2 3 4 3 -1 -1 -2
1532261110347934 -9 -25 -57 -16 3 -1 -2 -4
1532261110401791 -4 -9 -9 -8 -4 -1 -12 -2
1532261110468611 -10 -22 -17 -11 -5 -2 5 -3
1532261110535433 5 4 0 -3 -5 -3 -1 0
1532261110625193 2 -3 -8 3 1 0 13 -2
1532261110686041 18 2 3 9 15 8 10 24
1532261110730911 -34 2 -14 -13 -4 -2 -5 -2
1532261110775790 30 -5 6 1 -6 -4 -3 8
1532261110812691 17 -19 -6 -7 -1 3 30 4
1532261110880510 -36 -5 1 3 -4 -12 -41 -21
1532261110957305 -4 -2 0 1 5 1 2 -15
1532261110978249 -14 14 12 -15 -5 1 79 40
1532261111090947 17 6 -16 4 2 0 8 3
1532261111112889 5 -2 -10 3 -6 -7 -10 0
1532261111187688 -2 23 21 1 -1 1 5 -4
1532261111225587 0 68 21 1 -2 -3 -12 -5
1532261111248536 6 -120 48 5 -2 -7 -3 -3
1532261111323326 1 4 24 -5 -5 -9 -20 -8
1532261111391145 -4 -15 20 6 11 38 35 -2
1532261111413100 1 28 -5 1 -2 41 -38 0
1532261111465945 -5 -2 37 -1 1 -12 -16 -8
1532261111495886 1 -4 -21 -1 3 -14 -33 -7
1532261111517827 0 -30 -49 3 -4 -21 14 3
1532261111532787 -10 -10 -82 -9 -5 -25 -15 -9
1532261111562708 2 -2 4 -1 -5 -20 2 7
1532261111660445 6 -11 38 0 -1 14 -20 2
1532261111690365 -2 -5 -3 -4 -1 -5 -8 -9
1532261111720285 2 10 1 -3 -5 -12 17 0
1532261111765165 0 9 9 -2 -13 -20 -47 -7
1532261111789102 -3 1 -10 -1 -2 6 -6 -4
1532261111811042 -6 -25 2 -7 -4 10 0 3
1532261111907785 2 -17 5 1 3 9 3 2
1532261111968622 3 40 8 4 0 1 0 0
1532261112005524 4 -13 2 7 3 3 0 -1
1532261112028462 -5 -6 -20 10 3 2 -3 -2
1532261112118221 -4 -2 2 -1 1 1 -1 -3
1532261112135176 -7 29 18 4 -4 -6 -2 -19
1532261112201000 -36 -37 6 1 0 3 6 -11
1532261112260841 4 24 1 -3 0 -6 -12 6
1532261112284776 15 2 -5 -7 -11 -5 38 18
1532261112312702 0 15 12 -31 1 1 -4 4
1532261112352595 -20 -37 -51 -7 -6 2 2 4
1532261112373539 -11 -37 31 -22 -16 -1 -3 -5
1532261112553058 -9 -1 -20 23 5 1 0 -1
1532261112672739 -45 9 22 -31 -12 -2 9 -13
1532261112733576 -7 -32 32 -110 -24 -5 4 5
1532261112778456 6 -3 -9 -1 -1 1 2 -1
1532261112823336 2 -39 1 13 -1 -1 -1 9
1532261112900131 -1 -21 0 -1 4 3 -12 -128
1532261112943016 16 -8 2 1 0 9 7 2
1532261112972936 14 24 23 59 10 11 9 24
1532261112987896 -16 -11 63 1 13 11 11 -1
1532261113011833 -10 -6 16 -32 -12 -1 1 5
1532261113055714 -14 1 -25 -9 -5 -1 0 0
1532261113108574 -4 -15 -35 -29 -8 1 4 4
1532261113198333 -5 -31 -42 -6 2 1 1 2
1532261113228254 -13 -25 12 -7 1 0 0 -3
1532261113311032 -3 -31 16 -1 0 -9 -19 57
1532261113347933 18 103 11 -3 -4 -6 12 24
1532261113430712 -1 -5 10 42 18 0 15 -17
1532261113454648 7 7 28 -1 10 -9 -8 0
1532261113505514 -6 -2 14 1 4 -2 -10 -3
1532261113543410 -18 0 23 4 14 1 3 -1
1532261113588300 -6 -5 34 -2 -5 2 2 13
1532261113610232 -9 -7 -78 1 -13 -8 -14 -6
1532261113656111 8 -9 -52 -19 13 -24 17 5
1532261113707970 11 24 32 -2 19 8 8 5
1532261113805710 4 16 -4 -31 -21 -11 -6 -8
1532261113888488 -24 -12 105 14 1 0 1 -6
1532261113972280 -11 39 -7 0 -16 -16 70 -65
1532261114040082 13 16 -24 40 3 3 12 2
1532261114150787 18 75 18 -16 -7 -3 -28 6
1532261114218605 -7 27 -1 3 -3 -2 -2 -9
1532261114270466 -14 -33 -4 9 -5 -2 -2 30
1532261114293405 -14 -21 -22 26 23 9 15 3
1532261114315346 1 2 15 -27 -8 -2 28 7
1532261114353245 -5 8 -85 7 7 4 16 3
1532261114375186 10 23 50 -33 -9 -1 15 13
1532261114472925 -2 -46 15 12 10 11 -3 -44
1532261114532765 -5 27 -19 -2 6 9 6 -28
1532261114585624 5 7 -6 -57 -27 -16 -14 4
1532261114615543 2 -5 8 32 3 -2 -9 3
1532261114765144 -4 47 9 -5 -7 -4 -36 -48
1532261114780104 -11 -34 27 0 2 -1 17 1
1532261114818002 3 0 14 2 6 3 -14 -10
1532261114847922 10 42 40 31 16 8 36 12
1532261115028440 7 13 19 9 2 0 6 -1
1532261115050381 -3 -3 -19 -16 -7 -2 5 -1
1532261115120194 -3 -13 14 4 2 0 -2 4
1532261115140141 4 12 -11 6 5 6 5 -3
1532261115222920 1 16 18 16 4 -1 0 -3
1532261115284754 -3 -22 17 -10 -6 -4 -4 -2
1532261115312679 6 30 21 6 1 -4 3 0
1532261115365538 -2 -5 5 -7 -4 -1 -2 -5
1532261115485218 4 19 91 4 -1 0 3 -3
1532261115605895 7 6 35 2 1 -5 -28 -56
1532261115642797 13 81 103 -6 1 17 32 1

1532261115665735 -1 10 -32 -8 -3 -3 -2 6
1532261115710615 1 -11 -27 9 2 0 4 1
1532261115733554 3 1 29 -12 -4 -1 -2 4
1532261115785449 2 -10 17 -12 -5 -6 -1 2
1532261115815369 0 1 22 -12 -2 1 -2 -4
1532261115869225 0 -9 -18 -12 -4 -4 -1 0
1532261115898148 -2 0 10 5 4 9 -1 -4
1532261115943041 1 -1 -24 -1 2 -4 0 1
1532261116017828 -2 0 5 -1 -1 -1 -2 -3
1532261116062708 1 -6 -14 -3 -5 1 3 2
1532261116093625 -8 2 -6 3 2 4 6 1
1532261116175406 -1 1 -6 0 -2 -2 0 -3
1532261116229272 -2 -12 -19 -2 2 4 1 1
1532261116280129 0 -4 -1 -1 -1 0 0 0
1532261116326004 -2 6 -4 1 1 7 1 -2
1532261116407785 -1 -7 -9 -1 -2 -1 0 0
1532261116437705 -12 20 34 2 0 3 1 1
1532261116513502 -1 5 -10 1 1 0 2 0
1532261116790796 1 -1 -4 -1 -2 1 1 0
1532261116827697 0 -9 -3 -1 -2 -3 0 1
1532261116865595 1 7 9 -1 -2 0 -2 -1
1532261116903494 -3 -5 -16 0 -1 -1 -1 -1
1532261117030156 -2 -7 -6 0 0 2 -1 0
1532261117053095 -2 5 -2 2 0 0 -2 -3
1532261117068055 1 6 24 0 -2 2 0 0
1532261117097975 -2 -5 -5 0 -1 -4 -2 -1
1532261117127894 1 0 -3 2 2 2 0 -1
1532261117339330 0 -1 6 -1 0 -2 -2 1
1532261117465990 1 -2 -13 -2 -4 -3 0 3
1532261117585670 -3 1 -4 2 2 -2 -3 2
1532261117617584 3 4 2 -1 -1 1 0 -1
1532261117668449 -1 -9 3 0 -1 -2 0 -1
1532261117698369 3 4 9 -1 -3 -1 0 1
1532261117834006 -3 0 2 -3 0 -2 0 -2
1532261117847969 -2 -4 1 -2 2 2 0 -1
1532261117877889 1 1 20 0 -1 2 1 -2
1532261117900827 4 -10 -37 -2 0 0 -1 3
1532261117915788 -1 -1 17 2 -1 -1 1 -1
1532261117945720 -1 -7 -1 -5 0 1 0 0
1532261117967649 -3 9 9 -1 -2 -1 -2 -2
1532261117998566 -2 -5 -6 -1 -2 -1 -1 -1
1532261118013526 -3 -3 3 -1 0 4 0 -3
1532261118088326 -1 -3 -4 1 -2 -1 0 0
1532261118118246 0 -12 -5 1 0 4 1 -1
1532261118156148 -1 0 -3 2 1 -2 0 -2
1532261118178086 -1 -6 -9 -1 1 1 1 2
1532261118208007 -5 1 5 2 2 0 1 -3
1532261118230945 0 -2 5 -4 2 0 2 1
1532261118267846 -1 -1 4 2 2 -1 -2 -1
1532261118350624 -4 2 0 0 1 -1 2 -1
1532261118380545 0 1 5 3 0 0 0 -1
1532261118418443 -1 -1 7 0 -1 -3 -1 -2
1532261118449361 2 1 0 -1 0 2 -2 0
1532261118463323 -1 4 13 0 1 0 2 -2
1532261118478283 1 1 2 -1 -2 0 0 0
1532261118493244 0 0 -4 -1 -3 -2 1 -2
1532261118530145 1 -2 -2 -2 -2 3 -1 0
1532261118553083 -4 2 2 -1 0 -3 -2 0
1532261118620902 0 -1 -2 -1 1 3 0 -1
1532261118726619 3 -2 -1 1 0 -5 -1 -1
1532261118740581 0 0 3 0 -2 -1 1 -1
1532261118778480 0 4 3 -4 1 0 -1 -2
1532261118808400 -1 7 3 0 0 0 4 1
1532261118830341 -3 0 -7 -1 0 1 0 -1
1532261118868241 -2 -4 1 -3 -3 -3 -1 1
1532261118905151 0 1 -3 0 1 0 -1 -1
1532261118965979 -1 -3 -2 -1 0 0 2 -1
1532261119003878 -1 0 0 -2 2 -1 1 -2
1532261119049755 -2 0 1 2 1 -3 -1 0
1532261119070699 -2 0 -6 -2 1 1 -2 0
1532261119123558 -1 -4 -6 -2 0 1 1 -1
1532261119258198 -1 -3 1 1 0 -2 0 0
1532261119288118 1 -1 -2 -1 0 -3 1 2
1532261119362917 -1 -4 12 -2 -1 1 -1 -1
1532261119377878 -2 8 4 -7 -2 -1 -2 -3
1532261119490577 -1 -17 -21 -3 -2 7 -3 0
1532261119520496 5 -15 6 4 -4 -21 23 26
1532261119559392 -4 11 49 -88 -23 10 -6 2
1532261119573355 8 17 107 42 30 8 5 -2
1532261119595297 -3 -16 14 -7 -6 -4 -3 -9
1532261119625216 -5 -8 -36 33 8 -3 -1 1
1532261119693035 1 -3 -25 -26 -8 8 5 -7
1532261119797755 0 -1 11 -2 1 -1 -3 0
1532261119837648 -2 0 -5 -7 -2 -1 0 0
1532261119865574 0 0 -9 -7 -1 -1 -1 -2
1532261119903472 1 2 -10 -1 -1 1 0 -2
1532261119933393 -1 0 1 1 2 -3 -1 2
1532261119949350 0 -1 0 -4 -2 -1 0 -2
1532261119970294 1 -3 -6 0 -1 0 -2 -1
1532261120061051 -1 -3 6 -8 -3 -1 1 2
1532261120112913 0 -12 -10 -15 -8 -1 -2 1
1532261120142832 0 3 7 4 3 0 -1 -2
1532261120248549 -1 1 -2 4 -1 3 -1 -1
1532261120443029 -14 -10 -16 -10 -4 -1 2 -4
1532261120487913 -10 -13 -7 2 -1 -2 -1 -4
1532261120692370 1 16 4 4 6 -6 -73 34
1532261120743227 126 -14 -1 -6 -13 -15 6 20
1532261120803067 -7 -16 -5 -4 -7 -6 1 10
1532261120975605 -80 -13 -10 -5 -6 -6 -26 -23
1532261121005526 -16 -6 -2 -6 -4 -6 5 -5
1532261121058384 -3 3 -10 -4 -2 -1 -15 -6
1532261121103263 -4 18 13 -9 -2 -2 4 5
1532261121171096 -9 -91 -36 -12 -5 -3 -2 1
1532261121237903 -12 -94 49 -6 -15 -23 -4 -2
1532261121343621 0 -23 97 15 16 -18 -16 -10
1532261121515162 9 28 -113 -10 -6 2 20 3
1532261121545082 4 9 79 21 5 -6 2 0
1532261121725599 -2 -3 36 3 -6 -1 -10 -2
1532261121764496 5 -4 2 0 -14 -91 -13 7
1532261121853258 2 -1 3 11 7 -23 2 6
1532261122018815 -7 -22 -14 -9 -7 7 -2 -3
1532261122055717 1 26 -13 0 6 11 1 1
1532261122085637 -7 -21 -7 -11 -7 -6 0 2
1532261122228256 42 4 -8 0 -1 1 8 15
1532261122303056 14 8 3 9 2 -2 -12 -20
1532261122319027 35 9 8 1 1 -2 -7 -7
1532261122340955 -22 -5 -2 0 -2 -3 0 12
1532261122392815 -9 -7 -1 4 4 -2 -3 5
1532261122445674 22 12 -5 4 -1 2 -1 1
1532261122610234 7 1 27 -22 -7 -2 -2 -1
1532261122686037 22 9 5 3 2 2 4 81
1532261122715951 20 41 2 -2 -8 -7 -7 35
1532261122752853 9 9 5 -2 4 -2 9 -40
1532261122858570 24 11 -107 -42 -11 -2 4 21
1532261122918410 -12 46 -1 -3 -3 -1 2 -11
1532261122955312 9 0 -13 -7 -4 -5 -18 -29
1532261122985231 -4 -112 -11 -4 0 2 5 34
1532261123015151 -26 23 -8 0 -1 11 8 -56
1532261123046079 -24 8 -13 -6 -8 3 34 51
1532261123112890 -37 -18 -3 0 0 4 -5 -12
1532261123142810 2 6 -52 -18 -16 -8 -16 -10
1532261123172740 -8 1 35 -50 -15 -6 -7 -5
1532261123210629 5 -36 -62 1 -2 -3 -2 -3
1532261123225589 1 -12 85 -38 -8 -4 -5 -4
1532261123293407 3 -20 -19 -5 -4 -4 -2 -1
1532261123383167 2 47 26 1 3 -2 -22 0
1532261123405115 -45 26 10 -1 -6 -44 0 -94
1532261123444005 -63 -35 -8 -6 -3 7 14 -116
1532261123457967 20 63 1 0 2 15 29 -39
1532261123480905 48 38 12 12 9 -41 -21 72
1532261123502847 20 14 -2 1 1 -110 4 29
1532261123540746 -7 5 -5 -2 -1 -32 39 39
1532261123722260 12 11 -1 -30 -8 1 16 47
1532261123743204 10 9 3 54 5 -2 -8 -2
1532261123796063 -7 6 38 0 20 4 -5 -15
1532261123819002 8 10 -59 -45 -14 -3 6 7
1532261123923722 -26 -57 -124 16 5 -2 -1 -14
1532261123968601 -9 -27 2 -22 -14 -4 -31 -2
1532261124005504 -1 -40 -29 -19 1 2 -17 11
1532261124050383 -11 9 -24 -24 -10 -3 -25 -7
1532261124073322 -7 89 4 -1 -9 -12 -18 3
1532261124095263 9 19 -7 25 17 14 6 -14
1532261124163082 0 -9 10 -4 6 4 14 0
1532261124193002 -2 -2 6 -4 -12 -7 -19 35
1532261124305701 12 -1 -72 62 24 10 49 9
1532261124365540 1 -8 33 10 2 3 27 6
1532261124433360 -7 -18 -76 11 1 -3 6 -3
1532261124515141 -13 31 19 -4 -2 -1 31 56
1532261124539076 8 -12 0 46 18 9 -58 2
1532261124553039 -34 -61 0 -34 -11 -5 9 -13
1532261124612879 5 35 4 -47 -11 -7 -4 -8
1532261124642799 5 32 -33 -41 -12 -5 5 0
1532261124672718 6 21 36 1 1 -2 -6 -2
1532261124770457 -31 -54 -58 -20 0 8 19 -1
1532261124875189 3 -4 27 -54 -16 -10 -22 4
1532261124906101 11 -13 -23 13 -1 1 -25 5
1532261124929034 24 37 36 -5 -4 3 -13 7
1532261125032756 -1 5 16 -67 -19 -8 -6 -5
1532261125093593 37 64 4 12 6 -2 -32 47
1532261125115535 15 15 -5 -19 -4 -1 -47 8
1532261125138473 -31 -81 -34 -1 -5 -2 -12 4
1532261125162409 -23 2 16 19 86 20 0 11
1532261125183354 -2 16 19 -23 -31 -7 -4 4
1532261125213273 -3 7 24 -42 -17 -5 -51 -9
1532261125332953 0 109 16 -11 -7 -4 -44 0
1532261125355892 -3 -29 20 4 -4 -3 10 1
1532261125372847 0 -3 3 21 -3 6 10 -2
1532261125407753 1 -3 -7 -9 -2 -3 1 -4
1532261125430698 2 36 1 -3 4 0 9 0
1532261125475572 1 -1 13 8 -3 -3 5 3
1532261125520452 6 50 16 4 0 -1 1 1
1532261125543390 1 -9 -7 -9 -4 -3 -1 -1
1532261125580291 0 -18 -29 1 0 -4 0 0
1532261125633150 -8 -8 8 -35 -7 -7 -2 -4
1532261125671049 4 3 94 -10 1 -2 2 3
1532261125692991 -1 -20 -44 -12 -1 1 1 1
1532261125722911 2 -1 38 2 4 0 -2 -3
1532261125752830 2 24 -10 -1 0 3 1 10
1532261125791735 -18 -89 -55 -11 -14 -24 -56 -28
1532261125828629 -6 35 -31 -1 2 -24 9 -28

1532261125910409 5 8 -6 39 14 -11 4 -3
1532261125925369 -2 21 46 -12 -3 2 6 -5
1532261125963268 9 -11 -34 -8 -7 -8 4 2
1532261125985208 5 11 -12 18 6 0 -8 -5
1532261126017124 0 -1 -2 -14 -5 -1 0 2
1532261126082948 0 -8 -27 -3 0 -2 1 -1
1532261126142788 -1 -3 1 5 2 -2 1 -3
1532261126172708 -3 22 -11 -3 -3 -1 1 -3
1532261126188665 -4 0 6 3 -1 3 4 -5
1532261126210606 1 11 12 2 0 -1 -1 1
1532261126240526 2 14 20 -1 -1 -3 -2 -2
1532261126270446 -3 1 13 0 -1 0 0 -1
1532261126293385 -1 -2 -11 -6 -2 -1 1 2
1532261126330286 -3 -3 2 -9 -6 -2 -1 0
1532261126383145 0 1 -3 -19 -8 -4 -2 -3
1532261126428024 3 1 3 9 0 2 1 0
1532261126457945 -1 6 17 0 -1 1 0 1
1532261126487865 -2 3 10 -2 -2 -1 0 -1
1532261126525764 -1 8 43 13 1 -2 0 0
1532261126592585 -4 -1 -25 2 0 -1 0 0
1532261126615524 2 -4 2 11 6 3 -2 1
1532261126683342 -1 1 13 4 3 7 2 0
1532261126760137 -3 7 21 0 0 -1 -2 0
1532261126774100 1 -4 -17 -3 -2 3 -6 0
1532261126796041 -3 -4 1 -3 -2 1 18 1
1532261126840921 -2 -5 -5 0 2 5 3 1
1532261126862862 0 5 -3 -1 -3 -2 -3 1
1532261126915732 0 2 -8 -3 -2 2 -3 -1
1532261126998499 -1 -4 -1 3 4 -1 1 0
1532261127020441 3 -6 -21 -2 -1 0 1 0
1532261127043380 2 -2 -10 2 1 2 1 5
1532261127058341 1 13 61 0 0 3 -1 0
1532261127073300 0 -10 -50 -2 -1 -3 -3 1
1532261127095241 0 -8 -43 -5 -1 2 0 0
1532261127148099 4 -14 -35 -27 -2 -4 6 10
1532261127178020 6 14 33 5 0 -10 3 0
1532261127215918 15 29 7 7 6 7 -9 31
1532261127245838 -10 -8 -4 0 0 8 7 -9
1532261127269774 -9 14 21 45 0 10 -5 -43
1532261127305679 -2 20 12 -21 -9 -10 -8 -34
1532261127327619 -8 -11 60 10 8 11 4 -13
1532261127365518 -2 -10 -24 -1 1 -1 6 -9
1532261127395438 -2 -6 -23 0 0 2 -1 -6
1532261127455278 -3 -13 -47 -9 -6 -2 -1 -1
1532261127508137 0 1 7 -25 -10 -1 0 -2
1532261127524094 0 -1 1 -1 0 -2 0 -3
1532261127553017 -2 -1 -8 -9 -2 -1 0 -2
1532261127569971 -2 -9 -9 -1 -3 0 -1 -1
1532261127605877 0 1 13 3 -1 0 -1 -2
1532261127642778 0 4 11 7 2 1 -1 -1
1532261127687657 -2 -1 -2 -8 -2 -3 -1 0
1532261127815315 -1 -6 -1 2 1 1 -2 0
1532261127877150 1 8 -1 -2 -1 0 2 1
1532261127928014 1 2 3 -3 1 1 1 1
1532261127950952 -2 -2 -1 -3 -4 -3 -1 -1
1532261128032734 2 -3 -21 -8 -4 3 0 1
1532261128190312 1 2 7 4 -5 -1 2 -1
1532261128220233 -3 -2 -4 -3 1 0 -3 -3
1532261128370829 -1 -2 3 -3 1 0 -1 -4
1532261128528408 29 9 16 -15 -5 -2 2 10
1532261128692968 25 2 6 -4 -9 -8 -13 -38
1532261128918366 47 -2 14 -1 -3 -7 92 58
1532261129157726 4 12 31 -18 -6 -5 2 -5
1532261129195625 10 47 29 7 1 -2 5 3
1532261129225544 -8 95 -31 1 -7 -16 0 -6
1532261129248482 2 -93 22 -3 -4 -8 -21 -2
1532261129263443 2 -46 16 -3 -5 0 32 1
1532261129285384 -1 4 -4 -12 -5 -2 10 -1
1532261129300343 -1 -5 6 -1 4 21 -79 -6
1532261129338242 0 8 12 5 -1 -4 -20 0
1532261129383123 1 5 1 -6 -6 -13 -14 3
1532261129398082 7 19 32 1 0 -12 -22 10
1532261129472883 7 -13 75 1 -1 -5 17 2
1532261129540701 -4 2 -7 0 -7 -10 -22 -3
1532261129562643 2 4 16 1 1 3 23 10
1532261129660382 -3 1 11 -5 0 -9 -45 -5
1532261129713246 -4 4 -68 -11 -6 -16 -19 -8
1532261129773080 -3 -4 -3 -10 -3 3 36 -5
1532261129833917 -5 -106 -7 -4 -5 -11 -9 -2
1532261129862839 -4 36 52 -8 -3 -95 -67 6
1532261129915699 0 -10 -12 3 4 -12 5 0
1532261129939634 -1 4 -29 -2 10 72 5 5
1532261129983517 -1 55 5 -20 1 47 44 -4
1532261130013437 4 -4 -9 -2 -3 -24 -11 8
1532261130028397 3 -3 -3 -2 -3 -29 -2 -1
1532261130052333 -2 -8 3 4 -2 -10 -15 -6
1532261130065299 1 -25 -9 -6 -2 5 1 2
1532261130088237 -5 4 -7 -1 4 16 2 -1
1532261130118157 1 -6 -3 -3 2 -2 -3 2
1532261130156056 -1 11 -22 -2 -1 1 -3 -4
1532261130177997 3 12 0 -3 0 3 0 4
1532261130207917 1 -5 -1 -4 -3 -1 -6 -1
1532261130245816 3 2 -7 -1 -1 1 10 3
1532261130275736 19 1 28 2 -1 0 1 8
1532261130297676 -5 1 -4 4 0 0 9 8
1532261130358515 13 -1 -12 -1 1 5 1 0
1532261130380455 -3 21 7 5 5 8 7 4
1532261130395416 31 5 -4 -3 -3 -6 -8 6
1532261130410376 26 16 7 -2 -3 -2 -8 10
1532261130440323 -17 -8 -19 -29 -9 -5 0 -9
1532261130463234 16 -17 -7 30 12 1 -11 -1
1532261130478194 12 -33 -2 -16 -8 -5 2 -1
1532261130523075 15 -1 55 -34 2 0 15 4
1532261130546013 -32 -7 82 7 1 0 6 -2
1532261130597874 -1 26 6 1 -1 -1 -6 -3
1532261130627794 2 5 -14 -6 0 -2 0 -3
1532261130650733 -15 -42 21 -7 -2 -1 -2 -1
1532261130718552 4 3 -8 5 0 -2 -1 2
1532261130785372 9 -24 2 1 0 -1 -2 6
1532261130808312 -12 -11 -9 6 0 1 5 48
1532261130860173 -22 -2 7 3 -2 -4 3 -4
1532261130913031 1 -9 32 -15 0 0 -2 -11
1532261130927992 17 14 -33 37 8 -1 0 -3
1532261130972872 4 20 92 -29 0 -1 -1 -3
1532261130987831 -25 9 -40 -11 11 4 -2 -11
1532261131047672 0 -7 -102 24 12 0 3 -1
1532261131070615 -3 -18 -29 21 4 -1 -3 -2
1532261131108509 5 22 2 15 4 3 1 30
1532261131123469 -30 10 9 12 2 -6 -9 -88
1532261131160370 -13 22 -4 -5 1 5 2 28
1532261131183309 8 26 0 1 3 -10 -21 59
1532261131214234 22 27 3 1 0 -4 18 -59
1532261131235169 24 1 -8 -6 -6 1 -3 -9
1532261131265090 -11 15 0 1 -2 -4 -8 -44
1532261131281047 23 -3 1 2 1 -4 25 67
1532261131437629 -2 5 10 6 2 -3 -2 -3
1532261131468546 -1 40 -126 -8 -1 1 0 -3
1532261131483506 -4 -16 -69 14 1 1 -3 0
1532261131513426 7 -8 7 9 2 2 2 6
1532261131618146 36 -52 -9 8 6 5 0 13
1532261131715885 2 44 5 2 2 7 -31 -30
1532261131767746 13 9 -4 -2 2 -4 4 -2
1532261131797667 2 -2 -5 -3 2 -3 0 20
1532261131835565 -3 -30 -15 -21 -8 -6 0 1
1532261131865485 1 0 12 -19 -14 -6 -4 5
1532261131948263 -11 8 26 32 4 -3 -15 -6
1532261131993143 -15 -25 38 -23 -4 -2 -5 10
1532261132023063 13 -11 87 6 -6 -3 7 24
1532261132038023 -5 -14 -48 22 14 4 4 -8
1532261132067943 -6 -16 -8 -13 -12 -3 -32 -17
1532261132097863 7 -22 -28 -57 -15 -7 -14 -7
1532261132120802 -11 0 8 -2 9 5 5 -11
1532261132188658 3 -5 -63 1 -4 -6 30 -1
1532261132225522 -2 9 53 26 -1 2 9 1
1532261132255442 -2 -34 -39 -3 8 7 -1 -1
1532261132308300 -1 -25 -21 -7 -6 -5 71 15
1532261132383101 3 10 7 -38 -8 -2 19 13
1532261132465879 -20 -9 35 -26 3 -2 3 -3
1532261132547661 2 21 7 2 -6 -11 -18 -15
1532261132570598 6 -15 0 4 7 6 68 7
1532261132593538 -13 -25 5 -4 -9 -9 -30 -8
1532261132615480 -2 29 17 33 20 6 -4 9
1532261132638418 -2 -11 3 -23 -16 -10 9 9
1532261132683298 -13 2 33 -11 -19 -9 -3 0
1532261132705239 -3 -13 12 -21 -7 -4 -9 1
1532261132743138 -1 -10 -28 -72 -19 -4 9 2
1532261132781036 -8 -16 40 32 6 2 2 2
1532261132802978 3 26 19 6 -4 -5 -96 -2
1532261132817938 -4 -48 -60 -29 -8 -8 -35 -2
1532261132855837 -13 -54 -16 0 2 3 -1 -33
1532261132885757 -8 -24 -5 -5 -1 1 42 3
1532261132922657 -14 -56 -41 -7 -4 4 64 3
1532261132945596 -6 -17 10 11 7 6 -69 5
1532261132960556 13 45 39 -14 1 4 26 -3
1532261132983495 -10 -27 -27 -37 -4 -2 -11 2
1532261132998455 8 0 31 7 11 2 2 4
1532261133028375 1 -2 10 -60 -14 -7 75 4
1532261133073255 -1 19 4 34 6 3 -27 0
1532261133110157 -8 -29 26 9 3 2 35 22
1532261133133095 -17 -85 80 -11 -9 -6 -43 -47
1532261133163015 -27 -96 -40 -4 -2 0 -19 66
1532261133222855 -7 -24 -17 7 3 7 -85 4
1532261133267735 5 28 4 8 9 8 11 32
1532261133380434 4 14 -50 -43 -11 -6 -11 -6
1532261133397389 0 -7 0 -19 -6 -4 -56 -8
1532261133425314 11 17 -15 -3 0 1 -50 1
1532261133478172 -4 8 36 -9 -1 -3 50 -9
1532261133508092 14 9 -8 -2 -4 -3 52 1
1532261133650711 -25 -28 0 0 -4 -5 27 -5
1532261133718529 2 24 9 -12 -7 -3 -8 0
1532261133741468 1 36 -17 15 3 0 11 -1
1532261133787345 5 12 -6 19 4 0 6 0
1532261133989804 -2 -22 1 2 3 0 -1 -1
1532261134011746 -2 -6 -35 -1 -1 -2 1 -2
1532261134040668 1 -6 -1 6 -3 -3 -2 3
1532261134085548 4 11 0 -7 -3 1 1 0
1532261134153367 -5 -40 -38 -12 -5 -1 0 -1
1532261134198246 -2 6 -32 -5 -2 0 0 -1
1532261134213206 0 3 -5 -6 -2 0 -2 -3
1532261134243127 -13 20 -47 3 -1 -4 0 7
1532261134267063 41 13 3 5 8 -22 11 -10

1532261134362807 -21 34 33 -3 -2 8 -12 2
1532261134460545 3 -55 -18 49 9 3 -3 5
1532261134544322 -2 16 -28 0 0 -1 -1 0
1532261134558284 -1 -20 -20 -1 2 2 -3 -2
1532261134595185 3 5 7 9 2 1 -1 -1
1532261134692923 0 3 5 6 0 -1 -1 -2
1532261134722844 -8 5 43 1 -3 -5 -4 -5
1532261134828560 2 4 -2 1 2 -1 -1 2
1532261134865462 -2 -1 5 11 3 4 2 0
1532261134985143 0 -1 6 5 2 0 -1 1
1532261135068919 3 4 -10 0 3 2 -2 1
1532261135114796 -3 1 -40 -9 -5 -2 0 -2
1532261135166672 -1 0 12 6 3 0 -1 -2
1532261135233479 -1 2 -20 0 -1 -1 -1 -1
1532261135270381 -3 -8 -52 -10 -4 0 -1 -4
1532261135353158 -1 7 27 1 -3 -2 -1 -1
1532261135391057 0 4 -4 0 3 1 2 1
1532261135465857 -1 2 0 -6 0 0 0 0
1532261135525696 -2 -1 -1 1 -1 0 0 -2
1532261135630417 1 2 -77 16 3 -1 0 0
1532261135660337 -2 -15 -7 -4 -4 -3 0 -1
1532261135683275 -3 2 12 -4 -4 -1 -2 -3
1532261135713196 4 3 -17 -7 -2 -1 0 2
1532261135743115 0 37 97 4 -4 -2 -1 5
1532261135781015 -6 -18 6 -6 -7 -12 -28 71
1532261135855814 6 6 -42 -2 -5 -2 1 11
1532261135902688 4 -9 51 2 5 2 2 0
1532261135922635 -3 -2 15 -2 -8 -2 -5 1
1532261135945574 2 4 28 -1 -4 -6 0 -4
1532261135960534 -7 3 25 -9 -6 -2 2 3
1532261136020375 -2 -2 -8 3 -1 -6 -1 2
1532261136095174 5 -3 -8 6 4 3 -1 -1
1532261136207873 1 19 17 1 -1 0 0 -1
1532261136283680 2 26 12 6 -5 -4 -1 -4
1532261136328550 -3 -9 -3 -4 1 0 -1 1
1532261136395372 -2 -3 -4 -3 2 3 1 -3
1532261136449227 0 -9 0 -23 -14 -4 -2 1
1532261136493110 -1 -3 -2 16 4 -1 1 0
1532261136523030 1 0 -3 -29 -4 -1 -2 -1
1532261136597829 -1 -8 0 0 6 2 2 0
1532261136785329 14 12 5 -4 -6 -5 -26 4
1532261136838187 -10 1 9 2 -2 0 7 -2
1532261136876086 15 2 24 4 -2 -6 0 -7
1532261136965845 8 5 6 -4 -3 -8 -22 -16
1532261137010726 29 9 -4 -3 3 2 2 3
1532261137041643 -9 -9 -7 -4 -4 -6 -28 -1
1532261137070566 87 17 4 2 1 -13 -30 27
1532261137175286 3 -20 -11 -5 -3 4 56 0
1532261137377744 -34 9 25 -1 -5 -7 -15 -7
1532261137430603 -6 -4 -21 1 -1 -4 2 -1
1532261137453557 16 3 2 16 1 -5 -46 0
1532261137483461 -2 -4 5 -8 3 0 8 -4
1532261137560258 -12 64 -29 -36 -12 -9 -10 -18
1532261137603142 1 -38 6 12 1 -2 2 1
1532261137633061 -3 -32 -4 -3 -2 -1 -22 -7
1532261137670966 0 127 6 1 -2 3 29 4
1532261137752742 -4 -22 9 6 0 1 -2 -1
1532261137820560 2 -27 -12 -11 -3 -5 -29 0
1532261137880400 7 -11 -4 1 -6 -11 17 -3
1532261137925280 -4 38 9 -6 -7 -7 30 2
1532261137970160 -5 -6 19 3 0 4 13 1
1532261138067899 4 -35 46 8 5 -3 -17 0
1532261138114774 -11 -7 -14 -8 -4 -7 -36 -4
1532261138136715 -5 -11 -29 -13 -2 -9 32 -2
1532261138157659 2 22 38 3 0 -5 16 -4
1532261138180598 1 -16 8 -2 -4 -3 -12 1
1532261138225478 -1 -14 1 0 1 11 -50 -10
1532261138256395 6 -25 -8 -2 -3 -14 17 0
1532261138315237 5 25 2 3 2 47 -95 -6
1532261138338176 -4 -27 -19 -8 -5 -41 13 0
1532261138376075 6 -1 -5 -2 1 3 17 9
1532261138398015 1 -17 -2 -1 1 1 -8 0
1532261138420955 0 5 3 0 -3 17 13 3
1532261138472819 -4 0 -2 -6 -1 4 -12 -4
1532261138488782 -1 29 -1 0 4 9 -12 1
1532261138525675 -5 -20 -5 -5 -4 10 5 -1
1532261138570555 2 33 25 2 2 13 7 1
1532261138638374 1 32 16 11 3 -1 1 -1
1532261138653333 -6 11 1 -10 -3 -3 -2 -4
1532261138720155 2 0 13 3 -4 -47 -61 -25
1532261138773013 -25 -21 0 0 -1 3 2 -1
1532261138817893 23 10 -4 -6 -2 3 8 12
1532261138862774 18 -1 9 3 1 -4 -32 -4
1532261138945552 -5 0 -1 24 10 5 12 0
1532261138984448 -3 -11 10 -19 -8 -3 1 1
1532261139013370 18 5 -14 -2 7 4 -4 2
1532261139058250 9 19 42 -6 1 3 12 2
1532261139126069 -6 24 -51 6 0 -3 -4 -6
1532261139192890 18 11 -24 2 -1 -1 3 17
1532261139267690 8 24 6 1 0 -2 13 -7
1532261139313567 -59 -25 -12 -3 -2 3 23 -20
1532261139374407 41 -1 4 63 27 8 -10 -9
1532261139434245 12 -24 -128 -37 -8 -2 -4 -5
1532261139478128 7 -31 5 -1 -4 -1 -6 -2
1532261139545947 -29 -18 7 -1 0 0 -13 -41
1532261139567888 31 -8 8 1 -1 -12 -16 -70
1532261139612767 9 -4 -10 2 0 2 -2 15
1532261139657647 -19 10 8 -6 -6 -1 -10 -57
1532261139673605 -33 -7 -7 -5 -2 -4 -19 -24
1532261139710506 -21 25 -16 -9 2 3 -3 -8
1532261139756397 -5 11 -13 10 -2 1 -3 -9
1532261139779329 -16 2 87 -41 -14 -5 -1 -12
1532261139808245 -11 -9 73 14 5 -1 -4 -7
1532261139838164 13 -1 -85 -7 -7 -3 -3 -6
1532261139883045 -11 8 -80 9 5 1 -2 -4
1532261139905984 2 -5 34 11 2 1 -2 -1
1532261140002725 43 -7 1 8 5 4 8 -8
1532261140025664 3 -1 27 7 5 0 0 -56
1532261140048616 -38 22 -8 0 4 -1 -20 30
1532261140079535 -16 33 18 6 1 14 7 -5
1532261140094480 24 -39 -1 3 4 -1 9 28
1532261140108442 2 11 13 4 3 5 -10 -43
1532261140138365 -9 0 4 -1 -1 -4 -3 0
1532261140168282 -17 -14 -20 -15 -7 -7 1 52
1532261140205201 12 7 12 5 0 2 7 30
1532261140266021 4 2 -21 16 1 2 7 -5
1532261140302922 -4 -22 -55 -31 -3 -8 -12 -16
1532261140347802 2 17 3 32 -1 3 -2 -1
1532261140371738 4 10 -10 2 5 6 4 2
1532261140407642 -11 0 39 17 2 1 -4 -5
1532261140445541 27 57 82 -5 0 -6 -19 6
1532261140550261 -3 -32 -105 -7 2 6 24 3
1532261140573200 6 14 50 -15 4 6 -12 0
1532261140595141 2 -32 0 35 8 0 -18 9
1532261140635034 -3 -68 -19 17 7 0 -4 -2
1532261140655978 -2 -34 17 -15 -1 -6 -24 11
1532261140760698 -4 45 7 -4 -1 -2 -75 15
1532261140828526 -78 -43 -62 25 6 -4 -22 -22
1532261140858436 -4 37 50 98 17 10 -10 2
1532261140895338 12 22 -24 -40 -4 -2 -8 6
1532261141030975 -3 16 0 3 8 8 -41 -7
1532261141082836 -21 -15 -5 52 14 2 -3 -13
1532261141158635 1 7 -27 -24 -3 4 19 3
1532261141189552 13 -5 31 -1 -3 1 55 -22
1532261141255375 11 -43 16 -8 -4 1 -21 -19
1532261141293281 9 5 -3 2 1 -9 -1 -16
1532261141338160 16 24 22 -23 -1 3 -10 31
1532261141361104 -8 -11 -23 23 25 -3 -15 16
1532261141405980 -22 -71 -48 -16 4 11 28 -4
1532261141444875 12 39 45 -20 -7 1 15 2
1532261141457840 8 36 58 31 13 4 7 10
1532261141532641 -2 -46 -17 14 4 0 4 -50
1532261141585500 -3 9 -8 9 1 -3 -26 -18
1532261141683238 -4 -14 -18 -24 -17 -10 -40 -10
1532261141766016 0 -22 -17 -30 -5 0 25 3
1532261141795936 -2 -23 -73 2 -5 -3 -11 1
1532261141855776 4 -20 -66 17 5 1 -4 2
1532261141930576 8 -5 8 3 3 -1 59 -3
1532261141975457 8 -14 -21 41 14 9 12 -8
1532261141998395 -3 -55 -38 -9 6 -2 -28 3
1532261142043275 -32 -33 -11 -46 -14 -5 -7 -10
1532261142110096 -8 1 35 28 6 3 -16 2
1532261142237755 9 3 -8 3 2 1 -3 1
1532261142403321 -3 -14 -4 -3 0 -4 -1 -2
1532261142530971 -4 -36 -16 2 -1 -1 -1 -1
1532261142591817 1 -2 -2 6 -5 -3 -2 0
1532261142620731 0 -4 -24 -10 -4 0 -1 -1
1532261142635691 -3 -6 -33 5 3 1 2 0
1532261142650652 0 -2 5 -5 -4 -2 -1 0
1532261142725451 1 5 -18 -2 1 -1 0 -1
1532261142770330 3 -11 4 1 -3 -3 5 17

1532261142869067 3 20 38 45 5 -5 -7 3
1532261142891008 4 15 16 -18 -11 3 -3 0
1532261142914944 -1 -3 -18 20 6 2 -1 -8
1532261142957829 0 -25 -10 -3 -2 1 -4 -4
1532261143109425 3 -6 -14 -7 0 0 4 11
1532261143132363 -3 1 7 -8 -3 0 -2 -3
1532261143160288 2 13 3 0 0 4 3 -3
1532261143236093 3 11 79 5 -2 -5 -1 8
1532261143287955 -1 -5 -10 -2 0 -3 -2 -1
1532261143355774 2 1 -25 -1 -3 -4 -3 -1
1532261143370734 -5 -2 41 2 1 5 -1 -7
1532261143409630 2 8 29 -2 0 0 0 0
1532261143445534 4 3 5 1 0 3 -1 12
1532261143490414 0 -5 -12 2 3 -1 0 2
1532261143513353 2 -14 -27 -5 -4 -4 1 -1
1532261143543273 2 0 -12 -7 -5 0 1 3
1532261143580173 2 0 11 -1 -3 -5 2 10
1532261143629043 2 -5 -18 0 1 1 -1 1
1532261143647993 -1 -12 17 0 2 -6 -4 -3
1532261143664946 -1 9 10 2 1 0 -1 -3
1532261143694867 2 0 1 0 0 0 0 7
1532261143707832 1 1 3 2 -1 0 1 2
1532261143737752 -1 -2 -7 -2 0 1 -1 -7
1532261143813550 5 0 30 -3 -3 -4 -2 -2
1532261143843470 0 1 6 -1 -1 -3 -1 0
1532261143888350 2 1 6 -1 -3 -1 0 0
1532261143903343 -2 4 3 1 1 -1 -3 -8
1532261143955233 0 6 9 1 6 1 0 -1
1532261143986122 1 0 5 0 1 0 -1 0
1532261144046959 1 2 4 0 -1 1 -2 -2
1532261144075882 -1 1 10 1 0 -2 0 -2
1532261144120762 1 -5 3 -1 0 0 0 1
1532261144150682 1 0 -7 -2 -1 0 0 -1
1532261144240442 0 -5 -15 -1 1 2 -3 -2
1532261144278341 4 -9 -34 -1 1 0 -1 2
1532261144300282 -3 -10 -19 -1 -2 -2 0 -1
1532261144353141 -2 17 76 1 0 -2 -2 -2
1532261144427940 0 -9 -39 -1 -2 0 -1 -1
1532261144497754 3 -2 5 0 2 1 2 -2
1532261144534655 -1 8 -46 1 0 -4 0 1
1532261144555599 -18 9 70 6 3 -8 -4 -15
1532261144623418 -2 1 3 -1 -3 -31 -10 -32
1532261144653339 25 5 -13 -4 -7 31 -33 99
1532261144690239 1 -33 -9 -5 0 -12 11 4
1532261144736117 -2 11 39 -1 -5 11 3 2
1532261144774030 1 3 15 4 1 0 0 -4
1532261144787978 1 6 29 8 0 1 6 1
1532261144810916 0 -4 -15 -2 -2 2 -5 -5
1532261144870757 3 2 3 -4 -3 -1 -3 1
1532261144900676 -1 -1 -7 3 0 3 1 -1
1532261144975476 -1 -3 -14 -2 -2 -1 -4 -1
1532261145035316 0 -1 0 -2 0 -3 -1 0
1532261145096154 -5 -10 9 -23 -10 -2 -1 -2
1532261145155994 -2 -14 25 -26 -12 -2 -2 -2
1532261145177935 -2 -1 -6 -4 3 -4 -1 -2
1532261145245754 0 2 4 12 13 5 1 0
1532261145358452 -3 -2 -4 -4 -5 -1 1 2
1532261145448212 -9 -12 -8 -5 3 0 -4 -5
1532261145501070 -2 -2 -5 4 3 0 -1 -1
1532261145523012 -14 -27 -35 -22 -6 -3 -3 -5
1532261145597812 8 -2 -1 -2 -2 -4 -8 -3
1532261145612772 5 13 -7 2 -2 -2 -4 -2
1532261145643690 2 -13 -2 1 -1 -1 0 10
1532261145673610 6 8 3 -5 -4 -2 -1 -6
1532261145710511 -28 -13 -14 -1 2 -1 -7 -4
1532261145755401 16 9 19 3 5 11 -3 56
1532261145808250 -15 16 19 5 1 -4 -3 -6
1532261145853130 2 -18 -13 -2 -5 -8 70 -17
1532261145868089 102 -5 -4 -5 -6 -20 -32 5
1532261145905988 -12 9 20 4 12 -14 -73 -6
1532261145927929 7 8 15 -4 -9 11 -9 28
1532261145980788 -23 17 20 4 -2 2 -51 -48
1532261146010708 -21 -7 -11 0 -3 3 30 -3
1532261146055589 -42 -13 -1 -4 1 2 -35 14
1532261146183247 2 2 -18 -12 -5 -4 -14 -7
1532261146206186 6 2 -6 1 -1 -3 0 1
1532261146243087 1 6 7 5 3 -1 -16 -7
1532261146266025 2 -5 0 -3 1 -2 8 7
1532261146310905 -12 7 16 -4 2 3 15 5
1532261146332846 -1 3 -50 -4 -3 -4 -22 -4
1532261146385705 -5 -10 -4 -14 -5 -2 26 1
1532261146468484 5 -10 3 1 -3 -5 1 1
1532261146483444 2 -10 5 -7 1 4 8 4
1532261146573204 -7 4 -1 -2 -5 -6 1 -3
1532261146618083 2 -4 -12 1 -1 -1 -1 -1
1532261146707844 15 -127 -90 73 13 15 85 29
1532261146739759 -13 -65 -13 -11 3 29 56 -16
1532261146790623 16 51 -16 2 5 2 47 31
1532261146873401 -13 20 35 -18 -17 -10 -20 -20
1532261146927257 -9 -37 -14 -5 -9 -6 -113 -19
1532261146978121 1 1 -2 -4 -2 -12 -25 11
1532261147001059 -10 -34 23 -7 -8 -13 2 -7
1532261147165621 -1 -21 54 -3 0 -3 -11 6
1532261147240420 1 33 39 10 2 6 4 -2
1532261147285300 0 -21 41 -27 -7 11 6 -2
1532261147361096 -9 -7 49 8 9 59 23 -2
1532261147405977 -5 -14 10 -13 -5 26 36 -8
1532261147435897 1 -5 -64 -1 -2 -22 0 2
1532261147472798 -2 -20 6 -19 0 24 -72 0
1532261147495737 7 -3 48 -2 -5 3 31 10
1532261147540617 -12 19 -110 -5 -2 -1 26 0
1532261147593476 -4 -54 8 -4 -3 -7 3 -4
1532261147615417 1 95 16 -4 -4 -12 0 0
1532261147660296 1 -12 1 -8 -2 -14 6 -2
1532261147683236 -4 -45 -12 -9 -5 -8 3 -3
1532261147772996 -6 13 -8 -2 -2 -9 1 1
1532261147817875 -34 -50 -24 -6 -7 -22 9 20
1532261147849790 4 -1 13 8 8 -6 2 4
1532261147877715 51 11 -1 0 8 0 2 23
1532261147900654 -36 6 -46 -10 -5 23 -2 -13
1532261147960494 31 2 -13 -6 -4 -11 -11 -9
1532261147998392 39 12 -7 -2 0 1 10 14
1532261148095134 -21 14 -65 -27 -11 -2 -2 -7
1532261148127049 -10 0 7 17 7 -1 -4 -5
1532261148170932 -7 -21 18 17 1 -3 1 9
1532261148388350 -13 -40 -33 111 31 -5 2 -7
1532261148426249 -31 43 67 -61 -15 1 -1 -13
1532261148448189 3 -6 -128 16 4 3 -1 1
1532261148501049 -1 -3 13 -2 2 4 -21 -40
1532261148575849 -30 0 -2 0 -1 49 -9 -26
1532261148696526 -1 30 24 62 2 3 0 -5
1532261148718467 15 11 -8 23 14 6 7 -8
1532261148741406 7 -10 -26 -34 -19 -11 3 -1
1532261148793267 -7 -12 -16 -10 -3 0 3 6
1532261148883027 -5 -19 -77 -35 -9 -4 -1 -2
1532261148980766 -22 -75 9 -2 0 -6 -29 -116
1532261149017667 19 -107 -4 3 2 5 -55 24
1532261149117400 34 46 4 -2 -7 3 -9 -14
1532261149153304 22 2 6 3 1 11 20 29
1532261149175246 -1 -23 -1 -1 -1 -4 -11 19
1532261149220126 -11 -26 -97 -16 7 -28 -80 -12
1532261149259022 -3 -14 -2 -13 1 4 1 -1
1532261149280963 0 9 -8 34 10 -12 -8 -10
1532261149302904 -5 -25 -29 -26 -2 2 22 11
1532261149347785 3 4 8 -12 -9 -13 -23 0
1532261149370723 -10 -23 14 -2 -1 2 11 -6
1532261149438541 -4 27 49 62 12 3 7 6
1532261149475443 -12 -2 -18 83 32 4 -20 -37
1532261149543262 -1 9 3 -45 -10 4 21 3
1532261149580163 20 27 -69 72 13 0 44 10
1532261149692861 8 27 4 -4 1 3 -65 -1
1532261149730760 -11 -66 41 -30 0 4 14 1
1532261149767661 -8 -21 0 -29 -3 3 28 -13
1532261149798590 -37 -66 -39 -71 -25 -11 -11 -22
1532261149835481 0 32 5 8 -2 -5 13 -5
1532261149963139 12 23 -5 66 14 7 9 6
1532261150052899 -21 -8 2 -1 -4 -3 127 32
1532261150069854 -1 -7 -4 -26 -17 -5 -28 6
1532261150090798 59 54 42 51 21 4 11 55
1532261150112739 -26 -11 7 4 5 1 -13 -6
1532261150135677 39 74 91 -26 -11 -4 -15 11
1532261150157619 -9 -11 -4 -23 -17 -8 -25 -9
1532261150195517 22 5 4 79 13 4 -4 15
1532261150240406 -2 -46 -2 -46 -2 4 11 5
1532261150347112 5 -10 -11 5 -2 -9 93 -31
1532261150383016 -53 -84 -2 15 3 -5 -40 0
1532261150405954 23 34 26 -56 -11 -1 10 6
1532261150465795 -9 -6 -17 -28 -9 -4 14 7
1532261150563534 17 14 2 -8 -2 0 12 2
1532261150638333 -43 -39 -23 3 6 6 -18 6
1532261150660275 26 25 17 1 -1 -2 0 10
1532261150683213 7 48 -3 17 15 8 28 -8
1532261150713133 -8 -62 -11 -14 -7 -4 40 -1
1532261150743054 28 2 58 -42 -5 7 8 19
1532261150780952 7 13 12 -7 -5 -2 -16 -1
1532261150817853 -16 -12 1 -30 -4 0 0 2
1532261150840793 3 1 71 -13 -8 -3 -2 -1
1532261150907613 -16 -8 -30 -11 -2 -4 -34 -2
1532261150923588 -11 -5 3 -3 -3 -4 -18 -15
1532261150945512 12 -9 30 -5 -7 -2 27 14
1532261150975431 2 -1 9 1 -4 2 44 9
1532261150998370 4 -2 5 -15 -1 -4 -29 2
1532261151020312 -16 -10 -8 5 -6 -11 -32 -8
1532261151050232 10 6 18 8 -3 0 21 -6
1532261151156947 4 -7 14 4 0 -2 -4 -1
1532261151194845 -3 27 -9 -8 -5 -4 1 0
1532261151215789 2 -2 2 11 1 2 1 -2
1532261151237730 1 -25 -4 0 1 6 3 1
1532261151260670 -7 -55 1 0 -3 -6 -1 -3
1532261151298568 2 3 4 -7 -2 0 -1 -1
1532261151380348 0 11 9 1 -1 3 0 1
1532261151463127 0 3 39 8 3 -1 1 1
1532261151501026 -3 -17 -8 -7 -4 0 -1 -2
1532261151530946 -1 21 19 17 -3 1 -1 -3
1532261151605746 2 17 38 -4 -4 -3 -5 0
1532261151650635 2 -9 -45 0 1 1 3 2
1532261151734402 5 -79 -73 -3 2 23 -2 33
1532261151757341 -2 72 -110 1 7 -12 7 -38
1532261151778285 -7 -66 98 -61 -5 8 -15 -35
1532261151800227 5 -35 -57 22 27 8 9 -13

1532261151905944 3 4 -53 17 2 5 2 -27
1532261151965784 -1 0 -33 9 0 0 0 -1
1532261152032604 -2 -8 -1 -18 -4 -3 -2 -4
1532261152063522 -2 2 0 -1 -3 -1 1 -8
1532261152078482 2 2 9 -3 -2 3 2 5
1532261152100424 1 0 -1 -5 -3 -6 -3 -3
1532261152138322 2 0 0 3 0 0 -1 0
1532261152190184 1 -8 -45 1 0 0 0 2
1532261152236078 -2 3 7 -1 -1 -3 -3 -2
1532261152258002 -1 -5 -6 -2 2 4 -1 0
1532261152415581 1 6 12 -3 -2 -3 -1 0
1532261152438525 -2 -7 -2 0 0 0 2 -2
1532261152475421 0 3 0 4 1 -2 -1 -2
1532261152505341 1 2 0 -1 -2 -2 0 0
1532261152558200 1 3 1 -1 -2 4 -2 -1
1532261152611058 -1 1 5 2 0 -2 -3 -2
1532261152647959 -1 1 1 -2 -2 0 -1 1
1532261152782599 0 5 36 0 -2 -3 1 2
1532261152805553 2 -4 7 3 3 1 0 0
1532261152822493 0 5 33 0 0 1 -2 -2
1532261152880338 -3 17 16 10 -1 -1 0 0
1532261152925218 3 13 33 3 -4 -9 -5 8
1532261153015986 0 -2 5 2 4 14 -5 9
1532261153037917 2 -23 -29 19 8 -3 6 1
1532261153052887 4 6 -101 14 -2 3 0 0
1532261153099751 1 2 -1 -7 -2 -1 1 -1
1532261153122690 -3 -9 2 0 -2 -5 -4 19
1532261153150615 2 -4 -24 -2 -2 1 -1 0
1532261153233394 -1 3 15 6 2 -1 1 -3
1532261153300225 1 3 28 0 1 3 -1 -3
1532261153390972 -2 2 -18 -1 -2 0 -1 -3
1532261153435853 -1 1 -7 9 1 -1 0 0
1532261153480733 1 -4 -11 21 4 -1 0 1
1532261153540573 -1 2 3 3 -4 0 3 1
1532261153570492 1 -1 -4 17 6 1 1 1
1532261153638319 0 2 12 2 -3 -3 0 -1
1532261153668230 -1 -1 3 -5 0 -2 0 -1
1532261153692167 8 3 7 -2 4 2 30 7
1532261153705172 16 -11 -12 -19 -6 0 -10 13
1532261153736050 -41 1 -30 4 -4 -7 -12 -11
1532261153757991 25 7 5 2 0 3 -8 12
1532261153825810 -11 -8 11 3 1 1 -11 -8
1532261153855730 4 12 15 6 4 8 16 -13
1532261153938508 21 21 25 7 1 -1 -17 3
1532261153960450 -24 -7 -10 -4 -2 0 -18 -5
1532261153998348 -8 -2 -11 -8 -6 -7 -15 -11
1532261154066166 -5 17 12 11 5 3 44 19
1532261154162908 -18 0 -3 -3 -2 13 28 -12
1532261154222749 11 5 -2 -2 -3 -8 15 9
1532261154260646 -116 -33 0 -3 1 -6 16 -11
1532261154335447 28 9 -7 5 4 15 -72 -5
1532261154418226 -51 10 118 0 3 -2 29 -22
1532261154493026 -4 2 22 -7 1 -7 -10 1
1532261154552874 28 -7 6 -1 3 6 -3 10
1532261154575804 9 -5 17 -12 -3 -7 -8 1
1532261154658589 4 47 72 -6 -2 -6 15 5
1532261154742359 8 -8 7 -8 -5 -23 93 18
1532261154846081 -1 1 8 5 4 6 0 -3
1532261154861042 -2 19 1 -4 1 3 22 -3
1532261154942822 6 11 -78 5 4 6 -9 7
1532261155025601 3 8 85 3 1 -7 -33 -3
1532261155055522 -6 2 -24 -6 -2 -6 1 -2
1532261155078460 3 -27 -47 -1 0 -3 -24 4
1532261155130321 11 16 -5 4 6 17 12 6
1532261155183180 -4 8 -42 9 4 17 106 10
1532261155243020 5 15 50 1 4 7 15 2
1532261155287900 -5 -11 -15 -3 2 0 -13 8
1532261155317819 2 -5 -3 -12 0 21 -3 -1
1532261155355718 7 -14 -15 -21 -6 11 -50 -13
1532261155377660 -9 -2 -11 20 1 -18 53 7
1532261155453457 3 -2 11 -11 1 -14 10 6
1532261155490359 -8 -12 -5 -1 1 -25 -9 -5
1532261155633975 1 13 -4 -7 -3 -9 -3 0
1532261155685836 2 32 9 2 0 0 6 1
1532261155798535 11 18 8 3 3 3 3 4
1532261155850396 -6 -9 -7 0 1 13 1 8
1532261155955116 12 10 15 2 -1 -7 0 2
1532261156007974 47 13 7 1 -2 3 5 7
1532261156097734 -3 -6 -4 0 -1 -2 2 -7
1532261156210433 -1 1 12 -7 -3 -2 -6 -13
1532261156225393 2 -8 -5 -20 -9 -4 -5 -9
1532261156308172 -3 -15 -35 0 0 -1 0 -1
1532261156368012 -4 66 -41 28 3 1 0 -2
1532261156420870 7 36 -22 2 3 3 4 10
1532261156457772 21 37 -11 3 1 0 2 4
1532261156495670 -44 0 -10 1 2 0 8 7
1532261156548529 8 -14 0 -5 -3 -2 -1 -3
1532261156653249 2 -15 11 -27 -2 -1 1 6
1532261156698129 -16 15 -44 -22 -16 -5 -6 -7
1532261156713088 14 28 17 14 2 3 4 10
1532261156737025 -6 15 114 -15 -4 -2 -1 -1
1532261156750987 17 26 8 11 -1 -1 1 1
1532261156780908 10 6 -18 5 -2 -4 -2 -2
1532261156832769 -37 -107 4 -5 -4 -2 -8 31
1532261156855707 -13 16 1 3 2 2 -7 -8
1532261157013286 6 -17 -33 13 14 3 6 3
1532261157043206 4 2 39 19 -4 3 1 -2
1532261157066149 7 4 56 6 4 3 1 2
1532261157081114 20 14 81 19 7 0 0 6
1532261157140945 2 0 47 -8 -2 0 -1 -5
1532261157238684 6 -13 -25 33 24 6 -2 0
1532261157267606 3 5 -23 -28 -10 -5 -4 0
1532261157284561 -30 -42 -7 -4 -7 -1 6 12
1532261157299520 -1 -19 17 -3 5 5 35 -26
1532261157320465 -8 -19 -8 -8 -4 0 -12 -47
1532261157350385 4 -36 -6 -4 2 1 -10 4
1532261157388284 -40 32 -4 -8 -4 -4 -9 -64
1532261157433163 7 -9 -1 4 11 -1 2 4
1532261157478043 -3 14 -4 0 -7 0 -4 -3
1532261157582763 1 -1 -4 -1 -4 -2 1 -3
1532261157605702 2 0 2 3 -5 2 0 1
1532261157629638 0 2 2 -6 -4 -1 -1 0
1532261157688482 5 10 6 -3 -1 -2 2 3
1532261157733361 0 -1 -3 13 8 5 -1 -4
1532261157795195 -10 -10 -13 -7 -1 0 -16 -10
1532261157815142 5 6 6 -13 5 2 -16 3
1532261157899915 -8 -10 -3 36 7 0 12 -2
1532261157927840 -2 11 -28 5 4 3 -6 1
1532261157950779 8 1 3 0 -3 -5 34 5
1532261158040539 6 6 60 12 5 2 30 7
1532261158160219 3 28 -10 -6 -4 0 0 28
1532261158183158 -19 -6 -10 -7 0 2 33 -23
1532261158347718 -6 -4 -112 9 -14 2 -15 10
1532261158377638 4 -13 -5 -25 3 1 10 3
1532261158400577 13 0 86 -12 -2 3 -17 0
1532261158430496 9 -35 -38 3 -1 -2 3 42
1532261158475376 -22 -13 -29 -4 -5 -7 1 -45
1532261158543195 13 -2 -20 1 -2 0 9 25
1532261158581093 -20 -46 7 -42 -17 -6 -20 -9
1532261158647915 1 -10 31 -4 -4 1 -4 4
1532261158686810 5 90 40 6 -3 -2 -13 -1
1532261158730694 -11 -128 -29 12 11 13 17 3
1532261158752635 -4 -24 -2 16 4 6 10 -8
1532261158798512 -4 4 8 -1 2 -7 -36 -8
1532261158865334 10 -23 31 40 12 13 68 20
1532261158918193 2 3 -48 -23 0 5 13 -9
1532261158964069 -11 -2 60 -17 -5 -3 9 -2
1532261158978032 -1 14 77 4 8 6 -41 2
1532261159000971 12 28 15 -9 0 -3 -15 -8
1532261159030890 -4 -16 -88 -11 -3 -5 -3 -8
1532261159060811 8 64 57 5 -2 -2 10 10
1532261159143589 -11 38 9 -15 -2 3 -37 -4
1532261159263269 -1 -34 7 -2 -14 -10 16 -6
1532261159293190 6 3 -29 -30 -6 -4 -7 -2
1532261159331088 -3 32 38 22 4 -2 -8 0
1532261159405888 -4 13 56 17 8 4 2 16
1532261159442789 -23 -53 -59 -6 -3 -2 1 -5
1532261159525568 6 -16 24 27 -3 -8 -6 -2
1532261159585407 -10 -23 -46 -33 -12 -5 -5 -3
1532261159668187 2 4 4 12 -1 -1 -10 -4
1532261159742987 -15 -27 7 -6 -5 -9 -2 4
1532261159780892 12 -1 1 7 2 0 -10 19
1532261159825766 4 61 6 -1 -1 -1 -6 -8
1532261159862667 12 86 86 -15 -4 -3 4 15
1532261160065125 3 32 -25 -25 0 2 1 3
1532261160117984 2 -1 1 -1 3 -1 0 2
1532261160162863 -1 8 24 -10 -5 -2 1 9
1532261160185816 -4 57 27 -4 -8 -9 5 -33

1532261160350362 2 6 -29 -10 1 0 -2 -1
1532261160373301 -2 9 3 45 16 3 -3 -2
1532261160478021 -4 15 45 -1 -1 -2 -2 0
1532261160509936 -2 -10 -6 -14 -4 0 -1 3
1532261160605768 -4 -63 -7 4 4 1 2 -1
1532261160629704 -2 9 35 1 2 -3 -1 -11
1532261160650648 2 9 -9 -4 3 2 -1 0
1532261160680568 0 2 -10 3 2 -4 -3 2
1532261160718489 1 22 -13 0 -2 0 0 1
1532261160823600 2 3 12 0 -3 0 0 1
1532261160875449 -4 1 -2 0 -1 -4 -1 -2
1532261160928308 1 -3 -14 -3 1 1 0 0
1532261160950250 -1 -1 -6 -2 0 -1 0 1
1532261161026047 0 0 4 -1 -1 -2 -1 -1
1532261161085887 -1 -13 -23 -2 2 -2 -2 -1
1532261161184623 -1 1 -11 -2 0 1 -1 2
1532261161205582 -2 -1 10 1 2 0 -3 -1
1532261161228514 0 2 0 3 1 1 0 0
1532261161250446 1 1 8 3 0 -2 2 0
1532261161318266 -1 1 1 -3 0 0 1 -1
1532261161416003 0 -5 2 0 -1 -1 0 -1
1532261161461882 0 -1 0 -1 -2 -1 2 1
1532261161535684 -1 0 -6 1 1 -1 0 -3
1532261161558623 -3 5 6 -1 1 -2 0 0
1532261161640404 0 -2 -1 -1 -1 -1 1 -1
1532261161725178 0 -2 -2 0 -1 -2 0 -3
1532261161776041 -2 -2 6 -6 0 -1 -2 -1
1532261161797983 -1 -3 7 0 0 0 1 0
1532261161842863 -2 -2 -4 0 -1 0 -1 -1
1532261162002436 -2 1 0 -2 -2 -1 -3 0
1532261162488136 -2 3 -1 0 1 -2 2 0
1532261162571914 1 -1 -3 -4 -2 -2 -2 0
1532261162615796 -1 8 11 1 -1 -3 0 -2
1532261162668655 -3 -1 0 -4 1 -1 0 -1
1532261162705555 0 6 -1 0 -1 -1 3 1
1532261162758414 0 -1 36 -1 -1 -1 0 0
1532261162795327 -4 -13 -24 -9 -3 -3 -2 -2
1532261162810276 -1 -10 -51 1 -6 -11 -11 0
1532261162833224 -2 -5 -12 -3 -1 2 -1 -1
1532261162849172 0 1 3 3 4 10 5 1
1532261162886073 5 3 -4 4 5 17 20 8
1532261162967854 14 21 -10 1 9 -29 17 38
1532261163012738 12 41 12 8 8 17 26 3
1532261163155369 -2 -32 2 37 10 0 -1 1
1532261163254089 -1 6 16 -2 -2 -1 -1 -3
1532261163283012 1 -3 10 -1 -3 1 0 -1
1532261163312931 -1 3 15 3 0 1 -2 0
1532261163344847 1 7 -10 3 -4 -4 0 -2
1532261163380750 0 -1 2 -5 -4 0 1 0
1532261163410670 -1 2 10 -6 0 1 0 -2
1532261163448569 -8 -10 -6 -21 -4 -4 -2 -5
1532261163515390 0 -2 -2 0 2 1 -1 -4
1532261163636075 1 -1 4 -7 -3 -1 -1 0
1532261163651028 -6 -13 -9 -17 -10 -6 -3 -1
1532261163710868 -3 4 16 7 6 -8 3 11
1532261163747769 14 21 33 2 1 -1 3 6
1532261163838526 -23 5 3 1 -1 9 15 -21
1532261163950228 -19 5 1 3 6 1 2 1
1532261163980148 21 5 1 -3 -5 -4 25 -1
1532261164033005 -18 -2 -9 -3 -1 1 -11 -2
1532261164055945 -32 -15 7 -3 -7 -9 12 -13
1532261164092846 64 28 7 5 5 11 50 35
1532261164213524 -9 25 3 -3 -1 8 66 15
1532261164237459 51 -12 14 -2 1 10 26 31
1532261164282339 30 8 1 3 2 -16 -49 -13
1532261164295304 10 -2 -9 -8 -5 4 -63 6
1532261164333204 2 -7 -3 6 7 5 29 21
1532261164378083 49 -13 -17 -4 -4 -7 33 7
1532261164445902 15 -4 -22 -3 0 -7 -14 8
1532261164467842 -2 20 -42 -15 -5 -2 -8 1
1532261164482803 8 21 -6 6 3 -1 -14 5
1532261164514718 14 -1 63 0 3 5 49 4
1532261164527683 -7 52 -6 -9 -6 -2 -9 -5
1532261164580541 10 40 -6 13 10 3 -24 7
1532261164610462 16 127 31 5 2 9 20 12
1532261164738135 -1 18 -14 -4 -2 0 79 10
1532261164797961 -6 9 59 2 0 0 29 -10
1532261164857801 2 -17 -61 -22 -11 3 44 8
1532261165032333 -8 3 6 12 2 -1 5 -14
1532261165060259 0 20 26 8 12 17 11 -1
1532261165113118 -4 -10 31 -3 0 -3 24 -2
1532261165180936 6 10 43 14 4 -1 3 7
1532261165210872 -2 7 -16 -10 -6 0 31 3
1532261165232798 -1 -44 83 3 0 -12 4 -1
1532261165292638 0 15 57 4 2 -21 -22 -1
1532261165323555 1 -74 -4 2 -1 -4 46 -4
1532261165345496 1 41 -5 -2 -2 -32 3 4
1532261165368435 -6 -4 -18 0 1 12 3 3
1532261165413314 7 1 -6 0 -1 -14 3 1
1532261165467171 0 1 -14 0 -1 -7 -4 -1
1532261165503075 -5 -25 -32 -10 -2 3 3 -2
1532261165592835 -3 1 4 -6 -1 1 4 5
1532261165637715 3 -7 1 -7 -5 -12 -5 3
1532261165667634 -19 -3 5 -1 2 6 13 27
1532261165698552 30 -4 -13 -3 0 5 -2 -4
1532261165743432 -34 -3 8 -1 0 -3 -4 -12
1532261165788312 25 5 2 -1 0 12 1 2
1532261165825214 -26 5 4 2 0 -2 1 -5
1532261165871100 -55 8 14 9 4 3 -2 -12
1532261165893032 13 -6 7 2 -3 -1 3 14
1532261165907992 -12 -10 -65 -5 3 -1 -2 2
1532261165960851 2 -14 -77 -46 -16 -7 -4 -3
1532261166012712 13 12 -3 -10 -6 -1 1 -3
1532261166058589 -5 -1 -70 -26 -6 -2 -2 -3
1532261166193229 -3 -2 -2 -8 -3 -6 3 -24
1532261166215170 -13 -17 2 2 1 -3 -7 -11
1532261166290968 8 5 7 -39 -10 2 0 -8
1532261166402669 -9 -22 -44 13 3 1 1 4
1532261166448546 1 -25 17 -7 -3 -2 -3 -12
1532261166485447 6 42 9 -11 -6 -2 -6 105
1532261166508386 10 -11 17 3 -2 -1 -5 54
1532261166598147 -20 24 -4 5 2 -13 -13 -35
1532261166672957 1 14 64 74 48 11 8 6
1532261166702867 -23 48 103 -15 -8 -1 0 -6
1532261166719821 17 -26 21 -43 -11 -3 1 10
1532261166755725 -13 -18 10 -9 -2 -1 -4 -12
1532261166800605 7 7 50 8 2 2 1 -1
1532261166875405 5 -6 -54 -16 0 -3 -5 -3
1532261166975139 0 30 -8 -2 -4 -1 0 38
1532261166996083 8 0 3 0 0 -1 -21 -52
1532261167013037 2 -5 -2 -2 -5 -16 21 28
1532261167040963 3 -37 -5 0 -1 -20 -15 -29
1532261167062911 -9 -8 -1 2 0 15 30 50
1532261167100803 -13 0 -1 -1 -1 7 13 -11
1532261167130722 8 15 3 5 -2 -4 4 24
1532261167274363 0 2 8 -29 -12 -4 -5 -21
1532261167303261 12 10 46 -30 -6 -3 1 10
1532261167318221 -9 -9 -92 -12 -8 -1 -13 9
1532261167388039 -19 -8 19 -7 -5 -1 -23 0
1532261167408979 2 6 16 -6 -1 0 -6 -2
1532261167430920 -16 -6 37 -13 -3 1 -10 -24
1532261167467821 -6 9 -70 66 26 3 31 11
1532261167490759 3 1 -1 35 11 6 5 6
1532261167507721 20 17 9 66 17 6 8 10
1532261167610440 33 94 21 -13 -6 -2 -4 12
1532261167753058 -2 10 -27 -25 -6 1 -16 -9
1532261167835837 -12 -4 2 -25 -6 -7 -52 24
1532261167872739 -35 -21 9 -8 -5 -8 -40 -44
1532261167978456 12 18 24 8 5 1 -8 -7
1532261168128055 9 40 18 3 -6 -5 -66 -4
1532261168150994 -9 -34 -5 15 8 7 -16 -10
1532261168278659 -28 -25 -2 -1 0 -3 -5 -22
1532261168375394 -2 -34 -66 -13 -4 -2 -12 -8
1532261168450194 -4 15 47 17 -5 -15 2 43
1532261168496071 -4 -3 -1 3 1 3 13 42
1532261168562893 10 -23 5 0 1 2 -12 13
1532261168630711 8 2 -45 2 -2 -7 35 -12
1532261168660631 -11 25 96 34 6 -1 -12 -4
1532261168677586 -2 -23 89 -6 -2 3 5 0
1532261168743410 -5 -61 -15 17 -10 -11 -1 -9
1532261168833170 15 30 -20 3 4 4 15 16
1532261168952849 6 19 23 -24 -10 -6 -8 -3
1532261168976786 -1 12 -5 -4 -3 1 -14 1
1532261169050588 -1 46 -15 -31 -6 -4 -6 -4
1532261169110428 1 13 0 -5 -4 -2 -2 0
1532261169232104 -1 13 7 22 4 -1 -3 0
1532261169297927 -4 -8 45 -4 -1 1 0 -3
1532261169344801 6 13 28 25 8 3 2 1
1532261169395666 -5 14 56 79 8 -4 -2 -5
1532261169448525 1 -6 -20 -9 -3 -1 1 1
1532261169515346 2 -5 21 -5 -2 0 0 4
1532261169553244 -13 27 33 2 3 10 -10 -18
1532261169583164 25 -25 -72 11 7 19 -10 -89

1532261169628045 1 24 -8 3 2 6 4 19
1532261169681900 2 2 -25 -24 7 9 6 12
1532261169695862 -4 -10 -37 -4 -5 -1 -5 0
1532261169740743 2 6 33 3 2 -2 -1 -3
1532261169786633 -3 -4 13 35 10 0 -1 0
1532261169815543 -3 -35 -3 -3 -3 -4 -2 -4
1532261169838517 -1 1 -2 -3 -4 -1 0 -3
1532261169943202 -3 5 18 -20 -7 -2 0 -4
1532261170049916 -2 -14 -27 -6 -2 -1 0 0
1532261170063878 0 2 0 3 -2 -3 -1 -1
1532261170092802 0 5 -11 -15 -6 -1 -2 0
1532261170115740 0 -9 3 4 2 -1 1 2
1532261170152642 1 -1 -9 -4 -2 0 -1 -1
1532261170198518 0 -3 -8 1 1 1 -1 0
1532261170220460 0 1 -2 4 -1 0 1 -2
1532261170281298 -1 0 -4 -2 -2 0 0 -2
1532261170310220 1 -3 -7 5 -1 -1 0 1
1532261170373052 -2 6 -14 -2 -2 -1 1 -2
1532261170393014 1 9 -8 -1 1 0 1 0
1532261170408956 0 -1 -16 -3 -4 -2 0 -1
1532261170422919 0 7 27 6 0 -2 -4 1
1532261170535618 1 5 33 10 2 1 0 1
1532261170610434 0 -2 -12 1 -1 0 0 -1
1532261170640354 0 -1 -8 0 -1 -1 -2 -2
1532261170693212 3 11 20 3 3 0 0 1
1532261170715154 0 -16 -2 -3 -2 0 1 -2
1532261170805911 -3 -9 -36 -3 -2 -2 0 2
1532261170835834 -1 3 14 0 1 1 1 0
1532261170872732 -2 -5 -10 -2 -1 0 0 0
1532261170896668 -2 -7 -20 -2 -3 0 -2 -1
1532261170948529 -5 -24 -12 -2 -3 -2 0 -2
1532261170985431 3 12 0 -1 -1 -1 0 2
1532261171038290 -1 7 -9 0 0 2 -1 1
1532261171106109 -1 -5 -59 -6 0 2 -3 1
1532261171180908 -2 -17 12 0 0 -1 -2 -2
1532261171225796 1 -10 -38 -1 1 5 4 2
1532261171315548 1 3 -28 3 -1 1 -1 1
1532261171390349 0 -10 94 8 2 -1 0 -1
1532261171428247 0 -3 -34 5 2 1 -2 -1
1532261171481122 4 -7 -40 -1 0 -4 1 19
1532261171555922 -4 7 16 -5 -9 -52 -20 -16
1532261171579841 -3 -6 39 1 0 -14 6 43
1532261171683564 -2 -3 2 -20 -7 1 0 0
1532261171714482 2 11 -15 -2 2 0 -1 3
1532261171750385 -7 8 -21 1 -2 -2 -1 1
1532261171773324 2 -7 -37 -1 -2 1 -2 0
1532261171803244 -2 -12 -16 2 -1 -2 -1 -1
1532261171863084 1 7 6 -8 1 0 -1 -1
1532261171893005 0 -5 -4 3 1 0 0 -1
1532261171930903 0 -4 7 -6 3 1 0 1
1532261171975783 -2 -6 0 1 -1 0 1 0
1532261171991740 0 -1 -2 1 2 -1 2 0
1532261172058572 0 2 1 1 2 -1 0 0
1532261172088482 0 -6 -22 -7 -4 -1 3 1
1532261172268001 -10 -10 8 -6 -5 -2 0 -4
1532261172312881 -7 -12 -10 -7 2 1 0 -3
1532261172350779 -3 7 -9 -1 -1 -5 -6 -8
1532261172470459 -5 -4 -26 -10 -7 -9 -6 -10
1532261172547255 34 8 1 -6 -3 -2 1 -3
1532261172561230 -9 -2 -3 2 6 4 6 -17
1532261172583158 0 6 1 5 2 2 5 2
1532261172725776 12 -10 -4 2 0 2 7 15
1532261172830497 3 4 18 -2 -2 -6 81 21
1532261172928235 -42 11 22 2 -5 -19 71 -20
1532261173100774 17 15 13 6 3 1 6 0
1532261173130694 54 -36 -4 -20 0 1 18 14
1532261173250374 -15 10 24 -6 0 -3 -36 -1
1532261173325174 13 20 -45 0 -1 0 -28 0
1532261173437873 2 31 33 8 1 14 38 10
1532261173490732 -7 15 44 -7 -9 -37 -5 -6
1532261173558550 -7 18 -38 -9 -5 12 -65 -15
1532261173655291 -11 -19 67 4 1 5 -3 -5
1532261173678230 2 -2 52 0 -3 -8 81 3
1532261173716141 0 -1 11 0 -5 11 29 5
1532261173790929 2 -2 -23 -3 2 -15 28 6
1532261173827830 2 -27 -73 -13 -2 -5 -2 5
1532261173903628 5 4 2 -1 -1 12 64 16
1532261173925569 -16 3 3 4 6 21 42 -48
1532261173955489 8 -14 20 8 1 21 -2 16
1532261173993387 -2 27 23 3 5 -16 -39 -4
1532261174045249 5 28 14 1 -4 -1 -14 5
1532261174090129 -2 -13 7 0 0 2 -5 4
1532261174137003 0 -9 0 -4 0 3 -6 3
1532261174172907 -3 -15 -9 -14 -5 -1 6 3
1532261174211804 1 -9 -11 17 9 2 2 1
1532261174232747 -8 38 -5 -13 -5 -5 -6 -6
1532261174270646 0 12 46 0 -3 -4 -2 29
1532261174390326 2 -8 -7 -2 -3 -10 -10 -9
1532261174420246 1 -6 0 -6 1 10 9 13
1532261174445179 -38 -8 3 -2 -1 -2 3 3
1532261174473105 -15 -14 -13 -6 -7 -30 -5 -7
1532261174517984 -17 6 40 9 6 -3 -1 -3
1532261174577824 -20 -3 -10 6 5 10 0 -6
1532261174615723 -8 8 36 1 5 -2 0 -7
1532261174668582 -8 -37 -32 13 6 2 1 -2
1532261174705501 -4 -13 5 -11 -2 -7 -2 21
1532261174743382 2 23 8 3 4 3 9 -5
1532261174833141 8 -8 -11 17 2 -22 -21 -24
1532261175059546 2 60 0 -3 -2 -26 43 -52
1532261175103419 7 14 7 -1 1 64 -24 -70
1532261175133338 -31 -71 0 -1 3 -28 -22 44
1532261175320838 -7 -18 -58 46 8 2 9 1
1532261175350758 0 1 58 15 0 -6 -8 -6
1532261175388656 -9 7 -60 -10 -3 -3 -8 -1
1532261175455478 -4 12 -1 -3 -3 0 -6 -15
1532261175515317 -58 -10 1 1 -2 -8 -9 -49
1532261175577152 -53 23 3 4 3 -9 -44 -54
1532261175614053 11 3 4 4 5 -128 125 29
1532261175665914 3 8 -5 2 1 8 -31 10
1532261175732736 -3 -3 -34 -6 -4 1 -26 -13
1532261175877349 11 12 -31 -24 -5 -5 -1 3
1532261175899300 1 11 9 11 3 0 -18 -9
1532261175922230 -16 -16 -7 -26 0 -1 -1 -2
1532261175966113 21 24 59 3 -3 -5 13 4
1532261176063851 -8 10 -36 -7 -9 -7 32 1
1532261176145631 -19 -51 -56 -29 -3 -1 22 -51
1532261176198491 -20 -22 43 3 8 7 16 18
1532261176243371 6 -26 -8 8 -1 1 60 5
1532261176265313 10 4 18 -1 -6 -3 31 9
1532261176385989 -3 -9 16 34 5 -1 -11 2
1532261176422891 14 86 45 -16 -9 1 8 11
1532261176437850 -13 34 -49 5 -1 -1 -31 -48
1532261176475749 -10 57 -9 1 11 12 -10 -25
1532261176543568 -11 -12 -31 3 -2 -1 -15 -66
1532261176724085 1 -10 -23 -2 -5 -3 49 9
1532261176753008 -14 -22 -97 5 3 5 -14 -15
1532261176812847 -14 -65 44 -1 6 7 -12 -14
1532261176865707 14 25 -3 2 0 1 -8 15
1532261176910587 -30 -33 -42 -8 -7 -3 9 -17
1532261176940506 28 52 75 18 6 6 46 22
1532261176970426 6 -5 -24 -56 -16 -7 -14 -6
1532261176987381 -3 -18 -3 51 16 7 10 1
1532261177008325 -9 -2 21 -9 -1 3 -31 1
1532261177045227 -8 -124 31 -2 7 8 -6 -7
1532261177068164 -16 31 27 4 13 9 22 2
1532261177172885 5 14 -14 -7 -6 0 -9 -1
1532261177210784 -18 -32 21 25 9 -1 35 -20
1532261177255664 -13 -33 17 23 -2 -1 -9 -2
1532261177293562 14 11 15 44 2 -4 3 4
1532261177309520 -20 -16 20 -20 -8 -5 -4 -10
1532261177353402 -1 -36 -44 15 7 4 3 1
1532261177496021 -5 -8 -22 -5 -2 -4 2 -26
1532261177525941 2 -62 -41 -2 0 2 -3 2
1532261177564837 7 18 -1 -4 3 0 -2 4
1532261177601743 4 14 15 1 1 -2 -6 0
1532261177645621 2 12 12 -2 -1 -1 -1 -3
1532261177698499 1 1 9 1 -4 -2 -1 -1
1532261177720440 -4 -28 -10 -7 -4 -1 -3 -5
1532261177765319 4 7 49 2 1 0 3 7
1532261177803219 -19 8 1 -2 -6 -3 0 -18
1532261177842115 13 6 19 9 3 22 2 50
1532261177863059 12 83 17 1 -1 -39 1 35
1532261177900958 -4 22 -41 -6 -4 -16 -5 -16
