1532179675248093 -1 -1 0 -1 -1 0 1 0
1532179675314914 1 -2 -1 0 -1 -3 -2 0
1532179675457532 -1 0 -1 -1 -1 1 -4 1
1532179675510390 1 -2 -2 -1 0 0 -1 0
1532179675554274 1 -2 -1 -1 0 -3 0 -1
1532179675576215 -2 0 -1 0 0 4 1 -1
1532179675592185 -3 -3 -1 0 -1 -3 0 0
1532179675629074 0 -1 0 0 1 1 0 -1
1532179675644033 -2 0 -3 -1 -7 -10 -3 -2
1532179675673954 -1 -2 -1 -2 -3 2 -2 -2
1532179675749750 -1 0 -3 -1 -4 -8 -2 -3
1532179675763714 -1 -2 -2 -2 -4 -8 -3 1
1532179675825561 0 0 -1 0 -2 -5 -2 -1
1532179675856479 -1 -1 0 0 -1 7 0 0
1532179675868445 0 2 3 1 -1 -7 0 0
1532179675908340 -1 -1 -3 -1 -1 -3 -2 -2
1532179675921305 -2 -2 -1 -1 -1 -1 -1 -3
1532179675945241 -1 -1 0 -1 -2 2 -2 0
1532179675990121 -1 -1 -1 -1 -2 3 -1 0
1532179676028019 1 -1 -1 -2 2 5 -1 -1
1532179676101822 -2 -2 -1 -1 1 2 -1 1
1532179676133737 0 0 0 2 3 1 0 0
1532179676185598 -2 1 0 -4 0 4 0 -2
1532179676197566 0 0 -2 -2 -5 -5 0 -2
1532179676216532 1 -2 -1 -1 3 15 2 -1
1532179676238457 2 1 -2 0 1 -2 -1 -1
1532179676274361 -2 1 -1 0 2 7 -2 -1
1532179676305294 -2 -1 -2 -1 3 15 -1 0
1532179676351173 -1 -2 -1 -2 -4 -5 -3 -1
1532179676394040 -2 -1 0 -2 1 -2 -1 0
1532179676409001 -2 -3 -3 -2 -3 -5 -1 0
1532179676454902 -2 0 -2 -2 -2 0 0 -2
1532179676474849 -2 -1 -1 -2 -1 -3 -1 -1
1532179676515739 -2 -1 1 -1 -1 0 -2 0
1532179676542667 0 0 1 0 -3 -2 -1 0
1532179676612481 -1 1 0 -1 -2 -5 -2 -1
1532179676649389 -1 -2 -3 -2 -1 2 -2 -3
1532179676724196 -2 -2 -2 -1 0 -3 0 0
1532179676768078 0 0 -1 0 -2 -2 -1 -2
1532179676852852 -2 -5 -1 -1 -2 -8 0 1
1532179676872799 -1 -2 0 0 -1 0 0 -1
1532179676898729 0 1 -2 0 0 -1 -2 -1
1532179676926655 -1 0 -2 0 -2 2 1 0
1532179676964579 -1 1 0 0 1 0 -2 -1
1532179676994499 0 -2 0 -1 -2 1 -1 -1
1532179677039397 -1 2 0 -1 0 -3 0 -2
1532179677061338 0 0 0 -1 -1 0 -2 -1
1532179677114197 -2 -1 -3 0 -1 -2 -1 1
1532179677151098 1 -2 -1 0 5 13 2 -1
1532179677188997 1 1 0 -1 -3 1 -1 0
1532179677203956 -3 -1 -2 -1 -3 -3 -2 -1
1532179677218916 -1 0 0 -1 -1 -2 -1 1
1532179677316655 0 -1 -3 -2 -1 4 1 -1
1532179677378490 1 -1 -1 -1 0 -1 -1 -1
1532179677393450 0 0 -1 -1 -3 -3 0 0
1532179677435344 0 0 -1 0 0 1 1 -1
1532179677451295 0 0 -1 -1 -6 -17 -2 -1
1532179677481215 -2 1 -1 -3 -6 -15 -1 -1
1532179677512140 -2 -3 -2 -1 -2 1 0 -1
1532179677562997 -3 -1 -2 -2 -1 -1 -2 -2
1532179677572975 0 -3 -1 1 -3 0 -1 1
1532179677584937 0 1 -4 -2 0 -1 -2 -2
1532179677607876 -1 -1 -1 -1 -1 -2 -2 -1
1532179677631812 -1 0 -2 -2 0 4 1 -1
1532179677637796 -4 -3 0 -3 -1 -7 0 -1
1532179677692649 1 -1 -1 2 2 3 1 -1
1532179677699631 1 1 0 -2 1 -3 1 0
1532179677721572 1 -1 -1 0 -2 -5 -1 -1
1532179677743513 -1 0 -2 -2 1 6 -4 -1
1532179677768459 -1 -1 -2 -1 -2 -2 -1 -2
1532179677813327 -3 -2 -1 0 3 5 0 -1
1532179677842250 0 -3 -3 -1 -4 -8 0 -2
1532179677859205 -1 -2 0 -1 -4 -3 -2 -1
1532179677894111 1 0 1 -1 -4 -3 -1 1
1532179677970905 -3 -3 -1 -2 -2 -7 -1 -1
1532179678000825 -2 -1 -2 -3 -2 2 -1 -1
1532179678006809 -2 -3 0 0 -1 0 -1 0
1532179678044709 -1 -1 -2 -3 -4 -7 -1 -1
1532179678066651 -2 -1 -1 -1 -2 -3 -1 -1
1532179678104548 -1 -3 -2 -3 1 5 -1 -2
1532179678126489 -1 0 -1 0 -2 -5 0 -3
1532179678156410 0 0 -1 -1 -3 0 -1 -1
1532179678195306 -1 1 -1 -2 -1 -3 -2 0
1532179678225225 0 1 1 0 2 9 -1 0
1532179678239188 -1 0 1 3 -1 -4 -1 -2
1532179678285065 -1 -1 0 -3 -3 1 -1 -1
1532179678315983 0 1 0 0 -2 -3 -1 -1
1532179678328965 0 -3 -2 -3 -3 -1 1 -3
1532179678397771 0 -1 -3 -2 -2 -3 0 0
1532179678418718 -2 0 -2 -3 -4 -4 0 -2
1532179678480543 0 -2 -3 0 -1 -5 -3 -1
1532179678518441 -1 -2 -2 -1 -8 -17 -2 -2
1532179678539400 -1 -3 0 0 -3 -6 -1 0
1532179678598227 -1 0 -2 0 3 7 0 -1
1532179678623161 0 0 -2 1 -1 1 -1 0
1532179678646100 1 0 0 0 1 1 0 1
1532179678682004 -2 -3 0 -3 0 -1 0 -3
1532179678703945 0 1 -2 1 -1 3 0 -2
1532179678726898 -1 0 -2 -1 -1 -1 -1 -1
1532179678747828 -3 -1 0 -1 -5 -2 -1 -1
1532179678778745 0 -2 0 -2 -4 -5 -1 -2
1532179678801684 -1 -1 0 -2 -2 -1 -1 -3
1532179678839583 0 -1 -2 -2 1 1 -1 -3
1532179678861524 -1 0 0 -2 0 0 -1 -1
1532179678923359 -1 -1 -1 -3 -1 1 1 0
1532179678929342 -1 -1 -1 -1 -3 1 -2 -1
1532179678973225 -1 -2 1 -4 -1 0 0 -1
1532179679004142 -1 -1 -3 -6 1 5 -3 -1
1532179679020100 -2 -4 -2 -5 -6 -3 3 1
1532179679065977 -11 -12 -9 -14 -23 -19 -2 -2
1532179679101881 2 6 5 7 11 31 10 2
1532179679115843 2 -1 -6 -4 -10 -7 -1 4
1532179679138783 1 1 -4 -12 -7 0 2 -8
1532179679161721 -15 -5 0 -3 6 5 8 6
1532179679184660 -6 0 3 3 0 9 -3 -4
1532179679198622 -2 -3 -8 -5 -5 -1 -7 1
1532179679220564 103 18 0 1 -3 8 1 1
1532179679245509 -4 -5 4 1 6 2 12 5
1532179679258462 -20 -7 -4 -3 40 37 6 1
1532179679289380 -3 2 -3 6 -10 -52 -5 -2
1532179679295364 19 -9 -7 -3 -1 -7 4 66
1532179679337260 -69 -2 1 -2 -11 -16 1 -23
1532179679363182 46 40 18 51 28 -3 17 40
1532179679378143 19 -3 -2 -5 10 16 -2 -17
1532179679424020 -11 -5 6 -2 -53 17 19 -2
1532179679460921 57 28 -1 -3 -9 -5 -2 5
1532179679483860 -19 -25 -13 -10 -40 -5 -6 -4
1532179679528744 0 2 1 2 -8 17 3 8
1532179679543699 -41 -34 0 1 31 -6 -13 -17
1532179679566639 51 6 -5 1 -19 -4 -1 1
1532179679618508 -18 9 5 3 13 6 -2 -11
1532179679649418 -17 -8 -1 -1 4 -5 3 0
1532179679686319 -28 10 -6 -7 -9 -3 1 -2
1532179679740174 34 -12 -17 -8 5 -6 -5 8
1532179679762117 -13 23 10 -7 -14 3 -3 0
1532179679822953 -2 -12 -5 -6 -10 10 3 1
1532179679867833 -2 -22 -6 -2 -12 -1 -3 -5
1532179679911716 32 -10 1 -2 2 -7 -5 7
1532179679920702 -20 1 5 8 -1 -2 2 -4
1532179679952614 21 19 1 10 10 -18 -4 3
1532179679964574 -12 -7 -4 14 10 0 1 -3
1532179679994493 0 8 0 -3 -15 7 0 -2
1532179680000479 45 -1 -8 -10 -10 1 -8 -2
1532179680031396 -18 -5 -1 -4 15 6 2 -3
1532179680076276 0 2 -1 0 5 2 -4 1
1532179680084254 5 8 4 3 2 4 7 1
1532179680121156 5 -4 -2 -6 -23 -11 -6 0
1532179680152072 -1 13 1 3 7 -12 -2 1
1532179680225876 0 7 4 2 -15 -21 -4 -4
1532179680236846 -1 8 -6 -3 11 8 5 0
1532179680293694 -10 -20 -20 0 -18 -6 -7 -6
1532179680315636 5 -4 -6 -5 -20 -16 2 2
1532179680360515 18 8 2 3 -1 0 -3 -2
1532179680429332 -16 -3 -4 1 10 10 0 -1
1532179680458254 -13 -10 -11 -9 -6 -6 -4 -3
1532179680481193 4 -5 -4 1 13 -2 7 1
1532179680518094 -22 -49 -12 -7 4 5 -7 -11
1532179680551007 -17 23 1 6 12 -2 -1 -2
1532179680586910 8 4 4 6 -5 11 7 3
1532179680600873 -9 30 4 -3 -11 5 0 -1
1532179680637775 7 0 -1 6 6 -7 -2 -2
1532179680660713 6 -6 3 -5 -3 -4 1 0
1532179680699609 -8 -3 -2 -4 3 -1 5 2
1532179680753474 -5 26 2 3 -1 -1 -2 -2
1532179680780392 6 -5 -4 4 0 11 9 0
1532179680813305 -9 12 7 -1 -12 -2 -1 -2
1532179680848212 1 -8 0 -5 -9 -15 -7 -1
1532179680917027 4 6 7 -1 -1 1 1 2
1532179680930990 -11 -4 -10 -2 1 3 -5 -6
1532179680982851 14 -10 1 -3 8 7 3 -1
1532179681007785 2 4 2 1 -16 2 -3 -1
1532179681044698 1 0 -1 0 1 -1 -2 -1
1532179681066627 -24 -44 -7 6 6 -9 -4 -3
1532179681105523 5 8 -4 -1 0 2 0 -2
1532179681126467 2 11 3 -2 -2 -2 1 -1
1532179681186307 -14 -26 -3 -10 -6 -3 0 0
1532179681247145 -6 13 -4 -2 31 6 2 -2
1532179681313981 0 1 -12 -10 -32 3 0 -4
1532179681323940 -4 3 9 4 -5 5 1 -3
1532179681366825 -1 -5 -1 4 -12 -7 0 -1
1532179681405720 -14 -9 0 1 0 -1 1 1
1532179681434650 0 -14 -8 -1 -3 -14 -8 -2
1532179681465575 1 11 3 -1 -4 1 1 -1
1532179681508446 13 -5 5 0 2 2 2 1
1532179681554323 -7 -14 -6 -2 0 -2 1 0
1532179681569283 -6 8 2 3 -1 -3 -2 0
1532179681598206 0 -7 -4 -3 5 -3 -6 -1
1532179681653059 -11 5 0 -2 -1 1 0 -1
1532179681679986 1 4 9 14 2 1 1 0
1532179681709906 -8 13 6 -1 9 -2 -3 -3
1532179681733843 -11 -1 -6 -7 4 0 3 -1
1532179681800664 -7 12 1 -4 7 1 -1 1
1532179681816622 10 2 4 -2 7 0 2 1
1532179681869480 -1 -3 -2 -4 -3 0 -3 1
1532179682026062 9 4 -1 -5 -1 -2 -1 1
1532179682108840 -3 -12 -1 -2 1 -7 -1 -2
1532179682154718 2 -3 0 2 2 0 0 -1
1532179682168681 -2 0 -2 -2 0 2 -5 1
1532179682228520 -2 0 0 -1 -1 0 3 -3
1532179682289358 -3 -1 0 -4 -5 -6 3 -2
1532179682342216 -3 -3 -4 -4 2 40 -1 -3
1532179682409037 -1 -2 -3 -9 -8 2 1 -2
1532179682492814 1 5 21 73 29 0 2 1
1532179682513757 2 2 -2 -11 -20 34 -12 -1
1532179682559635 -3 -3 -1 1 3 -16 -2 -1
1532179682589554 -1 0 1 1 12 84 6 -2
1532179682602520 -3 -3 -1 10 10 -41 -6 -4
1532179682626456 -2 -3 -3 1 6 -19 -6 -4
1532179682649394 1 1 1 -2 3 2 3 1
1532179682663358 -2 -2 -2 -4 -9 -12 0 -2
1532179682693277 0 1 1 4 1 15 0 1
1532179682726194 -1 -1 -2 0 26 -27 0 -1
1532179682739169 0 -2 0 -1 -12 22 0 0
1532179682753117 0 0 1 0 -14 -2 0 0
1532179682771070 -3 -5 -6 -3 12 24 1 -3
1532179682793010 2 0 3 4 -5 16 2 1

1532179682850867 0 -3 -2 -1 -7 -44 -1 -3
1532179682874818 -1 -2 0 0 3 0 0 -2
1532179682927662 -3 -1 0 -2 -11 -7 2 -1
1532179682934643 0 -1 -4 -5 -12 -31 -18 -3
1532179683001465 -1 -4 -2 -3 -15 -26 -4 -4
1532179683015427 0 1 1 2 22 6 4 1
1532179683091389 -1 1 0 -1 -1 12 0 0
1532179683121329 -3 -1 0 0 4 13 1 0
1532179683128329 0 -3 -1 -3 1 0 -1 0
1532179683152266 0 -1 -2 -2 12 6 1 -2
1532179683165231 -1 0 -2 -3 -5 5 -1 -1
1532179683211108 -1 0 -1 -1 -17 -7 -1 0
1532179683226068 -1 -1 -1 -1 -5 -6 -3 -1
1532179683272943 -1 -1 -2 -2 -18 -5 -1 0
1532179683286905 -2 0 -1 1 7 10 -1 -2
1532179683331786 2 -2 0 0 4 14 0 -1
1532179683345748 0 -2 -2 2 17 -2 -2 -2
1532179683391634 0 -1 -1 0 -6 2 -2 0
1532179683413567 0 -1 -1 -1 -7 -7 -1 -2
1532179683451465 1 -1 0 -1 1 2 0 -1
1532179683481401 1 -1 -1 0 -7 -5 0 -2
1532179683490361 -1 0 -2 -2 -6 -5 -2 -1
1532179683525271 0 0 0 -1 -6 -9 -1 0
1532179683534244 1 1 0 -1 -3 1 0 -1
1532179683558180 -1 -2 -3 -2 -12 7 -2 -2
1532179683603114 -1 -1 -1 1 6 -10 -2 0
1532179683611108 -2 -1 -1 -2 1 -2 -2 -1
1532179683623060 -2 -2 -1 -2 -1 2 -2 -3
1532179683645002 -2 1 -1 0 -2 -7 -2 -1
1532179683707834 -1 0 -1 -1 0 5 -1 0
1532179683721797 -2 -2 -4 -1 -1 0 -1 1
1532179683742740 -2 -1 -1 -2 3 3 0 0
1532179683760693 0 0 1 -2 -7 2 0 -1
1532179683775656 -1 -2 -1 -2 1 2 0 -2
1532179683796596 0 -1 0 2 5 -2 -2 -1
1532179683834494 -1 0 -1 -1 0 -10 -1 1
1532179683886357 -1 -1 -2 -1 4 7 -1 0
1532179683904309 1 -1 0 0 -3 -3 -1 -2
1532179683918271 -1 -2 -2 -2 0 6 -2 -1
1532179683954179 -2 0 -2 -1 1 -14 -1 2
1532179683969146 0 0 0 0 3 -4 0 -1
1532179684006037 -2 -1 -2 -1 -5 4 -1 -2
1532179684034959 0 0 0 0 0 -2 -2 -1
1532179684066874 -1 -2 -1 0 3 -1 1 -1
1532179684088815 1 -1 -1 0 -2 -11 -1 0
1532179684112761 -2 -3 -1 0 -6 -6 -2 -1
1532179684133697 0 -3 0 1 7 8 -1 -1
1532179684166607 0 -1 0 0 4 4 -1 0
1532179684179572 0 -3 -3 -3 -4 5 -2 -1
1532179684215476 0 0 -1 -1 1 -5 -1 -2
1532179684261354 -2 0 -1 -3 -4 1 -3 1
1532179684268335 0 0 -1 -2 -1 -2 -1 0
1532179684301253 0 0 1 -1 -15 -4 1 -2
1532179684322191 -1 -2 -2 -1 1 -4 -1 -1
1532179684336153 1 0 -1 -3 0 0 -1 -2
1532179684352110 -1 -1 -1 0 -2 -1 -1 0
1532179684390010 -2 -1 -3 0 0 -2 -1 -1
1532179684434890 0 -2 -1 -2 3 -3 -1 -1
1532179684443866 0 -2 -1 -1 -3 4 -2 0
1532179684463813 -1 -1 -3 0 0 -1 -1 0
1532179684510687 1 -1 -3 -3 -4 0 -1 0
1532179684516672 -2 -1 0 2 -1 -2 -2 1
1532179684539610 1 -2 0 1 -1 -1 -1 -1
1532179684591477 -1 -1 -1 -2 -4 -1 -2 -1
1532179684627375 0 -1 0 -1 -3 -2 -2 -1
1532179684636351 0 0 -2 -1 -2 -2 0 -3
1532179684681231 0 -1 0 -1 1 -3 0 -1
1532179684704170 -2 -1 -2 -2 -5 -2 -1 -1
1532179684711151 -1 -2 -2 -1 -4 -1 -2 -2
1532179684735087 -2 0 -2 -2 4 1 -1 -2
1532179684787945 -2 -2 -1 -1 0 -2 -2 -1
1532179684803920 0 0 0 0 -1 0 -2 -1
1532179684831829 0 -1 -1 0 -2 -1 0 -1
1532179684853770 -1 -1 -1 -1 3 -1 0 -1
1532179684876712 0 -1 -2 -1 -1 -1 -3 0
1532179684905631 -2 0 0 -2 -4 0 -1 -2
1532179684915604 1 -1 0 -2 -3 -1 -1 -1
1532179684958490 -2 -1 -1 0 0 -1 0 -1
1532179685005364 0 -1 -3 -2 0 0 -1 -1
1532179685026308 -1 0 -2 0 -1 0 -1 1
1532179685071188 -1 0 -1 -2 -5 -1 -1 -1
1532179685095124 -2 0 -1 -1 2 -1 -1 -1
1532179685134027 -2 -1 0 1 -2 2 1 -1
1532179685177903 -3 -1 -1 2 1 -2 -3 -2
1532179685183887 -2 -1 0 -1 -1 0 -2 0
1532179685244724 0 1 0 0 -2 -2 0 -1
1532179685259684 -1 -1 -1 -1 0 -1 0 -2
1532179685307556 -2 -1 0 1 1 -1 0 -2
1532179685343460 -1 -1 0 -1 -4 1 0 0
1532179685373380 -1 -1 0 -3 -1 -2 0 -1
1532179685394324 1 0 -1 0 -1 -2 -2 -1
1532179685431225 0 -1 -1 -1 -2 -1 0 -1
1532179685462143 0 -1 -2 -2 -1 1 -1 0
1532179685484084 -1 -4 -3 -2 -3 0 -1 -1
1532179685514004 -3 -1 -1 -1 -2 -1 0 -1
1532179685565865 -1 0 -1 0 -1 -2 0 0
1532179685620731 -1 -1 0 -2 -1 -1 -1 -1
1532179685665599 -2 -1 0 -1 -1 -1 -1 -1
1532179685671586 -3 -2 0 -1 -2 -1 -1 -1
1532179685710479 0 -1 -1 -2 -2 -1 0 -1
1532179685741396 -1 -1 0 1 -2 -1 -1 0
1532179685745385 1 -1 -1 0 -1 -2 -1 0
1532179685776303 1 -1 -1 -1 0 0 -2 0
1532179685814201 -1 -1 -1 -1 0 -2 -1 0
1532179685836143 -1 -3 -3 0 5 -1 -1 -1
1532179685861089 -1 0 -2 -2 -1 -1 -1 -1
1532179685883017 -1 0 0 0 -3 -1 -1 -1
1532179685935876 -2 -1 -1 -1 -1 -1 1 -1
1532179685941860 0 -1 -2 -1 -2 0 -1 -1
1532179685982751 -2 1 0 -3 -1 -1 -3 -1
1532179685995715 0 -2 0 -1 -2 0 -1 0
1532179686007684 0 -2 0 -1 -2 -1 -3 0
1532179686055556 -2 -1 -2 -3 -1 0 0 0
1532179686077497 -1 -1 -3 -1 -2 -1 0 -1
1532179686099439 -1 -2 0 0 0 -2 -2 -1
1532179686113414 -1 -1 -1 -1 -7 -1 0 1
1532179686175235 -2 -1 0 -1 -4 -9 -2 -1
1532179686196180 -1 -1 -1 -2 -3 -6 -1 0
1532179686219118 -1 -1 -3 -1 0 -1 0 0
1532179686259012 -2 -1 -1 -3 0 -1 -2 -2
1532179686279956 1 -2 -2 -1 -1 -1 -2 -1
1532179686293918 -2 -2 0 -1 0 0 0 -1
1532179686318852 0 -2 -1 -1 -3 -3 -2 0
1532179686338798 0 0 -2 -1 -4 1 1 0
1532179686408612 1 -1 -1 -1 7 0 0 -1
1532179686437534 0 -1 -2 -1 -4 -8 -1 -2
1532179686450500 -1 -1 -2 0 -4 -1 -1 0
1532179686498372 -1 0 -2 0 -1 2 -3 0
1532179686520313 -2 -2 -2 -1 -1 5 1 -1
1532179686541257 -1 0 -2 -1 -1 0 -2 -2
1532179686557214 1 -1 -1 -2 0 5 0 1
1532179686578158 -1 -2 -1 -1 2 1 -1 -1
1532179686612068 -1 -1 -1 0 -1 0 0 -1
1532179686617054 0 1 0 -1 0 1 1 0
1532179686640008 0 -2 0 -1 0 1 -2 0
1532179686667918 -1 -1 -1 -2 -1 -3 -3 -2
1532179686684873 -1 -2 -2 -2 -3 -1 0 -1
1532179686697839 -2 -1 -3 -2 1 -4 -3 -3
1532179686735737 0 -1 -1 0 -2 -5 -1 -1
1532179686758676 -1 -2 -2 -1 0 6 -1 0
1532179686781615 -2 0 0 -1 -1 -5 0 0
1532179686797571 -2 -1 -2 -2 -1 5 0 1
1532179686818521 -1 0 0 1 0 -2 -2 -1
1532179686850446 0 -1 0 0 -1 -2 -2 -1
1532179686888329 2 -2 -3 -2 -1 0 0 -1
1532179686909273 0 0 -1 -2 0 -1 0 0
1532179686970111 0 -1 0 0 -3 1 -1 -2
1532179686985070 8 52 2 1 -1 7 0 -1
1532179687008009 -7 -20 -2 -2 1 -5 1 0
1532179687037939 1 3 0 -2 -1 -3 0 -1
1532179687073833 0 -1 -2 -1 -1 -1 -1 -2
1532179687095774 0 0 -1 -1 -3 -2 -2 0
1532179687172568 -1 -3 0 -1 -1 0 0 -1
1532179687195507 1 -3 0 0 -2 -7 -2 0
1532179687261332 0 -3 -2 0 -2 -4 -1 0
1532179687283273 -2 -1 0 1 0 -3 1 -2
1532179687314190 -2 -1 -2 -2 -1 -1 0 2
1532179687335137 -1 -1 -1 -1 0 -2 -1 -2
1532179687360083 -1 -2 -1 -1 -2 -1 -1 -1
1532179687405945 0 0 -1 -1 0 1 -2 -1
1532179687442846 0 0 0 0 -1 1 -1 1
1532179687466782 -2 -1 -1 0 1 -4 0 -2
1532179687494707 -2 -1 -2 -2 -2 -1 -1 0
1532179687515652 -3 -1 0 -2 -2 -4 -2 -1
1532179687538590 -2 -2 1 0 0 -2 0 -2
1532179687591448 0 0 -1 -1 -3 -5 0 -1
1532179687606409 0 -1 -2 -1 0 1 -1 -2
1532179687636329 -1 0 -1 -1 0 -1 -1 0
1532179687683203 -3 -1 -1 0 -2 -1 -2 -2
1532179687706154 0 1 -2 -2 -2 0 -2 0
1532179687765981 1 -1 -2 -3 -1 0 0 0
1532179687840782 1 -1 -2 -2 1 1 -1 0
1532179687845768 0 -1 -1 0 -1 -1 -2 -1
1532179687868708 -1 -1 -2 0 -1 -1 -3 0
1532179687960462 1 0 -1 1 -2 0 0 0
1532179687966445 0 -2 -3 -2 -2 0 -1 -2
1532179687996365 0 -1 2 0 0 -3 -1 -1
1532179688026286 -1 -2 0 -2 -1 1 -1 0
1532179688080142 -1 0 0 -1 -1 1 0 0
1532179688093107 -3 -1 -1 1 -2 0 -2 -1
1532179688124024 -1 -1 1 -2 -2 -1 -1 0
1532179688146963 -1 -1 0 -1 -1 -2 -1 -1
1532179688199822 0 -2 -1 0 -1 -2 0 -1
1532179688212787 0 0 -1 -1 -2 0 -3 -1
1532179688296563 0 -2 -1 -1 -2 -1 -2 0
1532179688317506 0 -1 -3 -1 0 -2 -3 -2
1532179688342441 1 -1 0 -1 0 1 1 -3
1532179688380339 -2 0 0 -1 -1 -3 -1 0
1532179688440179 -1 -2 -1 -3 -4 -4 -1 -2
1532179688453144 0 -3 -2 -3 6 23 -3 -1
1532179688492046 0 1 1 2 -13 -24 -4 -1
1532179688633662 2 -1 1 2 -4 -1 10 11
1532179688686520 -7 -6 -5 -19 -36 -17 0 -3
1532179688754339 1 3 -7 0 7 2 1 0
1532179688806200 58 52 13 8 22 32 23 8
1532179688844099 -66 -56 -12 3 -9 -16 7 2
1532179688867037 14 2 -14 -20 -33 -16 -8 16
1532179688926878 -21 6 8 4 7 -23 -19 -16
1532179688963779 -56 -6 3 -3 4 12 8 -10
1532179689016649 4 -2 -9 -7 -36 -18 -3 -14
1532179689054536 -40 -31 -10 -8 -19 -1 -14 -16
1532179689084456 -19 6 -9 -14 -8 6 -12 -15
1532179689123352 37 -32 -13 -14 -18 -38 -11 -2
1532179689240040 3 12 -1 7 7 11 0 -1
1532179689315838 11 -22 -13 -5 29 -2 6 -2
1532179689332792 -14 -11 -9 -18 -1 9 -15 -14
1532179689354734 -92 -47 -15 -14 -9 -36 -19 20
1532179689384662 -7 -30 -9 -12 -21 34 -8 24
1532179689422552 40 48 15 -5 63 48 35 -10
1532179689443496 -22 -1 2 6 31 10 12 -44
1532179689468430 -19 10 -5 -8 12 41 -6 4
1532179689505330 52 24 7 -7 -4 5 16 80
1532179689550211 7 5 -6 -15 -69 -56 -19 -22
1532179689574147 -43 -12 -15 0 3 -10 13 -7
1532179689589107 -2 -21 -9 -3 19 -21 -21 -20
1532179689609053 12 -54 -16 -7 17 25 6 -9
1532179689638974 33 -11 -14 -1 0 22 7 1
1532179689662910 38 4 2 -1 25 -4 4 9
1532179689676871 -21 14 5 -1 16 -10 -8 -7
1532179689708797 -66 30 -10 -9 -55 -24 -1 -14
1532179689728733 17 6 -5 -5 8 3 -2 -2
1532179689751672 -11 7 -4 3 1 -1 2 -4
1532179689768627 40 -54 -20 2 -4 -8 -7 -9
1532179689828467 -22 -2 7 -9 16 6 5 0
1532179689832456 -9 -10 4 -25 -20 -30 -7 -6
1532179689886312 20 15 20 0 -19 -7 6 2
1532179689909251 -28 -31 -31 -7 20 -2 -3 -3
1532179689940168 -6 2 -4 -5 10 20 5 -4
1532179689977069 8 5 -15 4 7 -13 -2 2
1532179690006989 0 -14 -6 -2 15 2 -2 -4
1532179690073811 5 -23 8 1 14 8 2 3
1532179690112706 -28 9 -12 -2 -25 -23 -11 -7
1532179690164568 20 -15 5 7 9 12 5 0
1532179690202484 -4 -57 -12 -3 1 -1 1 0
1532179690231389 6 -17 -6 2 -10 -5 -6 -3
1532179690254328 -30 -12 -1 -15 -18 -18 3 -2
1532179690271300 0 -2 1 -7 -1 2 -7 -1
1532179690299208 8 10 -7 -4 0 9 7 2
1532179690322147 14 9 3 13 -6 -1 4 7
1532179690352071 -13 11 14 0 -8 -4 -1 -2
1532179690366029 -12 -4 3 0 3 10 1 -2
1532179690419894 2 -15 -17 -20 6 -8 0 -2
1532179690433848 -11 4 3 -3 -23 -19 -4 -3
1532179690456787 16 11 3 9 1 7 1 -2
1532179690471747 23 6 23 10 -15 0 -4 4
1532179690493688 -15 -6 -7 14 -2 0 -3 -5
1532179690509645 -7 -9 -16 -10 -7 -6 -2 -2
1532179690539565 16 3 10 1 2 -5 1 3
1532179690546546 -2 4 30 -4 2 3 2 -1
1532179690576467 7 0 -2 -9 1 -6 -1 0
1532179690599405 -3 26 36 3 3 1 2 2
1532179690614365 -16 -20 -3 -8 0 6 0 -6
1532179690651266 6 -5 -4 -6 -1 -4 0 1
1532179690665229 0 -4 -2 -8 -15 -12 0 2
1532179690712104 -10 -17 -6 3 -2 4 1 -2
1532179690734045 -2 -13 -6 0 11 3 0 -2
1532179690771944 0 -1 11 -4 -1 1 1 0
1532179690784909 4 -7 -13 -7 -2 -3 1 -1
1532179690830787 -11 4 8 -6 -2 6 1 -3
1532179690853725 -7 -15 -8 4 -10 6 8 0
1532179690891625 1 -3 -14 1 -4 -9 -5 0
1532179690905586 5 -16 -11 6 -1 3 7 3
1532179690914563 0 8 -7 -15 -6 5 4 1
1532179690952478 0 5 1 2 3 2 2 -1
1532179690974402 -2 4 6 -2 -12 8 -5 0
1532179691013298 3 -5 -1 12 -12 -8 4 0
1532179691044223 -30 -39 -13 -7 -5 -17 -3 -2
1532179691049209 9 18 20 1 3 0 2 1
1532179691079129 16 -13 -4 -6 -2 4 0 -1
1532179691094107 7 26 28 -3 -1 1 -1 0
1532179691110046 -15 -9 5 12 12 0 -1 -2
1532179691131988 -8 -1 -7 -4 -1 0 -1 -2
1532179691176868 -3 29 4 1 -1 -1 0 0
1532179691204793 -28 -28 -2 -9 -8 0 0 -5
1532179691273609 -13 0 -4 -3 -6 9 -5 -5
1532179691291561 -11 -4 -3 -9 -11 -5 -2 0
1532179691327474 11 -2 -14 -7 -8 1 -1 -1
1532179691356387 -1 -14 -2 3 -8 -16 -4 -2
1532179691410244 6 13 2 3 -7 -1 1 0
1532179691424207 -1 -6 2 2 6 -1 0 -1
1532179691462105 -7 6 6 -2 1 3 1 -1
1532179691493022 2 4 -2 0 -3 -7 -1 1
1532179691513966 1 -19 -4 5 -9 -8 0 -1
1532179691536905 -2 9 5 5 1 2 0 -3
1532179691551864 0 -6 -5 -5 2 3 -1 3
1532179691573806 -4 -5 -3 -3 0 -5 1 0
1532179691587769 8 9 -2 -5 -1 2 -1 -3
1532179691648606 -6 -11 0 -2 -2 -1 -3 -4
1532179691657583 -1 2 -9 -3 -7 3 -1 -3
1532179691694483 -4 3 -2 -3 11 -1 -2 -1
1532179691707449 -5 -18 -9 -13 -18 -8 -3 -2
1532179691731385 -2 5 3 9 -5 -1 1 1
1532179691760307 0 4 4 2 -1 5 -5 -1
1532179691779259 0 -1 -2 8 -5 -4 0 1
1532179691792222 2 -2 4 10 6 -3 -2 1
1532179691815161 -1 0 -3 -10 -16 -1 0 1
1532179691837102 -2 1 1 1 -4 1 -1 0
1532179691881982 0 -3 -2 0 0 -3 3 -2
1532179691896942 -12 -6 -4 -2 6 12 5 0
1532179691933844 -5 -5 -5 -5 -6 -13 -2 -3
1532179691947807 0 -1 0 -2 1 4 0 0
1532179691971742 -4 5 -3 1 9 10 -1 0
1532179692001662 2 4 2 2 4 4 1 0
1532179692007647 0 -3 -1 -1 -1 19 2 -1
1532179692030585 0 -2 -2 -3 -4 5 -1 0
1532179692054521 1 -4 -1 -5 8 23 5 0
1532179692067486 1 -3 -1 -1 9 19 -1 -1
1532179692093417 1 4 4 2 10 34 8 3
1532179692121342 -4 -4 -5 -6 10 -4 4 -2
1532179692128323 -1 -1 0 -1 -15 3 -8 -2
1532179692159241 -2 -1 0 1 -20 -66 -11 0
1532179692174201 1 -1 -1 2 -7 77 1 -1
1532179692188163 -1 -2 2 2 13 1 3 2
1532179692211102 2 2 3 0 13 45 9 1
1532179692235038 -1 -1 -3 -1 -21 -75 -6 -2
1532179692248003 1 1 2 1 -2 56 3 0
1532179692270942 -1 -2 1 2 -11 -48 -2 0
1532179692300861 0 0 -3 -3 -55 -26 -4 -2
1532179692330782 -2 -2 -1 1 15 8 3 0
1532179692361699 0 0 3 6 33 34 -1 1
1532179692378654 -1 -1 -1 -1 -9 8 1 1
1532179692414558 -3 0 -1 2 36 30 -3 0
1532179692459438 -1 -2 -3 -4 0 6 -4 -1
1532179692495342 -2 -1 -3 -2 -42 -13 -2 -1
1532179692521273 -1 -2 -2 -3 4 1 -2 -1

1532179692595075 2 1 0 5 17 36 2 -1
1532179692638975 -1 0 -1 -3 -5 6 -8 -1
1532179692676873 -2 -2 -1 0 5 -60 -25 -5
1532179692714771 1 -1 -2 -2 -6 -1 -1 0
1532179692759651 -2 0 1 1 0 7 10 3
1532179692773614 -2 -2 -2 1 7 -11 -18 -4
1532179692834451 -1 -1 0 -2 6 -1 2 -1
1532179692856393 -1 0 -1 0 -3 -5 3 -4
1532179692930195 0 0 -1 1 0 -2 1 -4
1532179692947150 0 -1 -2 -2 -1 1 1 1
1532179692977070 -1 -1 -1 -1 -2 0 -4 -2
1532179692991032 -3 -2 -1 -2 -3 -2 -2 -1
1532179693013979 0 -2 0 0 -1 -1 -1 -1
1532179693049875 0 0 -1 -2 -1 0 -3 0
1532179693073828 -2 -1 -2 -2 0 -1 -3 -2
1532179693110728 -1 -1 -2 -1 -2 0 -2 -2
1532179693134664 -1 -1 0 -2 0 0 -1 0
1532179693140648 0 -1 -1 -1 -2 -1 -3 0
1532179693179544 0 0 -1 -1 0 2 0 -1
1532179693194504 0 -1 -2 -1 -3 -1 -1 -2
1532179693215448 -1 -1 -1 -2 -2 0 -2 -2
1532179693230409 -2 0 -1 0 -1 -2 -1 -1
1532179693253774 0 -2 -2 -1 -2 0 0 0
1532179693267737 -2 -1 -1 -1 0 -1 -2 -2
1532179693299651 -2 1 -1 -1 1 -1 -1 -1
1532179693314611 -2 -2 -1 -1 -4 -2 -1 1
1532179693351513 -1 -2 -1 1 0 0 -1 -2
1532179693366472 -2 1 -1 -2 -1 -1 -1 -1
1532179693389412 1 0 -2 0 -1 -2 1 0
1532179693419332 1 0 0 -1 0 -1 -1 -1
1532179693433294 0 -4 -1 1 -2 -1 -1 -1
1532179693456233 -1 0 0 -1 -2 -1 -2 -1
1532179693510102 1 -1 -1 0 -1 -1 -2 0
1532179693532043 0 -1 -1 -2 0 -1 -1 0
1532179693548998 -1 -1 -1 0 -1 -1 -1 0
1532179693577920 -1 -2 -2 -1 -1 0 -2 -1
1532179693615819 -1 -1 -1 -1 -2 -1 0 1
1532179693628785 0 0 -2 -1 -1 -1 -2 -1
1532179693666683 -2 0 -1 -1 1 0 -1 -1
1532179693680646 0 0 0 -2 -1 -1 -1 -1
1532179693695644 0 -2 0 -3 -1 -1 -1 -1
1532179693756482 -1 -2 0 -1 -1 0 0 0
1532179693780417 -1 -1 -1 -1 -1 -2 -1 -1
1532179693816321 -2 0 -2 -2 -1 1 -2 0
1532179693892143 -1 -1 1 -2 -1 0 -1 -2
1532179693922063 -1 0 0 -2 -1 -1 -2 -1
1532179693936039 1 -2 0 0 0 -1 0 -2
1532179693980905 -1 -1 0 0 0 0 -2 -1
1532179694026819 -2 0 -1 0 0 -2 -1 -1
1532179694055742 -1 -1 -2 0 -2 -2 0 1
1532179694108626 -2 0 -2 -2 -1 1 -1 -1
1532179694115608 0 -2 0 -1 -2 -1 0 -1
1532179694154504 -2 0 -1 -2 0 -1 1 0
1532179694184424 -1 -1 -1 -2 1 -1 0 1
1532179694236285 -1 -1 0 -3 0 -2 0 -1
1532179694281165 -1 0 -3 -2 0 0 -2 -1
1532179694342002 0 -1 1 -2 -2 0 -2 -1
1532179694355965 0 0 -1 0 -1 0 -1 -2
1532179694415805 0 1 -1 0 -1 -1 -3 -2
1532179694433757 -1 -3 0 -1 -2 -2 0 0
1532179694464674 1 0 -1 -1 0 0 -1 1
1532179694469661 0 -1 1 0 0 -2 0 -1
1532179694536482 -1 -2 -3 1 0 -2 0 0
1532179694545458 -4 -1 -1 -2 -2 0 -2 -1
1532179694559421 -2 -2 0 0 -1 -1 0 -2
1532179694589341 1 -1 -2 -2 0 0 -4 -1
1532179694650178 -1 -1 -2 -1 -2 -2 -1 0
1532179694711015 -2 -3 0 -3 -4 -2 0 -2
1532179694768861 -2 0 -1 -1 -3 -1 -1 0
1532179694830695 -1 -1 -2 -2 -2 -4 -1 0
1532179694836679 -2 0 -2 -1 0 0 0 0
1532179694935415 0 -2 -2 -2 0 1 -1 -2
1532179694956359 0 -1 -2 -2 -1 -2 -1 0
1532179694979298 2 -1 -2 -2 0 0 0 -1
1532179695068066 -1 -1 -2 -4 -4 -2 -2 -1
1532179695099981 -2 2 0 0 -1 -1 -2 0
1532179695159821 -1 0 -1 1 -1 -1 0 -2
1532179695188745 -1 -2 1 0 -1 1 0 0
1532179695241603 -1 -1 -1 0 -3 -1 0 -2
1532179695270525 -1 1 -2 -2 -1 -2 -1 0
1532179695309897 -1 1 -1 0 -1 -1 -1 -1
1532179695331839 0 -1 0 -1 0 0 -2 0
1532179695338820 -2 -3 -3 -2 -2 -1 -1 1
1532179695384697 0 0 0 1 -1 -1 0 0
1532179695422596 -2 -1 -1 -1 0 -1 -1 0
1532179695458511 -3 -2 0 -1 0 0 0 -1
1532179695490414 -1 0 1 0 -1 -1 -3 -1
1532179695511359 0 1 -2 -3 -1 -1 -1 -2
1532179695550255 1 -1 0 -1 -1 0 0 0
1532179695587156 2 -1 -1 -2 -1 0 0 -1
1532179695722793 1 0 -1 0 0 -2 -2 0
1532179695767673 0 -3 -1 0 -2 -1 -2 0
1532179695773657 0 -2 -1 0 -1 0 -1 -2
1532179695864415 -1 0 -1 -1 0 -1 -1 0
1532179695902313 -1 -2 -2 0 -2 1 1 -1
1532179695908297 -1 -1 -1 -1 0 -1 -1 0
1532179695938217 -1 -2 -1 0 -1 -2 0 -2
1532179695954179 -3 -1 0 -1 -1 0 -2 -1
1532179695993071 -1 -1 0 -1 -1 -1 -1 -1
1532179695998057 0 0 -1 0 -3 -1 0 -1
1532179696027977 -2 -1 -1 0 -1 -3 1 -1
1532179696057897 -1 0 -1 -1 -1 -1 -1 -1
1532179696081833 0 -2 -1 0 -2 -1 -2 0
1532179696111753 0 -1 -2 -3 -1 -1 0 -1
1532179696164612 0 -1 -1 0 -1 0 2 -1
1532179696186553 -1 0 -1 -2 -2 -1 -1 -1
1532179696224451 -1 -3 0 -2 0 0 -1 -1
1532179696254372 1 1 -2 -1 -1 -1 -1 0
1532179696284291 0 -1 -1 -1 -1 -1 -1 1
1532179696306233 -1 -2 -1 -1 -2 0 -2 -1
1532179696337151 -3 -1 -1 -2 -2 -1 -2 -2
1532179696385022 -1 -2 -1 0 0 -1 0 0
1532179696391007 -1 1 -1 0 -1 0 0 0
1532179696405972 -1 -2 -1 -2 -2 0 -2 -2
1532179696444863 -1 0 -1 -1 -1 0 0 -2
1532179696479769 -1 1 -2 0 0 0 0 -2
1532179696487747 -1 -2 -2 0 0 -1 1 1
1532179696508692 -1 -2 -2 -2 0 0 -2 -2
1532179696526657 -1 1 1 -3 -1 0 0 -1
1532179696562548 -1 -1 -3 0 0 -2 0 -1
1532179696583492 0 -1 0 -1 -2 1 -2 -1
1532179696606430 -1 -1 0 -2 0 -3 0 -1
1532179696636350 -1 -1 0 -1 -3 -2 0 -1
1532179696645326 -1 0 -1 0 -2 -2 -1 -1
1532179696682228 -1 0 -1 -2 -2 -1 -1 -1
1532179696719129 -1 1 -1 -1 -2 0 -2 0
1532179696727108 0 0 -3 -1 0 -2 -1 -1
1532179696750046 -1 -1 0 -1 0 0 0 -2
1532179696771988 0 -2 -2 -1 1 -1 -2 1
1532179696801908 -1 -2 0 -1 -1 -2 -3 0
1532179696824846 -2 0 0 -1 -2 0 -1 -1
1532179696846788 0 -2 -1 -1 -1 0 -2 1
1532179696860759 -1 -1 -2 -1 1 -1 -1 -1
1532179696891668 -1 -2 -1 -2 1 -2 -2 -2
1532179696906627 -1 -3 -1 0 -3 -3 -1 -1
1532179696920590 -1 -2 -2 -1 -2 -1 -1 1
1532179696944526 -2 -1 -2 -1 -2 0 -1 -1
1532179696966467 0 -1 0 -1 -2 -1 -2 -1
1532179696980430 -2 0 -2 -1 1 -1 -2 -1
1532179697011354 0 -3 -2 -1 0 0 -1 1
1532179697036283 -1 -1 0 -2 -2 -1 -2 0
1532179697049250 -1 0 0 1 0 0 1 -3
1532179697090137 -1 -1 0 -2 -1 -1 -2 1
1532179697094137 -2 0 -1 0 0 -3 0 -2
1532179697118062 -1 -2 -1 -2 -2 -2 -1 -3
1532179697153965 -1 -1 0 -2 -1 -1 -2 -2
1532179697168926 -1 0 -2 0 -1 0 -1 -2
1532179697191865 -1 -1 0 0 1 1 -1 -2
1532179697205827 -1 -2 -2 0 -1 0 -1 -2
1532179697214804 0 -1 -1 -2 -2 0 -2 0
1532179697238740 0 -3 -1 0 0 -2 -1 -2
1532179697274644 -1 -2 0 -2 0 0 -2 -1
1532179697289603 -1 -1 -3 -2 -1 -4 -1 -2
1532179697303566 0 0 -1 0 -1 1 0 -1
1532179697327502 -1 -1 -3 1 -1 0 -1 0
1532179697349443 -1 -1 0 0 -1 -1 0 0
1532179697371385 -1 -1 -1 -3 -2 -2 -3 0
1532179697409283 0 0 -1 1 -3 -1 0 1
1532179697431224 -1 -2 0 -1 0 0 1 -1
1532179697446184 0 -2 0 -2 -1 -3 0 -1
1532179697469123 -2 0 -1 -3 -1 -1 -1 -2
1532179697475107 -2 -2 -1 -1 -2 1 1 -2
1532179697507022 -1 -3 -1 0 -2 -1 -1 -3
1532179697528963 0 0 -3 -1 0 -1 -1 0
1532179697543923 -2 -1 0 0 0 1 0 1
1532179697566868 -1 -2 -1 -1 0 2 0 1
1532179697596788 0 -1 -2 0 0 -2 -1 0
1532179697611748 0 -2 -1 -1 -1 -1 -1 -2
1532179697649647 -2 0 0 0 -3 0 -3 0
1532179697671588 -2 0 -2 -1 -2 -2 0 -1
1532179697709487 -2 -2 -1 -1 -1 -1 1 0
1532179697723450 -2 0 -1 0 -1 0 0 -1
1532179697747385 1 -1 -1 0 0 -1 -2 -2
1532179697769336 0 -2 -1 -2 -1 -1 -2 -1
1532179697783290 1 0 -1 -1 1 0 0 0
1532179697814206 -1 -1 -1 -2 -1 -3 -3 0
1532179697829166 -2 1 1 -2 -2 -1 -1 -1
1532179697843129 -2 -1 0 1 1 -2 1 -1
1532179697880031 -1 -3 0 0 0 0 -2 -1
1532179697928900 -1 -1 -2 -1 1 -2 1 -1
1532179697971785 0 -1 0 1 -2 -1 0 -1
1532179698017663 -1 -2 -1 -1 -1 -2 -1 1
1532179698031625 -2 -1 -1 -1 -1 0 -2 -2
1532179698053567 0 0 -1 -1 0 -1 -1 -1
1532179698128367 -2 -3 0 0 0 -2 -3 -1
1532179698151305 0 0 -1 0 0 0 1 -2
1532179698213140 -2 -2 -1 -3 -2 -2 1 1
1532179698219125 -2 -3 1 0 -1 -2 0 -1
1532179698249044 0 -1 -2 0 -3 -2 -1 1
1532179698301903 -1 0 0 0 -1 -3 0 -1
1532179698316863 1 -2 -1 0 -1 -1 0 -2
1532179698331823 -1 1 -1 0 0 0 -2 0
1532179698369728 -1 -1 -1 1 -2 -1 -1 -1
1532179698436543 -2 0 -1 -3 1 0 -1 -1
1532179698504361 -2 1 0 -1 -3 -1 0 -1
1532179698543257 -1 -2 -1 -2 -2 -1 -2 0
1532179698551236 -1 -2 -2 -1 -1 0 -1 -2
1532179698587140 -3 0 -1 -1 -2 0 -1 -3
1532179698625039 -2 -2 0 -2 -1 -1 -2 -1
1532179698663935 -2 0 0 -1 1 0 -1 -1
1532179698669919 -2 -1 -1 1 -1 -1 -1 -2
1532179698691860 -2 -1 -1 0 -2 -2 -1 -1
1532179698705823 -1 0 -2 -2 -2 0 0 -1
1532179698780623 -1 -1 -3 -1 -1 -2 -2 -1
1532179698821514 0 -1 -1 -1 0 -1 -2 2
1532179698848441 -1 0 -1 -2 -3 -3 0 -1
1532179698885343 -1 0 -1 -2 0 -1 -2 -2
1532179698900303 0 -2 -1 0 -1 -1 -2 -1
1532179698940196 -1 -1 0 1 -1 -1 -1 -2
1532179698945183 1 -1 -1 -1 -1 -2 1 -1
1532179698970116 1 -2 0 -1 1 -1 1 0
1532179698991060 -1 -2 0 -1 1 8 0 -1
1532179699014996 -1 -1 0 -1 -2 -3 2 -1
1532179699027961 1 -2 -1 -3 -27 -69 -9 -4
1532179699097775 -1 -1 -3 0 17 -59 7 5
1532179699134676 0 3 15 -2 21 41 29 -27
1532179699179556 -22 -11 4 10 -28 -12 -24 -13
1532179699208479 15 -4 -6 -9 -16 -24 -11 -6
1532179699231417 30 -8 -21 -23 -4 1 -43 59
1532179699268319 55 0 -7 6 32 -1 16 -39
1532179699338132 46 12 1 -9 -37 15 -1 -6
1532179699354089 34 11 0 6 35 -18 -21 -119
1532179699387998 30 -12 -6 -23 -20 3 3 2
1532179699418915 98 24 0 0 28 28 7 51
1532179699456814 -49 -28 0 5 -4 -9 1 19
1532179699493716 -47 10 12 4 2 19 5 5
1532179699507678 6 4 -4 1 -4 -10 2 9
1532179699533623 11 -5 6 -2 -10 22 -2 2
1532179699545577 10 -15 -7 1 4 7 8 9
1532179699563529 -11 -7 1 0 -5 -61 -7 -7
1532179699614393 -13 2 -21 7 -17 -56 8 19
1532179699698169 94 1 -6 -27 -38 -51 -3 74
1532179699719112 40 -6 -10 -10 79 24 -3 -43
1532179699734073 17 12 -1 -4 41 83 24 -38
1532179699757011 15 -44 -25 -4 -3 22 1 29
1532179699792916 -41 21 8 -19 -30 14 -13 -20
1532179699816852 -39 -13 4 -6 54 2 -12 -19
1532179699876691 -14 -5 2 -19 -31 -6 -5 -10
1532179699897636 -19 26 7 10 3 15 9 10
1532179699936532 3 38 2 -6 -12 -5 4 3
1532179699950494 1 -23 -8 10 9 12 5 4
1532179699974430 -9 11 -3 -3 -13 13 -4 -10
1532179699997369 7 -13 -27 1 9 -3 -2 1
1532179700050228 -26 0 1 5 -3 -2 -6 -8
1532179700064190 -2 -1 4 29 9 -22 -3 -4
1532179700079168 14 5 -7 -6 2 -11 -7 0
1532179700117049 8 -2 -3 8 -37 -4 -2 -3
1532179700138990 31 -12 -13 0 10 24 3 -2
1532179700168910 -17 -11 -6 -10 0 -16 1 -2
1532179700221769 3 0 9 -2 2 4 5 2
1532179700236729 -23 5 9 21 18 9 1 -2
1532179700296569 3 -24 -15 -4 18 -19 -4 -2
1532179700447166 7 2 -8 -1 5 1 -6 -5
1532179700490052 15 3 4 -21 -14 5 12 6
1532179700528948 13 1 -4 -7 -41 -10 -1 -3
1532179700549891 8 -7 -13 -10 21 14 -6 -3
1532179700566846 -17 13 -7 0 1 1 3 -1
1532179700603748 3 2 -4 -9 6 -6 -6 -5
1532179700619705 14 6 24 -10 11 -1 0 2
1532179700649625 13 -20 -23 -11 -2 -2 -4 -3
1532179700667577 7 13 5 -1 13 1 3 0
1532179700685528 10 39 11 -1 -4 -3 5 3
1532179700725429 -1 -9 -18 0 -3 -3 1 0
1532179700738387 12 21 9 -1 1 1 1 -3
1532179700776286 -2 -23 -8 -15 -6 -3 1 -3
1532179700808201 14 6 -4 4 -8 3 1 0
1532179700813188 -13 -23 -1 3 5 -4 0 1
1532179700882003 22 4 -1 0 -2 -16 -3 9
1532179700926883 -16 -23 -10 10 18 10 2 1
1532179700978745 -9 4 4 -2 -6 11 5 2
1532179701003678 -6 14 5 0 -20 7 0 -2
1532179701038585 4 9 -3 -6 35 6 7 4
1532179701052548 13 0 2 4 -1 10 6 5
1532179701084462 -9 19 0 -4 6 24 -1 -7
1532179701098425 -10 7 -15 6 17 -13 -7 -7
1532179701175219 18 -8 18 -12 4 11 -2 -7
1532179701188185 -17 11 11 5 2 -5 -4 -6
1532179701218105 34 -2 -5 3 -6 -13 -1 1
1532179701242041 -20 2 4 7 -4 -3 -2 -3
1532179701277945 4 -13 -16 3 -4 -7 -6 -5
1532179701293902 -16 -5 -14 -1 11 -4 -1 -2
1532179701339780 0 17 12 -2 3 3 5 5
1532179701362718 -5 6 5 -7 3 0 -2 1
1532179701435523 1 11 3 3 -43 -17 -2 -1
1532179701459459 8 -7 -2 3 9 -7 -2 3
1532179701488382 5 -8 -10 1 7 1 1 -2
1532179701533262 7 -14 -5 -13 53 2 0 -1
1532179701556201 5 -20 -16 -2 10 -3 3 0
1532179701594099 -17 -18 -11 -11 -2 -3 -3 -3
1532179701639976 5 12 0 4 19 12 4 -1
1532179701698819 6 19 11 -1 -11 6 0 -1
1532179701722755 28 -7 -6 -7 -5 -8 -3 5
1532179701735722 -8 -8 -2 -1 -3 -2 -3 -3
1532179701772622 2 -17 -3 -6 -7 6 -1 -4
1532179701818499 -14 2 0 0 -13 -5 -1 -4
1532179701864381 1 -4 -3 0 -3 -7 -13 -2
1532179701961119 -12 -19 -19 -1 -2 -6 -9 -4
1532179701992035 -9 -17 -26 -1 1 -2 0 2
1532179702058856 6 5 0 3 -8 0 -2 -3
1532179702178536 5 -9 0 2 2 4 -1 1
1532179702224414 -8 -8 -5 -9 6 -2 -1 0
1532179702336115 2 4 2 3 0 0 -3 -1
1532179702381992 1 2 3 -1 -4 -1 -2 -2
1532179702441832 -1 -4 -4 -2 -1 2 -1 -2
1532179702478733 7 0 -3 0 4 -7 0 1
1532179702524623 -1 -1 -3 1 0 5 0 -3
1532179702561512 1 -2 -1 -7 -3 0 1 0
1532179702621352 1 2 2 6 1 -3 3 2
1532179702635315 -4 0 -2 -3 0 34 -8 -3
1532179702666231 -2 -3 0 -4 -18 -26 0 -1
1532179702704131 -1 -1 -3 -2 27 -36 3 0
1532179702741032 1 2 1 3 2 14 5 1
1532179702786910 -5 -5 -1 -2 37 127 -6 -6
1532179702823811 2 2 0 5 -13 -61 4 4
1532179702862707 0 -1 -2 0 -10 -12 4 1
1532179702868691 -1 -1 1 0 5 -9 -5 -1
1532179702914568 1 -1 -1 0 1 -28 0 0
1532179702944488 0 0 0 -1 -7 2 -2 -2
1532179702958451 -1 -3 -1 3 8 5 0 -1
1532179703020285 -1 0 0 2 2 -6 1 1
1532179703027276 0 0 -2 -2 12 1 -2 2
1532179703067160 1 -1 -2 -2 1 7 -1 0
1532179703102069 0 -1 0 -4 2 -7 0 -1
1532179703131986 0 -3 -3 0 4 2 0 -2
1532179703146947 1 -1 1 1 1 -14 -1 0
1532179703170883 -1 -1 1 -3 -5 -2 -2 -1

1532179703207784 -1 -1 -3 -1 6 -17 0 0
1532179703223741 -2 0 -1 0 -5 -5 -2 0
1532179703243688 -1 -2 -1 0 -3 -3 -1 -1
1532179703266638 -2 0 -1 -1 -2 -7 -1 -2
1532179703289565 1 -1 -2 -1 14 12 -1 0
1532179703343421 -1 -1 -1 0 -1 3 -1 -2
1532179703357384 -1 -1 -3 -3 -6 -7 -2 -1
1532179703380323 0 -1 0 -2 1 -8 -2 -1
1532179703408248 -2 -2 1 -1 -4 4 -2 -2
1532179703438168 -1 -1 -1 -1 8 6 0 -1
1532179703462103 -2 0 -1 -1 12 0 1 0
1532179703484045 0 -2 -1 -1 -10 -6 -1 -1
1532179703520946 1 -2 0 -2 -7 -4 -1 -2
1532179703543885 -1 -1 -1 -1 -7 -10 -2 0
1532179703573805 -2 -4 -1 -4 -3 0 -2 -2
1532179703603741 -1 1 -1 -1 4 -2 -2 -2
1532179703626680 -2 1 -1 -1 -5 -5 -1 -1
1532179703664578 -2 -1 -1 0 4 2 -1 -1
1532179703701479 -2 -1 -2 1 1 0 0 -2
1532179703724417 0 0 -1 -1 -1 0 -1 0
1532179703753341 0 0 -1 -1 6 15 0 -1
1532179703771293 0 -2 -1 0 -4 -10 -1 0
1532179703784258 -1 -1 -1 -2 -3 -6 -1 -1
1532179703816181 -2 0 -2 -1 2 1 0 -1
1532179703828141 -1 0 -2 0 4 24 0 0
1532179703851079 -1 -1 -2 0 4 5 0 -2
1532179703899952 -1 -1 -1 -1 -6 2 1 0
1532179703913920 -2 -1 -1 -1 -8 -13 -3 -1
1532179703934855 -2 -3 -1 0 1 9 -1 -1
1532179703940840 -1 -2 -2 -1 -2 -5 1 -2
1532179703963778 -1 -3 0 0 -3 -3 -1 -1
1532179703987713 -1 -2 -1 -3 -1 -2 -4 -1
1532179704000679 -1 -1 0 -1 -2 -2 -3 -2
1532179704023618 0 0 -1 -1 0 6 -1 -2
1532179704054535 0 -1 0 -1 0 -4 -1 -2
1532179704069495 -1 -1 -2 1 -4 -8 0 -1
1532179704120359 -1 -2 -2 -2 5 4 1 -1
1532179704176209 -2 -1 0 1 2 -3 0 0
1532179704189175 -1 0 -1 -1 1 -3 -1 -1
1532179704219100 -1 -1 -1 -1 1 4 0 1
1532179704265970 -2 0 -1 -1 -2 -2 -1 -1
1532179704325810 0 -1 -1 0 -2 -5 0 0
1532179704362711 -1 -1 0 -1 1 1 -2 0
1532179704383655 0 1 -1 -2 -1 -1 0 -1
1532179704407591 -1 -1 -1 0 -1 1 -1 -1
1532179704446487 -1 -1 -1 -1 0 0 -2 -1
1532179704467431 -1 0 -1 0 -3 -2 0 0
1532179704480397 -1 0 0 0 -2 -1 -2 -2
1532179704536248 -1 0 -1 -3 -2 -2 -3 -2
1532179704541234 0 -1 0 -1 0 0 -1 0
1532179704571154 0 0 -1 0 0 -2 -1 0
1532179704601074 -2 -2 -1 -2 1 -2 -1 -1
1532179704615037 -1 -1 -1 -1 -1 0 -1 1
1532179704654930 -1 -1 0 0 -1 -3 -2 -1
1532179704677869 0 -2 0 -2 1 1 -1 -2
1532179704707789 1 -1 -1 -4 -1 -2 0 -1
1532179704729730 -1 -2 -1 -1 -1 -1 -1 -2
1532179704766631 -1 0 -2 -3 0 -1 -3 0
1532179704804536 -1 0 -1 -2 -1 -1 -1 -1
1532179704820487 -2 -1 -2 -1 -1 -2 0 -1
1532179704871351 0 -1 -2 0 1 1 -1 -3
1532179704886323 0 -2 2 -2 0 -1 0 0
1532179704954129 -1 -1 -2 -1 -2 -1 1 0
1532179704969092 0 1 0 1 -1 1 -2 0
1532179705028930 -1 1 -1 -1 -1 1 0 -1
1532179705053864 0 -1 -2 0 0 -1 0 0
1532179705090764 -1 -1 -3 0 0 -3 -2 -1
1532179705096749 0 -1 -3 -1 -2 -1 0 -1
1532179705111709 0 0 0 1 -1 0 -1 0
1532179705162572 1 -1 0 -1 -2 -2 0 1
1532179705194487 -1 -1 0 -1 -1 -1 -2 -2
1532179705216428 1 -1 -2 -1 -1 -1 -1 -1
1532179705270285 1 -1 -2 -2 -1 0 -1 -1
1532179705278263 -2 -1 -1 -1 -1 -1 -2 -1
1532179705324141 0 -1 -1 -1 -4 -1 -1 0
1532179705330124 0 0 -1 -2 -1 0 1 -1
1532179705352065 -1 -1 -1 -3 0 -1 -1 -2
1532179705432850 -2 -1 0 -3 0 -3 -2 -1
1532179705444818 0 -2 0 -1 -1 2 0 0
1532179705481719 0 -2 -2 -2 0 -4 -1 -1
1532179705494684 -2 1 0 -1 -3 -2 -1 -1
1532179705532583 -2 0 -2 1 -2 -1 0 -1
1532179705568486 -1 -2 -3 -1 0 1 -2 -1
1532179705636306 -1 -1 -3 0 1 1 -1 0
1532179705659244 1 -2 -1 -1 -3 -2 -2 -1
1532179705669228 0 1 -1 0 1 0 -2 0
1532179705741026 -1 -1 -3 -1 -1 -1 0 -2
1532179705787900 -1 -1 1 -1 -1 2 -1 -1
1532179705832780 -1 0 -3 0 2 -1 -1 0
1532179705876663 0 -3 -1 -1 -1 -2 0 0
1532179705892620 0 -1 -2 -2 -1 -1 0 -2
1532179705929521 -3 -1 -1 -1 -1 1 -2 -1
1532179705974414 0 0 0 -2 -1 0 1 0
1532179706018284 -1 -1 -2 -1 -3 -1 0 1
1532179706050199 0 -1 -2 0 0 -1 -2 -1
1532179706110039 0 1 -1 -2 -2 -1 0 -1
1532179706155916 0 -2 -2 -1 0 -2 0 0
1532179706191820 -2 1 -1 1 -1 1 -1 -1
1532179706259639 -1 -1 0 -1 -1 0 0 -2
1532179706311499 1 -1 -3 0 -2 0 -1 -2
1532179706325463 -1 -2 -2 -1 -1 -1 0 1
1532179706351393 -1 -2 -1 -2 0 -1 -1 0
1532179706371340 -2 -1 0 -1 0 0 -1 0
1532179706394285 1 -1 0 -1 1 -2 -2 -1
1532179706415223 -1 -1 -2 -1 -3 -1 -1 -1
1532179706445143 -2 -1 0 -2 -1 -2 1 -2
1532179706462097 -2 -1 -1 -2 -1 -1 0 -1
1532179706475063 -1 0 -2 -1 0 -1 0 -1
1532179706500994 0 0 0 0 -1 1 -1 -1
1532179706513958 -2 -1 0 0 0 -1 -1 0
1532179706554849 -1 -1 -1 -1 -2 -1 -2 -1
1532179706573798 -1 -1 1 -2 -2 -1 1 -1
1532179706610700 1 -1 -1 -1 -1 -1 0 0
1532179706656577 -1 -1 0 1 -2 0 -1 -1
1532179706710433 -2 0 0 0 0 -1 -2 -1
1532179706733387 -1 -1 -2 -1 -1 0 -2 -1
1532179706815153 -2 0 -1 -1 -5 0 -1 -3
1532179706831111 -2 -2 1 0 -2 -1 -1 -1
1532179706873995 0 -1 1 -1 -1 1 0 -1
1532179706932838 -1 0 -1 0 1 0 -2 -1
1532179706986694 -1 -3 -1 -1 -1 -2 -1 -1
1532179707000657 0 0 0 -1 -1 -2 -3 -1
1532179707031574 0 -1 -1 -1 0 -1 0 0
1532179707069476 -1 -1 -3 -3 -2 0 -1 0
1532179707082438 -2 0 0 0 -1 -1 -1 -1
1532179707114353 0 -1 -1 0 -2 1 -1 -2
1532179707127318 0 -2 -1 -2 -2 -2 -1 -1
1532179707151255 -2 0 -2 -2 -1 -3 -1 -1
1532179707188155 0 0 -1 -1 -1 -1 -1 -2
1532179707204120 0 -1 -1 -1 -1 -2 -2 0
1532179707242012 -1 -1 -2 -1 -1 0 0 -1
1532179707263953 -1 -1 -1 -1 -1 0 -1 -1
1532179707271932 -1 -1 -2 -1 -1 -1 -2 -1
1532179707293872 1 -1 -1 -1 0 -1 -2 1
1532179707307835 -1 -2 0 -1 -1 -1 -1 -1
1532179707354710 -1 -2 -2 0 -2 -2 -2 -1
1532179707360694 -3 -3 0 0 -1 -2 -1 -1
1532179707452448 1 -2 -2 0 -2 0 -1 -2
1532179707459430 -3 -1 -1 0 -2 -2 -1 -2
1532179707497329 -2 0 -2 -2 -3 -3 -1 -1
1532179707545201 3 1 -2 -6 12 63 3 -2
1532179707549191 -22 -5 7 40 26 -17 4 0
1532179707566161 9 4 -7 -20 13 50 7 -3
1532179707594071 -43 -7 -6 -18 -1 -26 20 12
1532179707617009 50 17 5 -4 -40 -35 -41 -1
1532179707654907 44 1 -5 -21 -35 -75 -38 -94
1532179707676849 32 3 1 -5 -17 -34 -1 -39
1532179707721729 65 -11 1 -9 7 82 12 6
1532179707750651 -23 -15 -10 -2 -3 -29 21 60
1532179707783563 0 -13 -8 -10 -38 -3 -35 -2
1532179707796532 89 20 -4 -8 -4 22 -1 -22
1532179707821462 109 2 0 -9 8 5 8 16
1532179707833430 14 -9 -2 -5 54 55 0 0
1532179707856369 -24 -6 6 21 2 36 20 -18
1532179707893270 1 -14 -5 -7 -25 -37 -20 0
1532179707912221 -25 -6 2 19 11 -11 4 -3
1532179707925185 13 3 -10 -7 -22 6 1 3
1532179707963084 -13 -20 -7 -11 -3 -24 -4 -4
1532179707976049 6 6 -2 -13 -4 -29 -10 -6
1532179707997990 -12 7 6 2 6 3 -3 -5
1532179708013948 26 5 5 2 2 24 6 2
1532179708043867 -4 5 0 6 13 -16 -2 4
1532179708073787 8 -10 -4 -10 -13 -2 -2 -1
1532179708118667 70 9 -5 2 1 -3 -13 -1
1532179708149585 -27 -9 0 9 11 2 5 1
1532179708163547 -10 -9 -3 -4 7 2 1 -2
1532179708255302 -6 5 -1 -8 -17 -13 -5 -2
1532179708276247 -3 -15 -3 -3 -5 -6 -6 -2
1532179708345063 10 0 -4 -5 9 -5 1 -4
1532179708412881 -24 6 -2 -2 -3 -8 0 -4
1532179708455766 -4 -11 -15 -3 5 -16 -3 -2
1532179708464742 -4 22 0 -1 6 2 -3 3
1532179708507627 -1 0 -5 -7 0 -7 -1 -4
1532179708547521 0 25 11 4 0 -3 -2 0
1532179708591403 -2 -1 0 2 3 1 2 0
1532179708718065 -10 10 1 -9 0 0 -2 -6
1532179708770924 -3 -9 -4 -7 -5 -15 -3 -5
1532179708786881 13 1 2 -2 1 0 -2 3
1532179708830763 8 -1 1 -6 -67 -19 0 -1
1532179708875643 -2 -6 -7 -4 -3 -6 -6 -6
1532179708912545 -2 7 6 -2 2 -7 -1 -1
1532179708935483 -15 -15 -1 -1 1 -3 -1 -2
1532179708987345 -3 -16 0 1 15 2 -5 -3
1532179709011281 -9 17 9 3 39 15 0 -1
1532179709033222 13 2 -3 3 6 -3 5 4
1532179709072118 -13 -28 0 3 -4 -6 -6 -3
1532179709103036 -12 10 -1 2 -4 -2 1 -1
1532179709130961 -4 -7 0 3 -3 3 1 1
1532179709152902 -4 -10 -3 -5 9 2 -2 -1
1532179709190801 5 11 7 1 5 3 3 4
1532179709258618 -10 -5 -2 2 4 8 3 -2
1532179709280560 -14 18 17 6 22 1 -1 1
1532179709319457 1 8 -6 0 -6 -9 0 -1
1532179709364336 4 15 2 -2 7 -3 -4 -1
1532179709379297 14 5 1 6 -7 -4 1 3
1532179709409216 4 8 3 -4 -1 10 1 -1
1532179709416197 -7 -8 -1 7 12 -2 -1 5
1532179709439136 1 -6 -3 -8 -7 -4 -2 -2
1532179709462075 -12 -6 -7 -11 -15 2 -4 -3
1532179709476037 1 6 -1 -7 1 -2 4 -1
1532179709498976 12 18 10 9 5 6 1 2
1532179709535878 3 -7 1 4 -35 -25 -7 -1
1532179709573776 -4 5 -4 -2 15 12 0 -3
1532179709588736 3 9 4 -5 -3 -5 0 -1
1532179709618656 -5 -20 -5 1 8 6 -1 -2
1532179709641595 -5 -3 0 -4 6 4 0 -2
1532179709655557 -4 -9 -3 -4 -7 -3 -1 -3
1532179709709414 0 4 1 1 7 1 -2 0
1532179709738337 -13 1 2 -1 17 5 -3 -4
1532179709800171 0 4 -1 -4 -1 -5 -1 2
1532179709823110 -13 -3 0 3 14 6 3 -1
1532179709836075 -10 3 1 2 12 12 -1 -1
1532179709859014 1 -11 -7 -13 -1 -5 -2 0
1532179709881952 3 -2 -4 -14 -53 -8 1 -1
1532179709895915 4 3 0 -5 14 4 -1 -4
1532179709941792 1 1 2 12 20 -5 2 2
1532179709978694 -8 -2 -1 -1 -11 7 -2 -3
1532179710015595 13 16 1 -4 15 12 1 -2
1532179710039531 -8 0 1 -12 0 -2 0 -2
1532179710061473 -6 0 0 -2 6 -4 1 1
1532179710099371 -1 -18 -7 7 7 2 1 -3
1532179710121312 -5 -6 -2 3 5 2 1 2
1532179710135274 -5 -1 4 4 8 0 -2 -2
1532179710161206 -2 0 -3 2 8 6 0 1
1532179710167190 15 5 -1 1 -2 -8 -1 -2
1532179710200102 -16 -1 -1 -3 -3 -1 -1 -2
1532179710212069 -8 -9 -3 -3 0 -2 -1 0
1532179710262933 -1 -6 -5 -1 2 -2 -2 -1
1532179710317787 3 -3 -1 0 1 -3 1 0
1532179710331749 -3 6 1 -1 -4 -6 -3 0
1532179710361669 -1 -6 -1 -3 0 -1 1 -2
1532179710384608 -2 -5 -2 -2 -1 6 1 -1
1532179710398587 1 -1 -2 -1 0 2 -1 -1
1532179710444448 -1 -3 -3 -3 -4 -17 -3 0
1532179710474367 -2 -1 -1 0 -3 -3 -1 -1
1532179710527227 0 0 -1 -2 13 23 -2 -2
1532179710555152 -3 -1 -4 -1 36 90 -1 -3
1532179710609008 0 0 0 2 23 18 -6 -3
1532179710667851 -2 -3 -3 0 9 -9 -4 -4
1532179710714726 -3 -1 0 -4 26 10 -1 -3
1532179710723701 -1 -1 1 2 6 18 0 -2
1532179710757611 1 2 0 1 7 -4 2 1
1532179710788528 0 0 -1 4 0 9 -1 0
1532179710836400 0 -2 -1 0 13 -9 1 1
1532179710850362 -1 -1 0 -3 -21 -20 -1 0
1532179710864325 -3 -1 1 0 9 30 2 1
1532179710894245 -1 -3 -1 1 6 43 0 0
1532179710901250 1 1 -4 0 1 -13 1 0
1532179710932144 -1 0 0 -2 -5 3 1 0

1532179710979019 -2 -2 -2 -3 7 -6 0 0
1532179710991984 0 -2 -2 1 3 24 0 1
1532179711013925 -1 -3 -3 -1 -5 15 -2 -2
1532179711051831 -2 0 -1 -1 -17 -20 -4 -1
1532179711097725 -1 -2 -1 -1 -5 -14 -3 -2
1532179711133665 -2 -2 0 -1 -4 11 2 1
1532179711144636 -1 -1 -1 -3 -14 -3 -2 -1
1532179711188531 0 0 0 4 -2 17 -2 -1
1532179711217441 0 -2 -1 -1 2 20 1 -2
1532179711270300 0 -1 -1 -1 -3 11 1 0
1532179711308209 -2 -1 -2 -1 0 -11 -1 -1
1532179711324156 -1 -1 -1 -2 -14 -12 -1 0
1532179711337121 -1 -1 0 0 0 -29 0 1
1532179711359072 -1 -1 -2 -1 -2 -3 -2 -3
1532179711390991 -3 -1 -1 -1 -2 -2 -1 -1
1532179711426881 -1 -1 -2 -1 9 -1 0 0
1532179711449820 0 -1 -1 0 6 7 -1 -2
1532179711471761 -1 -1 -1 -2 -2 4 -1 0
1532179711487719 0 -1 -3 -2 4 6 0 -1
1532179711516640 -2 1 0 -3 -15 -1 1 -1
1532179711546561 0 -2 -1 1 2 -3 -1 -1
1532179711561520 -2 2 -3 -1 -3 -2 -2 -1
1532179711584468 1 -2 0 -2 20 8 1 -2
1532179711606401 -1 -2 0 0 0 -4 -1 -2
1532179711621360 0 0 -1 0 -5 -3 -1 -1
1532179711643302 0 -2 -1 1 -3 -6 -1 -1
1532179711674220 -1 -1 -1 -2 1 5 1 0
1532179711727078 0 1 -1 1 1 -2 0 0
1532179711741041 -1 -3 -2 -1 -1 1 -2 -2
1532179711762982 0 -1 -1 -2 1 16 0 -1
1532179711793899 -1 0 0 1 -2 -5 -2 0
1532179711818832 0 0 -1 -2 -4 -2 -2 1
1532179711862716 3 1 -1 1 -4 1 -1 -1
1532179711891638 -3 -2 1 -1 -5 0 -2 -2
1532179711905601 -2 0 -3 -1 1 -3 0 -2
1532179711922556 -1 0 0 -1 17 -10 -1 0
1532179711944497 -1 0 0 -2 6 1 1 -1
1532179711966445 -1 -1 -1 0 2 4 0 1
1532179711980401 -1 -1 -1 -2 -2 -18 -2 0
1532179712003340 -3 -1 2 0 -4 1 0 -1
1532179712049217 0 -2 -2 -2 1 2 -1 -1
1532179712064176 -1 0 -2 0 -1 8 2 0
1532179712086118 0 0 -2 -3 0 2 -2 0
1532179712124017 -3 -2 -2 -1 -2 1 -1 -1
1532179712192833 0 0 -1 -1 -3 -6 -1 -1
1532179712208791 -1 -1 -1 -2 -2 -7 -2 -2
1532179712220758 -2 -2 -1 -1 -3 -11 -1 -1
1532179712261649 -2 -1 -1 -2 -5 -9 -1 0
1532179712267633 0 -1 -1 -1 -5 -11 -3 0
1532179712288576 0 1 -1 0 1 -2 0 0
1532179712311515 -2 -2 -1 -1 2 1 1 0
1532179712349413 -2 -1 0 -2 -4 -3 -3 0
1532179712364374 1 0 0 -1 -1 -6 -1 -2
1532179712386328 0 -2 0 0 4 -3 -1 0
1532179712416235 -1 -1 -1 -1 -2 3 0 -1
1532179712446155 0 -1 -2 0 1 16 0 0
1532179712536912 -2 -1 -2 -2 -5 2 -2 -1
1532179712590769 0 0 0 0 0 -1 -1 0
1532179712604731 -2 -2 -1 0 0 1 -1 -1
1532179712626673 1 0 0 -1 -1 -4 0 -1
1532179712695489 -2 -2 -2 0 1 7 1 0
1532179712746353 -1 -1 -1 -4 3 2 -1 -3
1532179712776273 0 -1 -1 -1 0 2 1 -1
1532179712783266 -1 -2 0 0 -4 -9 0 -1
1532179712814171 0 -1 -2 -1 2 -3 -1 0
1532179712829131 -1 2 -2 -1 -1 3 -1 -2
1532179712852077 -2 -1 1 0 -2 2 -2 -2
1532179712904937 -1 -2 -1 0 -2 4 -1 -2
1532179712926870 0 -2 0 -1 1 -2 0 0
1532179712963771 -3 0 -2 0 1 3 -2 -1
1532179712987708 1 -2 -1 -1 0 5 -2 0
1532179713009649 -1 -1 -1 -2 -3 -2 -2 -1
1532179713037574 -1 -3 -2 -2 -2 2 -1 -2
1532179713069489 -1 -2 -1 -2 4 -5 -3 -1
1532179713107387 1 -1 -2 0 -2 0 -2 -1
1532179713129329 -2 -1 -1 0 3 3 -1 0
1532179713143291 0 -1 -1 -1 8 -3 0 0
1532179713250006 -1 0 -2 -3 0 4 -1 0
1532179713256987 0 -2 0 -2 -4 -2 -2 0
1532179713286907 1 0 0 -1 -4 -4 -2 0
1532179713316827 0 -1 -1 -1 1 -2 -2 2
1532179713331787 -2 0 -2 -1 -2 1 1 -1
1532179713353728 1 -1 -1 0 0 -2 -2 -1
1532179713407584 1 0 1 0 -3 -2 -2 -1
1532179713421547 -1 -1 0 -2 2 5 0 -2
1532179713459446 -2 -1 -1 -1 -4 -4 -1 -2
1532179713474405 -1 0 0 0 -3 -9 -1 -1
1532179713519286 -1 0 -1 -1 -4 -8 -2 0
1532179713540230 -1 -1 0 -1 -4 -8 1 -1
1532179713581121 0 -1 -2 -1 -4 1 0 0
1532179713609048 1 -1 -1 1 -2 -6 2 -1
1532179713631984 -2 0 0 -1 -1 -5 0 -2
1532179713659910 -1 -1 0 0 -1 -3 -1 -2
1532179713683846 -3 0 -2 -2 -1 -4 0 -1
1532179713728726 0 -2 0 -1 -1 -1 -2 -1
1532179713751664 -1 0 -1 -1 1 5 1 -1
1532179713765626 0 -3 0 0 -1 -1 -1 -1
1532179713804523 -1 -1 0 0 5 -1 -2 -1
1532179713819483 -3 0 -2 -2 0 3 -1 -2
1532179713833445 0 -1 -2 -1 1 1 1 -1
1532179713871345 -1 -1 0 0 0 2 0 0
1532179713885307 -1 0 -1 1 0 0 -2 0
1532179713909243 -3 0 -1 -1 -6 3 -2 -1
1532179713939163 -1 -1 0 -1 -2 -3 -2 -1
1532179713945155 1 -1 -2 -1 -6 -14 -1 0
1532179713976064 -3 -3 -1 -1 -1 3 -1 -4
1532179714004987 0 -1 -1 -1 3 0 0 -1
1532179714067819 0 -2 -2 0 1 3 -2 0
1532179714074801 -2 -3 -4 0 1 -1 0 0
1532179714098753 0 -1 -1 -1 1 5 -2 -1
1532179714141631 -1 -2 0 1 0 1 -1 -1
1532179714186502 -1 0 -1 0 -3 -2 -2 0
1532179714216422 -1 -1 -2 -3 -4 3 -1 -3
1532179714269280 0 -1 -1 -3 -2 -4 -1 0
1532179714291222 0 -1 0 -1 -1 1 0 0
1532179714322139 -2 1 2 -1 -1 -4 0 -1
1532179714352058 -1 1 -1 0 5 8 0 -2
1532179714359040 -1 1 -1 -1 1 -4 -2 0
1532179714381980 -1 -2 -1 -1 -1 -1 2 -2
1532179714433840 0 -1 1 -1 -1 -3 1 0
1532179714462763 -1 -1 -2 -1 -5 -15 -2 0
1532179714494677 -2 -1 -1 -1 0 -1 0 -2
1532179714531579 -1 -1 -2 -1 1 0 -3 -2
1532179714554517 -2 1 0 0 -2 1 0 -1
1532179714591418 -2 -1 0 -2 -3 -3 -4 -1
1532179714614357 0 -1 -2 -1 -3 -1 -1 0
1532179714652256 -2 -1 -3 0 4 1 2 1
1532179714688160 0 -1 -1 -1 -3 -3 0 -1
1532179714719078 -4 -1 -3 -2 1 2 0 -2
1532179714795872 -1 -1 -1 -1 2 -1 -1 -1
1532179714838757 -1 0 -2 -2 -1 0 -1 -1
1532179714867680 1 0 -1 -2 -3 1 -1 1
1532179714899597 -1 0 0 0 -2 3 1 -2
1532179714958437 0 -1 0 -1 -2 -4 -3 -1
1532179714965418 -3 0 0 -1 -3 0 0 -3
1532179714983371 -1 -1 -1 -1 -2 0 -2 -1
1532179715019274 0 0 -1 -1 -1 1 0 -1
1532179715116016 -11 -12 -5 -10 -6 6 7 -1
1532179715147931 1 1 -5 -6 14 2 -18 -6
1532179715252651 6 -2 2 10 14 7 1 -12
1532179715318475 -103 -18 0 2 27 33 -11 -44
1532179715341414 56 7 -4 -8 -20 -25 -9 25
1532179715386293 -7 -7 -2 7 11 -4 6 22
1532179715417211 -53 -48 -7 -3 -22 -23 -6 -13
1532179715529909 112 82 7 -7 -4 -52 -5 5
1532179715626650 -9 -10 -17 0 -4 2 0 -2
1532179715670533 -48 49 -3 -5 -7 12 -5 -11
1532179715745333 30 -10 -15 -6 -10 -15 -6 2
1532179715845066 -7 2 -14 -14 -12 -6 -2 0
1532179715955770 -8 -10 -12 -17 -4 19 1 -1
1532179715993669 26 -13 11 7 -18 6 1 0
1532179716040543 25 -6 -17 -3 7 5 1 6
1532179716053509 -15 -5 0 -5 -3 5 5 1
1532179716108363 -8 -23 -19 -2 6 10 -6 -4
1532179716113349 13 13 -6 29 16 4 0 2
1532179716159226 -20 17 16 -11 -4 -3 -3 -4
1532179716301845 -25 5 7 10 5 1 -10 -4
1532179716384624 -4 7 -7 2 -1 1 3 1
1532179716421525 -5 11 -3 -6 -15 3 -8 -8
1532179716468400 -8 -17 -5 0 1 7 0 -2
1532179716511285 4 -5 -11 -7 -2 -16 -9 -5
1532179716541205 6 15 3 -3 1 18 4 -2
1532179716581098 4 -2 1 6 -10 -21 -3 -1
1532179716639941 5 -2 8 -5 -7 13 3 3
1532179716675845 14 1 -3 0 -7 5 4 3
1532179716735685 -13 10 -2 1 -6 -11 -2 0
1532179716766602 2 18 5 4 7 12 1 3
1532179716781562 -7 4 9 24 14 0 -2 -1
1532179716796522 -23 -2 -10 -5 15 -5 -4 -4
1532179716819462 4 -8 -18 -16 -16 -8 -7 -1
1532179716832426 7 3 -3 -1 -7 -6 1 2
1532179716859354 0 1 -9 -12 -2 3 -3 -2
1532179716901242 17 22 -7 -4 2 -2 3 0
1532179716916201 -5 15 -17 -4 0 -1 -1 -1
1532179716939140 11 1 8 -4 -1 -7 -6 2
1532179716962079 -6 11 12 -2 -14 -1 -2 -3
1532179717013941 -7 -8 4 3 6 3 1 -1
1532179717059817 -4 -11 3 -3 15 2 -2 -2
1532179717097717 4 -13 -13 -4 9 7 2 1
1532179717149578 3 4 3 13 -17 -9 -3 -3
1532179717163541 30 2 2 -11 -7 -8 -3 -2
1532179717246319 -11 2 -6 -1 -1 -4 1 -2
1532179717291200 -4 1 3 2 -13 -11 -2 -1
1532179717335082 3 5 1 9 3 -3 -5 0
1532179717402901 3 -12 -8 -11 1 0 0 -2
1532179717432821 11 15 1 -6 -11 1 3 1
1532179717450773 3 -6 -9 1 -9 1 -3 0
1532179717464750 -6 5 -3 -4 5 2 0 -2
1532179717509615 0 23 14 2 16 2 0 -2
1532179717531556 -3 -6 -4 2 -13 -1 -3 0
1532179717577434 -3 -1 3 0 7 -5 0 1
1532179717584415 1 -6 1 -3 4 5 4 1
1532179717621316 2 2 4 -2 -10 4 -1 -1
1532179717635279 2 -3 -1 2 14 -1 -3 -1
1532179717650239 2 2 -2 -9 4 -7 0 1
1532179717689148 5 -1 -4 -10 0 -4 -1 -1
1532179717695120 1 0 2 8 0 4 2 1
1532179717721049 0 -3 -2 -1 -8 -23 -7 -2
1532179717771914 -2 -5 -2 -8 31 41 2 -2
1532179717808830 1 0 -2 -1 0 -9 2 -1
1532179717845717 0 1 1 -1 5 23 5 -1
1532179717891594 0 0 2 9 13 31 -1 -1
1532179717929492 -2 0 -2 -3 6 77 0 -4
1532179717935493 -1 -2 -1 0 20 35 0 0
1532179717966394 -1 -4 0 0 40 19 -4 -2
1532179718004301 -2 -2 -1 -6 -23 19 1 1
1532179718018255 2 1 2 4 -16 -4 2 1
1532179718049173 -4 -3 -4 -7 -21 16 -7 -5
1532179718064132 2 1 -1 -12 -43 -17 1 2
1532179718102031 0 -3 -2 0 25 -6 1 -2
1532179718146911 -4 0 -4 -7 -22 -1 -4 -3
1532179718167854 -1 -2 -2 0 -7 9 0 -1
1532179718206751 -2 -1 -3 -4 0 -20 -2 -2
1532179718244650 0 -3 -1 -4 -12 -15 -1 -1
1532179718258612 1 0 3 2 -6 5 -1 0
1532179718303493 0 1 -2 -3 -4 -18 0 -2

1532179718341391 0 0 0 1 -12 -8 1 -1
1532179718364330 -2 -3 -4 -2 34 18 -3 -1
1532179718378292 1 -2 1 -3 0 -15 -3 0
1532179718415194 0 1 -1 -3 0 2 -1 -2
1532179718456095 0 -1 0 -1 2 -5 -2 0
1532179718462068 1 0 0 -1 0 3 0 0
1532179718484010 0 -2 -3 -3 -5 -10 -1 0
1532179718497972 -1 -1 -1 -3 1 -7 -1 -2
1532179718528889 -2 -2 -1 0 1 3 -2 0
1532179718536868 -1 -2 -2 0 4 8 -3 -2
1532179718569783 -1 0 0 0 0 5 -1 1
1532179718591728 -1 -1 0 -3 4 -3 -2 -3
1532179718617652 1 -2 -2 -1 -10 -14 0 -1
1532179718626629 3 -1 -2 -2 0 -1 5 -2
1532179718643583 -7 -2 -2 -3 -5 -4 -6 -10
1532179718673503 7 1 -1 0 -2 3 1 10
1532179718707412 -1 -1 0 -2 -10 -13 2 -1
1532179718738329 0 0 -1 0 -6 -1 1 -1
1532179718800164 -1 0 0 -1 -2 -6 3 0
1532179718807150 -2 -1 -1 -2 1 10 -2 -1
1532179718835071 -1 -1 -1 -1 -8 -5 -2 -2
1532179718853032 0 0 -1 -1 -4 -2 -2 -2
1532179718881945 -2 -1 -1 -1 12 9 1 0
1532179718902906 -1 -1 -2 -1 -4 -1 0 -2
1532179718918846 -1 -3 -2 -1 0 -2 0 -3
1532179718956745 -1 0 0 1 -3 -3 0 -1
1532179718963727 -2 0 -1 0 0 -2 -1 -2
1532179718993647 0 0 0 -2 -2 -3 -3 0
1532179719007610 1 -1 -1 1 -1 -13 0 1
1532179719047503 0 -1 0 0 -1 -2 0 -2
1532179719068450 -1 1 -1 0 0 1 -1 -3
1532179719106345 -2 -2 -2 0 1 1 1 0
1532179719121305 -1 -1 0 0 5 4 2 -3
1532179719144244 0 -1 -2 -1 -3 -6 -2 -1
1532179719174164 -2 -2 -3 -1 0 0 -1 0
1532179719197102 -3 -2 -1 -2 -5 3 -1 -2
1532179719234010 -1 -1 -2 0 1 2 0 -3
1532179719263937 -3 0 0 0 2 1 -1 0
1532179719293857 -3 -1 -1 0 -3 3 -1 -2
1532179719323777 -2 -2 0 -2 0 -2 -2 -1
1532179719369669 0 -3 -1 0 0 0 -2 -1
1532179719399574 -1 -1 -1 -2 1 -3 1 0
1532179719420529 -1 -2 -2 -2 -5 -2 -3 -1
1532179719451436 -2 -2 0 1 -1 -7 0 -1
1532179719467393 -1 -1 -2 -1 -6 -10 -1 -1
1532179719489334 1 -1 -1 -1 -6 -12 -2 0
1532179719527233 -2 1 0 -1 2 5 0 -1
1532179719557153 -1 -2 -1 0 1 2 0 -2
1532179719565131 0 0 -2 0 3 2 2 0
1532179719594054 0 0 0 -3 -1 0 1 0
1532179719647910 -1 -1 -1 0 -1 -3 -2 0
1532179719661873 1 -1 -1 0 -3 -4 -2 1
1532179719683814 -1 -2 -3 -1 3 4 -1 -1
1532179719713733 -1 -1 0 1 -4 -6 -2 -1
1532179719751633 -1 1 -1 -1 0 -1 0 -1
1532179719766593 0 -2 -1 -1 -6 -6 -2 0
1532179719796513 -1 -2 -1 -2 -2 -3 -2 -1
1532179719825436 -1 -1 -1 -3 -2 1 -2 -1
1532179719840396 -1 0 -1 -2 -6 -19 -1 -1
1532179719857350 -1 -1 -1 -2 -1 2 -1 0
1532179719886273 -1 0 1 0 2 4 0 -1
1532179719909225 -1 0 -3 -1 -4 -11 -2 -1
1532179719947110 0 -2 -2 0 0 -4 0 0
1532179719977030 0 -2 0 -1 0 -2 -2 -1
1532179719985008 -2 -2 0 0 -3 -4 -2 -1
1532179720006950 0 -2 -1 0 1 3 0 0
1532179720029888 -1 -1 -1 0 -6 -8 -1 -1
1532179720043851 0 -1 -2 0 1 -3 -3 -2
1532179720073771 -2 -1 -1 1 0 6 0 0
1532179720096710 0 -2 0 -3 -1 2 -1 0
1532179720103691 -1 -1 -2 -2 0 -2 -1 -3
1532179720126630 0 -2 -2 -1 0 0 -1 0
1532179720163531 0 0 -1 -2 -2 -2 -2 -1
1532179720186470 0 -3 -1 0 -1 -3 -1 -1
1532179720225365 -2 -1 -2 -1 2 11 -1 -2
1532179720254289 -2 0 -2 0 -1 -3 0 0
1532179720284208 -2 0 0 1 1 7 -1 0
1532179720307147 -2 -1 -1 0 -1 -1 0 0
1532179720329088 -2 -1 -1 -1 -3 -3 0 -1
1532179720352027 -1 -1 -1 -1 0 4 -2 -1
1532179720366987 0 0 -2 -3 -1 -4 0 0
1532179720388929 -1 0 0 0 2 3 -1 -2
1532179720428821 -1 -2 0 2 -1 -2 -1 -1
1532179720440802 -1 -1 -2 -1 -2 -1 -1 -1
1532179720458748 -2 -1 -3 -1 0 4 1 -2
1532179720479686 -1 0 1 -1 -1 -3 0 -1
1532179720495651 -1 0 -1 -2 1 -3 -1 0
1532179720532545 -1 0 0 0 -1 2 0 -1
1532179720576427 0 -1 -1 0 1 1 0 0
1532179720591386 -1 -2 0 2 -1 -3 0 -2
1532179720643248 0 -1 -2 0 -1 0 0 -1
1532179720696107 -2 0 -1 0 -4 -4 -2 -3
1532179720727024 -1 -2 -1 -2 -3 -5 0 0
1532179720763926 0 1 0 0 0 1 -1 -1
1532179720787862 0 -1 -3 -2 -3 -6 0 -2
1532179720807808 -1 -1 -1 -1 -1 0 -1 -2
1532179720832742 -2 -1 0 -1 -3 -3 2 0
1532179720861678 -2 -2 -1 -2 1 2 -1 0
1532179720870641 -2 1 1 0 -3 0 -1 -1
1532179720893579 0 -2 -2 1 -1 1 -2 1
1532179720915524 -1 -3 -1 -4 0 0 -1 -1
1532179720951424 -2 -1 -1 -2 0 1 1 -1
1532179720974363 0 -2 -1 -1 1 4 -1 0
1532179721019243 -1 0 0 -2 -2 5 -1 -2
1532179721026224 -2 -1 -1 -1 -1 1 -2 -1
1532179721049163 -1 -1 -2 -1 -5 -3 0 -1
1532179721072101 0 -1 -1 -1 0 -3 -2 -1
1532179721123963 -2 0 -2 -3 2 5 0 -2
1532179721140935 0 -2 -2 -3 1 2 -1 -2
1532179721168843 0 -1 0 0 -3 -5 -2 -2
1532179721205744 -1 0 -1 -2 -4 -17 0 -2
1532179721265584 0 1 0 -1 3 5 -1 -1
1532179721297498 -1 -1 0 1 -1 -2 0 -1
1532179721325424 -2 -1 0 0 -3 -3 -2 0
1532179721365317 1 -1 -1 -2 -1 -2 -1 0
1532179721394240 -1 -3 -2 -2 -1 2 -1 1
1532179721418176 -1 -1 -1 -1 -1 -2 -1 0
1532179721447099 0 -1 -2 1 -1 0 0 1
1532179721454080 0 -1 1 -2 1 0 0 -1
1532179721483003 -2 -1 0 -1 -2 0 -1 -2
1532179721498960 -1 -1 -1 1 -2 -2 -1 -1
1532179721551826 -1 -1 0 -2 -1 1 -1 -2
1532179721604677 0 0 -1 -2 -2 2 0 -1
1532179721641579 0 0 -2 -2 1 14 1 1
1532179721746299 -1 -1 -1 -1 -1 -1 -3 -1
1532179721779210 0 -1 -1 -1 -1 4 -1 -1
1532179721852015 -1 -2 -1 -1 -1 -3 -1 -2
1532179721881936 0 -2 -2 0 -3 -1 -1 0
1532179721933797 0 -3 0 -1 1 1 -1 -1
1532179721948758 -1 1 0 0 0 3 0 0
1532179722017574 0 -1 0 -1 -1 1 1 0
1532179722053477 0 -1 0 -1 2 0 -3 -1
1532179722130276 -2 1 -1 0 -1 -1 -2 -2
1532179722166176 -1 -1 -1 -1 -5 -19 1 -1
1532179722174155 -1 -2 -1 -1 2 1 0 -1
1532179722218037 -1 -1 0 1 -1 -3 -1 0
1532179722255936 -3 0 -1 -1 -2 -1 -1 0
1532179722293837 1 -1 0 0 -1 -2 -1 -1
1532179722316774 -1 -2 -1 0 -1 -1 1 -1
1532179722367636 0 -1 0 -2 -1 0 -1 -1
1532179722391573 -2 -2 -1 0 -2 -1 -1 -1
1532179722421493 0 0 -1 -2 -1 -3 -1 -2
1532179722473355 0 -2 0 0 0 0 -1 -2
1532179722489312 -2 -3 -1 -2 2 9 0 0
1532179722533195 -1 0 -2 0 -1 -4 0 -1
1532179722607995 -1 -1 -1 0 1 -1 0 -2
1532179722736650 -3 0 -1 0 -1 5 1 -1
1532179722781530 1 -1 1 -1 0 -3 -3 0
1532179722811457 0 0 -2 -1 -3 -3 -2 0
1532179722833391 0 -1 -1 -3 -1 -6 -2 -1
1532179722856330 -2 0 0 -1 1 2 0 -1
1532179722925146 0 -2 -2 -2 -2 -2 -1 -1
1532179722932128 -2 -2 -1 -1 -2 -1 -2 -2
1532179722962047 -2 -1 -1 -1 1 5 -1 -2
1532179723013909 -2 0 -2 -2 1 7 0 -1
1532179723045829 -1 0 0 0 8 11 3 -1
1532179723050811 0 -2 -3 -4 15 10 -1 -3
1532179723081728 0 3 0 -1 -5 0 10 3
1532179723120624 -3 0 -1 -5 -16 -10 -4 -4
1532179723155530 15 -3 -9 -8 -27 84 14 -13
1532179723194426 -18 -1 1 7 17 9 -1 -2
1532179723230330 -22 -15 2 12 4 34 0 -13
1532179723242298 -38 -8 -1 -11 -1 24 0 -11
1532179723269226 -13 -4 -2 0 2 28 -29 -75
1532179723291168 50 20 6 9 -18 14 -1 -27
1532179723315103 -71 8 2 5 13 83 6 3
1532179723337045 -55 -22 -13 -7 -19 -61 12 -21
1532179723362976 107 14 -2 -24 -10 -25 -22 18
1532179723374944 78 31 0 3 20 -19 10 13
1532179723411845 23 24 9 7 13 -9 -21 -23
1532179723425808 -61 -24 0 6 10 17 0 -32
1532179723480661 -19 -6 -1 1 -5 6 -1 9
1532179723494624 10 13 -7 -8 -7 -10 -1 -11
1532179723553466 19 0 -9 5 6 3 10 14
1532179723598346 9 -8 -12 -24 -13 -3 -7 -4
1532179723637242 -17 0 3 -4 -15 -7 -8 -3
1532179723659189 -3 2 3 0 5 -14 2 -3
1532179723696085 36 3 -5 -9 15 4 6 18
1532179723727002 -7 4 -2 5 17 7 -3 -8
1532179723755931 -10 1 0 2 -3 2 1 -3
1532179723779861 -11 -11 -4 -3 -2 -6 -3 -5
1532179723793823 -15 1 2 -7 1 6 -1 2
1532179723838703 0 9 -5 0 0 -27 -3 2
1532179723875605 13 -23 -27 -6 0 6 0 3
1532179723899541 1 16 17 -1 -4 -34 -12 8
1532179723913503 10 13 -2 -6 -5 2 -2 -6
1532179723936442 19 22 7 -10 -1 20 -1 -3
1532179723959381 -25 -33 -9 7 12 12 0 -7
1532179723973354 -3 10 7 1 -1 14 -3 1
1532179723996282 -19 5 -1 2 7 5 1 -6
1532179724033183 5 -2 -5 0 -2 -4 0 0
1532179724056122 -2 -5 -1 14 24 -13 -3 -6
1532179724078063 7 -3 2 -7 -8 3 4 3
1532179724093024 -7 -23 -8 -3 -8 0 -3 0
1532179724115962 -8 1 -15 1 0 10 3 1
1532179724138901 16 1 -1 1 -7 -1 -3 6
1532179724175802 -9 -3 3 -13 -21 -8 -4 -4
1532179724198740 -3 9 6 6 -32 -10 -4 -3
1532179724213700 10 -7 3 -2 -7 -26 -2 2
1532179724266559 10 0 -3 -11 -40 -9 1 0
1532179724272543 -3 6 0 -4 -50 -10 -3 -4
1532179724319418 -2 -9 -9 -4 4 19 -2 -4
1532179724342370 23 -9 -15 2 6 -1 -1 5
1532179724364299 11 -16 10 7 11 1 5 2
1532179724379258 -32 18 12 11 32 9 -3 -1
1532179724393220 -2 27 15 -7 -8 -16 -8 13
1532179724416159 -3 23 -9 0 12 8 1 20
1532179724447076 -19 -20 -19 -7 -23 5 -3 -12
1532179724477994 -7 13 5 5 10 -12 -11 -5
1532179724483978 6 40 9 -3 21 5 3 -1
1532179724521876 3 -2 16 5 -30 -15 0 -3
1532179724534842 -1 -6 0 5 26 13 2 -1
1532179724549802 0 7 4 -2 8 -4 2 19
1532179724589695 1 -4 -8 -1 -5 -16 -8 1
1532179724604655 -14 -11 -16 -3 -16 -1 -2 -6
1532179724641557 2 -8 -2 -4 28 2 -1 0
1532179724679455 -18 8 -3 -13 6 -2 -4 -5
1532179724709376 -6 -9 2 -9 1 0 -4 -3
1532179724775199 2 17 0 0 19 15 2 -1
1532179724799135 16 -21 -6 3 0 6 0 5
1532179724837034 -8 -9 1 -1 -6 -34 -12 -7
1532179724868949 -17 1 7 0 11 10 -2 -2
1532179724872938 2 -22 -14 -2 2 10 6 0
1532179724895876 -6 -15 -8 2 -1 3 -1 -8
1532179724920810 -3 20 9 1 2 10 4 -3
1532179724952724 -3 -21 -8 -3 6 0 -1 -1
1532179724964693 2 3 -2 2 -1 -1 -3 -24
1532179724978655 -7 3 3 2 -7 11 0 2
1532179725001601 -7 15 20 -2 -6 -5 -7 0
1532179725024532 7 -15 -19 -3 -1 -3 3 -1
1532179725054456 8 -16 -7 1 -2 1 1 5
1532179725090356 -11 4 1 6 -2 5 -3 1
1532179725129253 3 10 4 -5 -2 1 -1 -3
1532179725144228 14 -6 -4 -3 1 -1 2 1
1532179725182111 -6 6 -4 0 -2 4 0 0
1532179725219023 -14 4 2 3 2 1 2 1
1532179725241951 -2 7 -3 -6 -1 -9 -3 -3
1532179725293828 2 -4 -3 -2 -3 -7 0 0
1532179725301790 0 -8 -3 1 -1 1 0 0
1532179725315754 3 -3 -4 0 1 2 1 4
1532179725347668 10 -12 1 8 5 -5 0 -1
1532179725384570 -1 3 -1 1 -1 2 -3 -3
1532179725407508 -3 -1 -1 2 -3 -1 -3 -1
1532179725422468 -2 5 0 -5 -3 -4 -5 -2
1532179725435433 -5 14 5 -1 0 1 2 0
1532179725465354 -2 -8 -6 -2 -3 -29 -7 -2
1532179725530181 -2 -5 -3 -1 -2 7 0 -2
1532179725544143 0 5 5 1 0 -2 -2 -4
1532179725572068 -2 -7 -2 -2 -1 10 1 -1
1532179725601988 -3 -7 -2 0 0 6 0 -2
1532179725623930 -4 -2 0 -4 -3 7 0 -3
1532179725661828 -4 -1 0 2 0 5 -3 -2
1532179725721668 -3 -3 -1 2 1 12 1 -1
1532179725819407 -1 -1 -3 -9 -7 64 5 -1
1532179725834367 -8 -8 -8 -12 25 25 -8 -8
1532179725904180 2 2 1 2 -48 -62 5 3
1532179725924127 -1 -1 -2 -1 11 14 1 -1
1532179725938089 -3 -4 -4 -6 10 -89 -8 -3
1532179725999924 1 -1 -1 -3 -11 5 -1 -2
1532179726021865 -2 -3 -2 -2 -10 -14 -2 -3
1532179726057769 -1 -1 -1 0 -3 -7 0 1
1532179726083715 -1 -1 0 0 1 2 0 -1
1532179726087689 0 -1 0 1 10 12 -1 -2
1532179726113620 -1 0 -2 -1 1 19 -1 -2
1532179726172463 1 -1 -2 1 -10 9 0 -1
1532179726201386 -3 1 -1 -2 -1 -6 -1 1
1532179726224325 -1 -1 -1 -2 -5 -10 1 0
1532179726254244 -1 -1 -3 -1 0 -2 -3 -4
1532179726292142 1 0 1 1 -3 -39 -2 0
1532179726307103 -2 -2 -1 -2 -1 9 1 -1
1532179726329044 -2 0 -1 0 2 0 -2 -1
1532179726351989 1 -1 0 -3 -14 1 3 2
1532179726381904 0 0 -2 -2 -29 -1 1 -1
1532179726411822 12 -1 -2 -2 -8 -2 -2 -1

1532179726426783 -5 1 0 -2 4 -8 -2 -2
1532179726464683 2 2 -1 2 2 6 -5 1
1532179726477647 -1 0 1 -2 -6 -11 1 -2
1532179726494601 13 0 -1 2 13 18 -10 -10
1532179726531506 -3 1 -1 1 -4 -4 6 1
1532179726547460 6 0 -1 -2 11 -15 -4 -7
1532179726569401 -3 -1 -1 -2 -12 8 -1 -2
1532179726584361 -2 -2 -1 -1 1 6 -4 -1
1532179726605305 0 -1 -2 -2 30 -1 0 -1
1532179726614281 2 -1 -3 0 3 12 18 -1
1532179726651183 -3 -2 -2 0 -1 5 1 0
1532179726674121 -1 0 -2 -2 -12 1 -3 -1
1532179726681105 0 -2 0 -1 -3 3 -1 -1
1532179726740943 -3 -2 -2 0 -2 1 -1 -2
1532179726747924 1 -1 0 -1 0 1 0 1
1532179726786820 -1 0 0 -3 -2 -1 -1 0
1532179726808774 -2 -1 1 0 0 1 -1 -5
1532179726847657 -1 0 -2 -2 -2 -3 0 -2
1532179726860623 -1 -1 -1 -1 -3 -3 0 1
1532179726899519 0 -1 -2 0 -1 -4 -2 -1
1532179726929438 -2 -2 -1 -1 -1 1 0 0
1532179726966343 -1 -2 -1 -1 -4 -3 0 0
1532179726980303 -1 -1 0 -2 0 0 -1 -1
1532179727004239 -2 -1 -2 -2 0 -2 -1 -2
1532179727026180 -1 -1 -2 -2 -1 -4 -1 1
1532179727059092 -1 -1 -1 0 -1 4 -2 0
1532179727125912 0 -2 -2 2 1 -1 0 0
1532179727139875 -1 -1 -1 0 -2 -4 -2 -1
1532179727191738 0 -2 -2 -1 -1 -1 0 -2
1532179727212684 0 -1 -1 -2 3 -1 -1 -2
1532179727267535 -1 -2 -2 -2 -2 -1 0 0
1532179727280500 0 -1 -1 -1 -10 -20 -3 -1
1532179727312428 -2 -1 -1 -3 0 2 -1 0
1532179727334371 -1 0 -1 -1 -1 5 1 -2
1532179727349315 -1 -1 -1 -1 0 -1 0 -1
1532179727386217 -1 -1 0 2 3 6 -1 0
1532179727400191 -1 -1 -1 -1 -2 -3 -1 0
1532179727417135 -2 0 -1 -2 -1 -3 -2 -2
1532179727447063 -2 -1 0 -3 1 -4 -1 -2
1532179727485951 0 -3 -1 0 -2 -3 -1 0
1532179727498916 0 -3 -3 -1 0 2 -1 -1
1532179727528855 0 -1 0 0 -2 -1 1 0
1532179727550778 -1 -1 -2 -1 -2 -5 0 -1
1532179727588676 -1 -2 -1 -1 -1 2 -2 1
1532179727604634 0 0 -1 -2 -4 -5 -1 -1
1532179727641562 -2 0 -1 -1 4 0 -3 0
1532179727665480 -1 -1 -2 1 -1 0 0 1
1532179727694393 0 -1 0 -1 -3 -3 -1 -1
1532179727709353 0 -1 0 -1 1 2 0 -1
1532179727748248 -2 -1 0 -2 -2 -2 -1 -1
1532179727776182 -1 0 -1 -1 0 -2 -2 -1
1532179727814072 -1 -2 -1 -3 0 2 -2 -1
1532179727851972 -1 -1 -2 -2 -4 1 -2 -1
1532179727868926 -1 -1 -2 0 1 2 -1 0
1532179727907822 -2 1 0 0 2 2 -1 0
1532179727917795 -2 -1 1 0 -1 -2 0 -2
1532179727956691 0 0 -3 0 1 3 0 0
1532179727962685 -2 0 0 -3 0 1 -1 -2
1532179727986611 0 -2 -3 0 0 3 -2 0
1532179728023512 -1 -2 -1 -2 2 3 -1 0
1532179728054430 -2 -1 -2 0 -1 1 -1 0
1532179728076377 1 -1 -1 -1 -2 -2 0 -1
1532179728121254 0 -1 -1 -2 -1 2 1 -1
1532179728183085 0 -1 -1 -1 -1 -1 -2 0
1532179728197048 -1 -1 -1 0 -1 -2 -1 -1
1532179728212008 0 0 -2 0 -1 -3 -1 0
1532179728232952 -1 -2 -1 -3 -2 -3 -2 -1
1532179728264867 0 -1 0 -1 -3 -4 -2 0
1532179728308750 1 -1 -2 0 1 0 1 -1
1532179728346649 -2 -1 -1 -2 -2 -2 -2 0
1532179728369587 -1 0 0 -1 -1 -1 0 0
1532179728391539 0 -1 -1 -1 -2 -1 0 -1
1532179728451369 -2 -3 -2 1 -1 -2 0 0
1532179728489267 -1 -1 -1 0 -2 -4 -2 -1
1532179728550104 -1 -2 -1 0 -2 -2 -1 -1
1532179728631886 2 -1 -1 -1 -3 0 0 -2
1532179728721647 -1 -2 0 1 0 -2 0 -1
1532179728789465 -2 -1 -1 1 0 0 -1 0
1532179728810410 1 -1 1 -1 0 -1 -2 -2
1532179728857283 -2 -2 -2 -1 0 -1 1 -1
1532179728940062 0 -1 2 -2 0 -3 -3 -1
1532179728998905 -1 0 -2 -2 0 3 -2 -3
1532179729005886 0 -2 0 0 -1 0 -1 -1
1532179729058744 0 0 -2 0 -1 1 0 0
1532179729102627 -3 -1 0 -1 0 -1 -1 -2
1532179729187400 -1 0 -1 -3 -4 -3 -1 0
1532179729194382 -1 -1 -2 0 0 1 0 -1
1532179729231283 -1 0 0 0 -2 -1 0 -1
1532179729279155 -1 -2 0 0 -1 0 0 0
1532179729308077 -2 0 0 -2 -1 1 0 -1
1532179729351960 1 -1 1 -1 0 -1 1 -1
1532179729381880 1 -1 -1 -1 -1 -2 -1 -1
1532179729464659 -2 -2 -1 -1 -1 -2 -1 -1
1532179729501560 0 0 -2 0 -1 -1 -1 -1
1532179729516520 0 -2 -1 0 -2 -3 -1 -1
1532179729585337 1 -2 0 -3 -1 -1 0 -1
1532179729630216 -3 0 -2 -2 0 2 -1 -3
1532179729651170 0 0 -2 -3 -2 2 0 0
1532179729673101 -3 -1 -1 0 -3 -1 -1 0
1532179729780814 0 -1 -1 -1 2 3 -1 0
1532179729830681 -1 0 -1 -1 0 -2 -2 1
1532179729854616 0 -3 -1 -2 -2 -2 0 -2
1532179729875560 0 0 -1 0 -2 2 0 -1
1532179729899496 -1 -2 -1 -1 3 4 1 -3
1532179729928419 0 1 -2 1 -3 -3 0 0
1532179729950360 0 -1 -1 -1 -1 -1 -4 -2
1532179729981278 -1 -1 0 -2 1 0 -1 1
1532179730019176 -2 0 -2 -3 -1 -2 -2 -1
1532179730034136 0 -2 0 -1 -2 -1 -2 -1
1532179730072034 -1 0 0 0 0 -1 1 -3
1532179730093976 1 -1 0 -1 1 -1 -3 0
1532179730138857 -2 -1 -1 -1 -2 -1 0 0
1532179730153816 -1 0 -1 -2 -2 -1 1 0
1532179730176755 1 -1 0 -1 -2 0 -2 -1
1532179730190718 0 -2 1 -1 1 -1 -2 -1
1532179730220637 0 -1 -2 -2 -2 -3 -1 -2
1532179730230611 -3 0 1 -1 -2 -3 1 -1
1532179730260531 -1 0 -2 -1 0 3 -2 -1
1532179730273496 -2 0 0 -2 -1 -2 -1 0
1532179730297432 -2 -1 -2 0 -2 -1 -1 -1
1532179730311394 -2 -2 0 -2 0 2 -1 -1
1532179730355288 0 -1 -1 1 1 0 -1 0
1532179730386195 -1 0 0 1 -2 -1 -1 -2
1532179730394173 -2 0 -2 -1 -1 -1 -1 -2
1532179730463004 0 7 0 0 -3 -2 0 -1
1532179730500888 -2 -3 -1 -3 -2 -1 1 -2
1532179730536792 1 -4 1 -1 -3 -2 -2 1
1532179730573694 -2 0 -1 -2 0 1 1 0
1532179730596632 -1 0 -1 -1 -1 -1 -1 -1
1532179730619571 -1 -2 -1 -2 -2 -2 1 0
1532179730633533 -3 -2 -1 0 -1 0 -1 -1
1532179730656472 -1 1 -1 -2 0 -2 0 0
1532179730671432 -1 -2 0 -1 -2 3 -2 1
1532179730695367 -1 0 -1 0 -2 -2 -2 -1
1532179730716311 1 -2 -2 -1 0 0 -1 -2
1532179730777161 -1 -2 -1 0 -1 -2 1 0
1532179730791112 -3 -2 -2 -2 0 -2 -1 -1
1532179730815048 0 -1 -1 -2 -2 -1 -1 -1
1532179730836990 -1 0 -1 0 -2 -1 -2 0
1532179730873891 1 -3 -2 -2 -1 1 1 -2
1532179730896829 -2 1 1 -1 1 2 -1 -1
1532179730942707 -1 1 -2 -1 -3 -3 -2 0
1532179730978611 0 -1 0 -1 1 -1 -1 -1
1532179731030472 -1 -1 -1 0 -1 -5 0 -1
1532179731053411 -1 -1 0 -2 -2 -2 0 -1
1532179731098290 -2 -1 0 -1 -1 -1 -2 0
1532179731136189 -2 0 -2 -1 0 -1 -1 -2
1532179731150152 -1 -2 -1 -2 1 3 -1 -1
1532179731176082 -1 -1 0 0 -1 3 -1 -2
1532179731198023 1 0 0 -2 -3 -4 -4 -1
1532179731211986 -2 -1 -1 -1 -2 2 0 1
1532179731248888 -2 -2 -2 -1 -1 -4 -1 -1
1532179731255869 -1 -1 -2 -1 -2 -6 -2 -1
1532179731301746 -1 -1 -2 0 2 -3 -1 -1
1532179731338648 -1 -2 -3 -2 -2 0 -1 0
1532179731348621 0 -2 0 -2 -2 -3 -1 0
1532179731383527 0 -1 -1 0 0 0 1 -1
1532179731406466 -2 -1 -1 0 -3 -2 -2 -1
1532179731436387 -1 -1 0 -1 -1 -1 0 -2
1532179731459324 -1 0 -2 0 -2 0 -1 -3
1532179731496226 -2 -2 0 0 1 -2 -1 1
1532179731519165 -1 -1 -1 0 -2 -4 -1 -3
1532179731533128 0 -1 -1 -1 1 5 2 -1
1532179731580003 -1 0 -1 0 -2 -1 0 -1
1532179731616903 -2 -2 0 -2 -1 -2 -2 1
1532179731646824 -1 -1 -2 -1 -3 -5 -2 -1
1532179731653805 -2 -2 0 -1 -2 -1 -1 -1
1532179731683725 1 -1 -1 1 1 -2 0 -1
1532179731698685 -1 -1 -1 0 -1 -1 1 -2
1532179731721624 0 -1 -1 0 -2 -2 -1 -1
1532179731767501 -1 1 -2 -1 4 19 2 0
1532179731772488 -1 -3 -2 -3 5 15 0 -3
1532179731818364 1 2 0 -1 -4 -12 -4 1
1532179731886184 -2 -1 1 0 -6 -18 -2 -1
1532179731925080 0 2 2 6 4 -31 -9 0
1532179731939042 -1 4 11 15 -8 25 20 -3
1532179731976941 72 17 1 0 -18 -38 -13 5
1532179731998885 14 3 2 1 6 14 -3 1
1532179732012844 -11 1 -1 4 7 -3 2 -6
1532179732044760 -71 -44 -12 -9 -13 10 -2 0
1532179732066701 20 17 3 3 -14 -19 11 99
1532179732095623 91 34 2 -4 -4 -3 3 -77
1532179732127538 42 1 -3 1 1 36 -9 -1
1532179732172434 -29 -28 -8 -17 -8 -14 -5 -66
1532179732203337 -55 -39 -6 -5 -3 -5 -15 -6
1532179732216301 -26 -53 -12 -16 -2 -13 -19 5
1532179732240236 -74 -10 5 -1 -32 -23 -25 -31
1532179732269177 -10 -68 -4 6 1 19 12 18
1532179732324013 31 28 13 20 21 -1 10 14
1532179732360913 30 26 12 3 -9 -11 6 9
1532179732396817 -5 24 1 -11 -14 -10 0 0
1532179732433719 6 5 4 10 -9 -71 -24 -9
1532179732481592 25 3 -5 -5 -22 -67 -21 -10
1532179732517496 -16 -2 11 14 0 -10 4 8
1532179732524477 -10 -2 -2 -5 25 -31 -14 -6
1532179732562376 6 10 1 -12 -10 14 -5 -2
1532179732599277 -7 7 -6 -6 -8 -1 2 -2
1532179732644157 -5 -20 -8 4 1 3 3 0
1532179732681057 -12 -6 -12 3 -5 -1 -3 -5
1532179732711975 -4 -7 7 7 -8 16 1 0
1532179732756869 -5 6 10 -3 -4 -5 -3 -7
1532179732779807 4 -3 -10 -6 -6 -4 0 1
1532179732809727 1 -19 -7 -2 -1 7 5 5
1532179732841642 -3 32 8 3 1 6 4 -6
1532179732845633 -3 9 0 1 -11 14 3 1
1532179732923423 2 -5 -9 -2 2 -1 -4 -3
1532179732989247 -12 -5 -1 -6 -9 0 0 -3
1532179733012186 -8 -12 -5 -2 0 4 3 1
1532179733084991 -10 2 0 1 -13 8 -2 -4
1532179733127877 -2 3 1 -5 -10 -3 -1 1
1532179733131866 -1 -1 -1 -2 -4 1 3 1
1532179733169765 -8 -3 1 3 8 4 4 -1
1532179733193700 -4 14 6 12 1 10 8 4
1532179733205668 -3 1 -1 -7 -9 -7 -6 -8
1532179733247557 0 -19 -1 3 2 6 1 4
1532179733274485 -10 -21 -6 1 -2 -3 4 -3
1532179733311386 23 -8 -4 -2 -6 0 -2 -1
1532179733326346 1 25 6 0 -1 -9 -5 0
1532179733350281 -12 -10 -2 -1 -2 5 -7 -2
1532179733364244 0 -21 -15 -4 -5 13 0 -4
1532179733386186 12 8 2 -1 -8 -18 -2 0
1532179733433060 -3 0 3 5 -25 -25 -2 0
1532179733469962 -21 -10 12 -3 -7 -6 -3 -4
1532179733475957 -18 10 1 -4 0 14 3 -1
1532179733551742 -8 -18 2 -2 2 13 1 -1
1532179733589642 -8 3 6 2 11 -7 -1 0
1532179733672458 -8 -2 -4 -5 -27 -12 -2 -1
1532179733711355 -6 -18 -8 -13 -13 -15 -5 -5
1532179733746261 -14 16 1 -4 -3 16 0 -2
1532179733798122 -5 -12 0 -2 -6 -1 -2 -1
1532179733830037 -4 7 -1 2 3 -10 -1 1
1532179733866938 3 -25 6 -1 -1 -9 -2 0
1532179733880901 -10 -16 -11 -3 -2 2 -2 -1
1532179733904837 -10 -52 -14 -1 -8 -7 -4 2
1532179733918799 4 5 -7 1 5 5 -6 -2
1532179733934756 -1 -9 -18 3 2 0 2 0
1532179733947722 21 -3 -1 -2 2 -2 4 -2
1532179733989611 -30 -24 -6 2 -1 -7 -4 -7
1532179734025514 -10 -3 -5 5 8 8 4 1
1532179734037482 -5 -16 -2 -4 -2 13 -2 -4
1532179734067402 14 -15 -3 -3 1 -4 -1 2
1532179734114277 3 -3 -4 0 -4 -1 -3 -3
1532179734121258 -5 -7 2 -2 -4 -2 -2 -4
1532179734183093 -4 8 4 -3 -10 1 -4 -3
1532179734197056 0 6 -1 -1 -11 2 1 -1
1532179734226975 -7 -3 -4 7 14 -9 -2 -5
1532179734271855 -7 -9 -4 -2 1 1 -1 -1
1532179734302772 -4 -2 -1 -3 8 2 0 1
1532179734309759 -10 2 2 -3 0 2 0 -1
1532179734354634 -1 0 2 6 -12 -8 -2 1
1532179734369594 -2 8 5 -4 -6 -5 -3 0
1532179734384554 5 7 1 3 6 -11 -2 0
1532179734405514 -9 0 -1 -1 -6 7 1 -2
1532179734429433 11 14 -1 -3 -2 8 4 3
1532179734459354 10 -4 1 2 3 -7 1 4
1532179734476318 -4 8 -4 -1 0 -2 -3 -2
1532179734497253 -2 -1 1 -3 -4 -7 -4 -1
1532179734526175 -1 -3 1 -2 1 0 -3 -1
1532179734542132 -3 0 1 2 7 -4 -3 -2
1532179734589021 -4 2 1 2 -3 5 0 -1
1532179734594991 -3 -4 -2 -5 -1 -4 -1 -2
1532179734631892 -2 -2 0 -3 3 4 0 -1
1532179734646852 -1 -3 -3 -1 0 -9 0 -2
1532179734669791 0 -1 -1 2 0 3 0 1
1532179734736613 -1 0 -4 -3 -6 -29 -4 -1
1532179734745604 -2 -4 -5 -1 -3 -29 -4 -2
1532179734783496 -1 -5 -5 -5 7 21 2 0
1532179734826372 -1 2 -1 6 9 -8 0 1
1532179734848314 -2 -1 -1 4 0 16 -1 -1
1532179734870255 1 2 -1 -2 1 4 2 0
1532179734939072 0 -2 1 -1 1 -21 0 -2
1532179734960015 -1 -3 -2 -3 -6 -4 0 -2
1532179734991929 -1 -3 -2 -4 -4 19 0 -2
1532179735050773 0 1 0 -1 11 3 1 1
1532179735074709 0 -2 -1 -1 1 6 -2 0
1532179735110613 0 1 2 5 -26 -17 -1 1
1532179735173444 -2 -1 -2 0 14 -3 0 0
1532179735188404 0 -1 -1 -2 -3 -1 -2 -1
1532179735292126 -1 -2 -1 0 -1 0 -2 -2

1532179735351968 -2 0 -1 -2 -1 -18 -3 -2
1532179735389866 -1 -1 -1 -1 1 -10 0 -4
1532179735402831 2 1 0 -1 -7 -13 0 8
1532179735449705 3 -2 0 0 -3 -4 -1 15
1532179735463668 26 -5 -4 -1 -3 1 4 -5
1532179735501566 -17 3 -1 1 1 -7 -3 -6
1532179735546447 2 -1 -1 -3 0 6 1 -4
1532179735569386 -1 -1 0 -1 -1 3 -1 6
1532179735614266 -14 1 1 0 -2 -7 -1 -3
1532179735667147 1 -1 -1 -1 -3 -6 -1 -2
1532179735703065 0 -1 -1 -2 -1 -3 -1 3
1532179735802802 4 -3 -2 -2 19 4 0 2
1532179735848678 -1 -1 -2 -1 -1 -1 0 -1
1532179735876604 -4 -2 -3 -1 -5 -7 -3 -1
1532179735929463 0 -1 -1 0 -5 -1 -2 1
1532179735966364 1 0 0 1 -1 -1 1 -1
1532179735996292 0 -1 0 -1 -1 -3 -2 1
1532179736040174 -2 -2 -2 1 6 -1 -1 0
1532179736109001 -2 -1 -1 -1 -2 -2 -1 -2
1532179736138910 0 0 -2 -3 -2 0 0 2
1532179736162846 -2 -1 -2 0 2 -1 -1 1
1532179736176809 0 -1 -1 0 1 3 -1 -1
1532179736213710 -2 0 0 -1 1 0 -1 -1
1532179736244628 -2 -1 -1 -1 -1 -2 0 0
1532179736273551 1 -2 1 -2 -3 -2 -1 -2
1532179736288510 -1 -1 -1 -2 -2 -4 0 0
1532179736328403 0 -1 -2 0 0 -2 -2 0
1532179736334389 1 1 -1 -2 -3 0 -3 -1
1532179736401209 -2 0 -1 -2 -1 -2 0 -1
1532179736416169 -2 -2 -1 -2 -3 0 0 -1
1532179736448084 0 -1 -1 -1 3 1 1 -3
1532179736491967 0 -2 -2 1 0 0 0 -1
1532179736504932 -1 0 -2 -1 -3 -2 -1 -1
1532179736519892 -2 0 1 -1 0 -1 -1 0
1532179736558788 -2 -2 0 -1 -2 -3 -1 -1
1532179736573748 -1 -2 -1 0 -1 -2 0 -1
1532179736604667 -1 0 0 -1 -1 -2 0 -1
1532179736643561 0 0 0 -1 -2 0 0 0
1532179736649545 -2 0 -1 0 -1 1 1 -1
1532179736694425 -1 -1 0 -2 1 0 -1 -1
1532179736708387 -1 -1 -1 -1 -3 0 0 1
1532179736731326 -1 -1 0 0 -1 -3 -3 0
1532179736753268 -1 -2 -2 0 1 0 -1 -2
1532179736778201 1 -2 -2 0 -1 -1 0 -2
1532179736791166 -2 -1 -1 -3 2 -2 0 -1
1532179736814105 -2 1 -1 -2 1 0 -1 0
1532179736837044 0 -1 1 1 -1 -1 -2 -2
1532179736851010 -2 -2 0 -2 2 3 -1 -1
1532179736873950 -1 -1 0 -1 -2 -2 -1 0
1532179736897917 -2 0 -1 -1 -2 0 -1 -2
1532179736933820 0 -2 -3 -2 -3 1 -1 0
1532179736956759 1 -3 0 0 2 1 1 1
1532179736970722 -1 -1 -1 -2 -2 1 -2 -1
1532179736996652 -2 -1 -3 -2 -1 -2 -1 -1
1532179737008621 -2 -1 1 0 -2 -1 -1 -1
1532179737039538 -1 0 -2 -1 -3 -1 -2 -1
1532179737054498 0 -1 -1 0 -1 -1 -1 0
1532179737091399 0 0 -1 -1 0 -1 0 0
1532179737114343 0 -2 -1 0 -2 -1 1 -1
1532179737128317 -1 -1 -1 0 -2 -2 -2 -1
1532179737151256 0 -1 -1 -1 -1 -2 -2 -3
1532179737188157 -1 -2 0 -2 -2 0 -1 -1
1532179737211096 -3 -1 -1 1 1 -2 -2 -1
1532179737234035 -4 -2 -1 -1 -3 0 0 1
1532179737247997 -1 1 0 -1 0 -3 -1 0
1532179737294872 -1 0 -1 0 0 1 1 0
1532179737332771 -1 0 -2 -2 -2 -4 -1 -2
1532179737354712 -1 -1 -2 -1 1 -1 -1 -1
1532179737393608 -2 -1 1 -1 2 0 -1 -1
1532179737421534 1 0 -1 0 -1 0 0 -1
1532179737428515 -1 0 0 0 -1 -2 -2 -1
1532179737451453 0 -1 0 -2 -5 -1 -1 0
1532179737475391 -2 -2 -2 1 1 -2 0 0
1532179737488355 -1 0 0 -1 0 1 -2 -1
1532179737511293 -3 -1 -1 -2 -2 -3 -2 -1
1532179737534231 -1 -2 -1 -1 0 2 -1 0
1532179737556173 -3 -2 -2 0 -3 0 0 -1
1532179737571133 -1 -2 -1 -1 -1 -2 0 -1
1532179737594071 1 -2 -1 -2 -2 -1 2 0
1532179737608035 1 -1 -3 -2 5 -4 -2 0
1532179737630973 -1 0 -2 -1 -1 -1 -2 -1
1532179737653912 -1 0 -1 0 0 0 0 0
1532179737683831 0 -1 0 -1 -1 -2 -2 -1
1532179737699789 -3 1 -1 -1 -3 0 -1 -2
1532179737727715 0 -2 -1 0 -1 0 -1 -1
1532179737774589 0 -3 -2 -1 0 0 -2 -1
1532179737787554 0 -1 -1 -2 -2 1 0 1
1532179737811490 -3 0 1 0 0 0 0 -2
1532179737835427 0 -1 -1 -1 0 -1 -3 0
1532179737856370 1 -1 -1 -1 -3 0 0 -1
1532179737871330 0 0 -1 -2 -2 -3 1 -1
1532179737894269 1 -1 -1 -1 -3 -1 -1 -3
1532179737916210 -2 -2 0 -1 3 1 2 1
1532179737939149 -2 -2 -2 0 -3 -2 0 0
1532179737962088 -1 -1 -1 -2 -1 -1 -2 -1
1532179737993005 -1 -1 0 -1 -1 0 -1 -1
1532179738013949 -1 1 -1 -2 -1 1 0 -2
1532179738067805 -1 -1 -2 -1 0 0 -1 -1
1532179738095730 1 -2 -1 -1 -2 -1 -1 -1
1532179738119666 0 0 -1 -2 -1 -1 0 -1
1532179738134626 -2 -1 -1 0 1 -2 -1 0
1532179738164546 -2 -1 -2 -2 0 0 1 0
1532179738201448 1 0 -2 -1 0 0 1 -1
1532179738216408 -1 -1 -2 -2 0 -2 -1 -1
1532179738253308 -1 -1 0 0 -2 -1 -3 -1
1532179738276248 -1 -3 -1 -1 -1 -3 -1 -2
1532179738291208 -2 -1 -2 0 -2 0 0 -1
1532179738314162 -2 1 0 0 -1 0 0 0
1532179738337085 0 0 -1 -1 -1 -3 0 -1
1532179738351048 0 -1 -1 -1 -1 -1 -1 0
1532179738373986 -1 -1 -1 0 -1 -2 -1 -1
1532179738396941 -1 -1 -1 -2 -1 0 0 1
1532179738410887 0 -1 -1 -1 0 1 0 1
1532179738433826 0 -2 1 1 -1 2 -2 -2
1532179738463761 -1 -1 -2 -2 -1 -2 -1 1
1532179738478706 -1 -1 -2 0 -1 -1 1 -1
1532179738501645 1 -1 -1 0 -2 -3 -1 -1
1532179738532562 -1 -2 -1 -2 -2 0 1 -2
1532179738561485 -2 -2 0 1 -1 0 -1 -1
1532179738599384 -1 0 -1 -2 1 -2 1 2
1532179738621325 -1 -1 1 -1 -2 -1 -1 -1
1532179738637283 -2 -1 0 -1 -4 -1 -2 -1
1532179738675181 -1 -1 -1 -1 0 -1 0 -1
1532179738704120 -2 -1 0 0 -1 -2 -1 -1
1532179738734023 0 1 -2 -2 0 -2 -1 -1
1532179738763943 -2 0 -2 -1 -4 -1 -1 -2
1532179738778904 0 -1 -1 -2 0 -1 -3 -1
1532179738793863 -2 -2 -2 0 0 0 -1 0
1532179738831762 0 -1 -3 -2 -1 -1 -1 -1
1532179738852706 -1 -1 -2 -2 -2 -1 1 -2
1532179738876642 -2 -1 -1 -1 0 0 0 -2
1532179738928503 -1 -1 -1 -1 0 1 -1 -1
1532179738938477 -1 -1 -3 -2 -2 -1 -1 -3
1532179738989341 -1 -1 0 -2 -3 -2 -2 -1
1532179739019261 1 -1 -1 -2 -1 -1 -1 -1
1532179739059154 -3 -1 -1 -1 -1 -1 -1 -3
1532179739086082 -2 -1 -1 0 -2 0 0 -1
1532179739123980 -2 0 -1 2 1 -1 -2 0
1532179739153901 -2 -2 -2 -3 -2 -3 1 -1
1532179739177844 0 -1 -1 -1 -2 0 -1 -3
1532179739215735 -2 0 0 -1 -1 0 0 -1
1532179739275576 0 -3 -2 0 0 -1 -1 0
1532179739333421 -1 0 -1 -1 -3 -2 -2 1
1532179739379297 -1 0 -2 0 0 0 0 -1
1532179739439152 -1 0 -1 -1 2 0 0 0
1532179739468061 0 1 -1 -1 -3 -1 0 -1
1532179739527901 0 -2 0 -3 -1 1 0 -1
1532179739550840 -1 -2 -1 -2 -2 -5 -3 -1
1532179739619661 -2 -2 -1 0 -1 -7 -2 0
1532179739657554 1 -1 -1 1 0 3 1 0
1532179739679495 0 -2 -1 1 -3 -3 -1 -1
1532179739701436 -2 1 -1 0 -1 -1 2 0
1532179739747314 -1 -1 -1 -2 -2 -1 -2 -2
1532179739776237 -1 -1 -1 -1 -1 -3 -1 0
1532179739822114 0 1 -1 -2 -1 0 -1 0
1532179739859015 -1 -1 1 -1 -1 -1 -1 -2
1532179739903895 0 0 -2 -1 -2 -2 -1 0
1532179739948775 -2 -2 0 -2 -1 -1 -1 -1
1532179739958753 0 0 0 -1 -1 -1 -1 -2
1532179739994652 1 -3 -1 -1 0 -1 -1 0
1532179740024572 0 0 -2 -1 0 0 -1 -2
1532179740039533 -3 0 0 1 -1 0 0 -1
1532179740069452 0 -1 -1 1 -2 -1 0 1
1532179740098375 -2 -1 -1 -2 -2 -1 -3 -1
1532179740136274 0 1 -1 -1 0 0 -2 0
1532179740150237 0 0 -1 -1 -2 -2 -2 -2
1532179740190130 1 -2 0 -3 0 -3 1 0
1532179740219053 -2 -3 0 0 -1 -1 -2 -1
1532179740241991 -1 1 0 -2 0 0 0 1
1532179740254957 -1 0 -2 -1 0 0 -1 -2
1532179740286871 -2 -1 0 0 -2 0 0 -1
1532179740301830 -2 -1 -1 -2 -2 0 -1 -1
1532179740339730 -1 -1 0 -2 -2 -3 -1 -2
1532179740361671 -3 -1 0 0 1 -1 0 -2
1532179740384610 0 0 0 -1 0 0 -1 0
1532179740421510 0 -1 -1 -1 -1 -2 -1 -2
1532179740443452 0 -1 -1 -1 -3 -1 -1 -1
1532179740459409 -1 -1 -1 -2 -1 -1 -2 0
1532179740504290 0 1 -2 0 -1 -2 -1 -2
1532179740521244 -2 -1 -1 -1 -1 -2 -1 -1
1532179740541191 1 -2 -1 0 0 -2 0 0
1532179740564129 -1 -1 -1 -1 1 -1 0 0
1532179740601031 -1 -1 0 0 -1 -2 0 -1
1532179740617985 0 -1 0 -2 -2 -3 -1 -2
1532179740661868 -2 -1 0 0 -1 1 1 -2
1532179740683810 -1 -1 1 -3 -2 -1 0 -2
1532179740698772 -1 -2 -1 -1 -1 -1 0 -2
1532179740721708 -1 1 -2 -1 -1 0 0 -2
1532179740744646 -1 -2 -1 -1 -2 0 0 -2
1532179740759607 -1 -3 -1 -1 -1 -1 -2 -1
1532179740782545 -1 -1 -2 -1 0 0 2 0
1532179740804486 -1 1 -2 -2 -1 -1 -1 0
1532179740819447 0 0 -1 -1 -2 -1 -3 -1
1532179740841388 -3 -1 -2 0 -1 -1 -1 -1
1532179740871308 -1 -1 0 -2 -1 -1 -2 -1
1532179740901228 -2 -2 -1 -2 0 -2 -1 -1
1532179740924167 0 0 -2 -2 -1 -1 -2 -1
1532179740962066 0 -1 -3 -1 0 -1 -2 -1
1532179740984007 0 0 -1 0 -1 0 -1 -1
1532179741021906 0 0 -2 -1 -1 -1 -2 0
1532179741043846 -2 -3 0 0 -2 0 0 1
1532179741058807 0 -1 -2 0 1 4 0 -2
1532179741081746 -1 0 -2 0 1 7 0 -1
1532179741103687 -1 -3 0 -1 0 -12 -1 0
1532179741141586 -3 -4 -4 -2 5 -14 -5 -4
1532179741164524 2 -3 0 0 8 -14 13 2
1532179741202423 13 14 9 12 18 -41 11 9
1532179741224364 -48 -10 -7 -8 18 11 -22 18
1532179741237329 20 7 1 0 9 26 4 -8
1532179741247303 -9 -3 -4 -13 -8 -24 0 -1
1532179741299164 -25 -7 0 1 -11 41 12 14
1532179741307143 -21 -5 -8 -11 -2 -5 -9 -9
1532179741360002 1 -3 -5 -2 7 22 0 -1
1532179741366983 -4 -21 -8 -8 -28 -19 4 22
1532179741411863 -5 -4 7 19 -22 -1 1 17
1532179741427820 -7 10 -5 -7 -62 -13 -9 7
1532179741487660 -6 -26 -7 -19 -10 -9 0 -6
1532179741523564 21 29 2 12 55 6 -6 -1
1532179741546503 -5 3 -3 -13 -18 1 1 -8
1532179741584401 -22 -24 1 2 13 -5 -1 -2
1532179741623297 34 9 -4 1 -11 14 -1 5
1532179741712060 0 16 -4 -5 13 -9 -3 -2
1532179741763926 -21 3 2 -7 -12 -26 -10 -9
1532179741800823 -22 5 -7 -1 6 27 -6 -4
1532179741862657 14 -12 -2 16 9 -3 7 7
1532179741875622 12 -7 3 13 9 -6 2 -2
1532179741914518 -4 -6 3 -3 -6 -17 -1 -6
1532179741929478 -10 0 -3 -1 -10 0 -1 -4
1532179741966379 8 1 -1 -3 -5 -6 -3 -2
1532179741989319 14 -6 -13 -1 -3 -19 -2 3
1532179742034198 -31 2 0 -7 0 5 -5 -6
1532179742074092 -16 -15 -16 -1 6 10 5 -4
1532179742140912 32 12 3 0 6 10 -2 1
1532179742160860 -17 -7 -8 -9 -5 -12 -5 -4
1532179742206737 -6 6 -1 -3 4 6 -1 -1
1532179742251617 -13 -13 -5 -4 -1 -9 -2 -2
1532179742296497 0 -5 -1 1 -21 4 0 0
1532179742386266 -4 -6 -4 -1 7 5 1 0
1532179742455073 3 14 5 1 -28 -3 1 0
1532179742460060 11 -5 4 3 15 23 6 4
1532179742484000 9 1 -7 -5 -2 -14 -6 -3
1532179742506934 13 -9 -14 -4 -1 -20 -7 -1
1532179742543836 22 11 8 1 2 11 -3 2
1532179742574752 -9 7 5 -1 3 -9 -5 -3
1532179742627612 -6 -4 -11 -1 -4 -7 -2 0
1532179742641574 10 -6 -8 0 5 -1 -1 -4
1532179742694433 0 -4 -7 -4 4 1 -3 -1
1532179742814113 0 12 3 -4 -3 -7 -3 -1
1532179742852015 -20 8 -1 -5 -1 21 -2 -2
1532179742902875 -6 0 -3 -1 13 -10 -6 -3
1532179742948769 13 8 1 -3 5 12 7 3
1532179742986652 0 -28 1 -1 -9 -8 -1 -3
1532179743008593 1 4 0 -2 -8 8 -1 -1
1532179743061452 -2 23 14 5 1 7 4 3
1532179743099350 7 30 28 1 -5 -5 -3 -1
1532179743129270 -7 -16 -9 -3 -1 -12 -5 -2
1532179743143232 2 -5 -1 -2 1 4 -2 -1
1532179743169164 -3 22 19 -5 -3 0 -2 2
1532179743196091 12 16 -13 -2 -2 -2 -1 -1
1532179743214044 -2 -4 -6 0 -1 1 0 -3
1532179743256929 2 -7 -3 -1 -2 0 -2 -1
1532179743263910 6 18 1 1 0 1 -1 0
1532179743308790 0 7 0 -2 -4 3 -2 1
1532179743337713 -3 -2 3 9 -3 4 1 -1
1532179743382593 12 -21 -1 -2 2 7 4 6
1532179743412513 -7 -3 -1 -5 -2 4 7 1
1532179743430465 -7 1 0 -3 2 -2 -1 -2
1532179743459397 -6 -3 0 10 4 5 -2 -1
1532179743498284 -3 -1 0 -4 -5 -14 -1 0
1532179743512246 -11 -7 2 -4 -6 10 -5 -3
1532179743536183 1 3 0 -2 -3 -1 1 -1
1532179743564107 -1 1 2 -7 -5 -15 -12 -5
1532179743615969 1 3 -2 -3 -3 0 3 2
1532179743625943 8 11 8 2 -1 0 0 -1
1532179743645888 4 -5 -3 3 -3 -9 -1 -4
1532179743659851 -5 -10 3 -1 0 3 1 0
1532179743714704 0 -5 2 0 -3 0 -1 -1
1532179743736646 2 -9 -6 -1 -2 -1 -3 -3
1532179743750608 9 -5 -8 -5 -6 -13 -10 -5
1532179743774545 -6 -10 -6 -2 -3 -1 1 -2
1532179743788508 -5 -19 -7 0 0 3 0 0
1532179743871286 13 -5 3 -2 -1 1 0 1
1532179743894225 21 11 4 -2 -1 -6 -4 -3
1532179743945088 -1 6 -1 1 -1 -1 0 -1
1532179743990966 0 3 0 1 0 -1 2 1
1532179744028864 2 2 0 -1 -1 -1 -1 0
1532179744073744 -8 -3 -1 -1 1 3 0 -2
1532179744088705 -4 -1 -2 -3 -1 0 -3 0
1532179744110646 -1 1 0 1 -1 -2 -2 0
1532179744134582 -2 -2 -2 -1 -2 -1 0 -3
1532179744170486 -4 2 0 2 0 4 1 -2
1532179744201404 -1 -4 -4 0 4 12 3 0
1532179744208385 0 1 0 0 1 -3 1 -1
1532179744231323 0 1 1 1 -2 -11 1 0
1532179744254262 -1 -2 0 -3 0 -1 -2 1
1532179744276203 0 1 0 2 11 5 0 -2
1532179744291163 -4 -4 -5 -3 6 -17 -6 -3
1532179744305126 0 0 3 0 -8 3 -3 1
1532179744330059 -2 -1 -3 -4 13 53 1 -2
1532179744375937 0 1 3 7 14 8 9 3
1532179744395883 4 0 1 -4 -48 -56 -5 -1
1532179744435776 -1 -3 -3 -4 3 68 9 0
1532179744448742 12 -2 -1 -2 -25 8 -4 3
1532179744470683 -5 0 0 -2 -4 -4 -2 -2
1532179744494619 -1 1 1 2 0 -16 -2 -2
1532179744508582 -2 -2 1 0 9 0 -3 -1
1532179744554459 -9 -1 0 -2 -5 1 -1 5
1532179744606321 -4 -1 -1 -2 -6 -3 -1 0
1532179744614299 -2 0 -2 1 -6 -12 -1 -3
1532179744636241 -1 1 0 -3 -57 -18 0 4
1532179744651200 0 1 1 1 0 -8 5 0
1532179744674138 -1 -2 -2 -3 -5 -8 -5 -2
1532179744688102 0 -2 -3 0 13 10 -2 -2
1532179744711041 -6 -2 -2 0 -7 -9 0 -4
1532179744740960 -7 0 -1 0 13 19 2 2
1532179744778859 -9 -1 0 1 -1 -10 3 -2

1532179744793819 5 -1 -2 -2 -3 -16 -1 -2
1532179744816757 2 -2 0 -1 2 14 -1 -2
1532179744830720 1 0 0 -1 -5 1 -1 -3
1532179744868619 -3 -3 -3 -3 13 21 1 -3
1532179744890560 0 0 0 1 -2 -2 -2 1
1532179744913499 3 0 -1 -2 -3 -3 -2 -4
1532179744966358 -2 -2 -1 -1 0 5 -3 -3
1532179744974336 -1 0 -1 0 -4 -3 0 2
1532179745019216 -2 0 1 1 7 7 0 -1
1532179745042155 0 0 -3 0 -6 -14 -2 0
1532179745087034 0 -1 -1 -3 0 3 -1 1
1532179745100998 0 -1 -2 -1 -1 -3 1 0
1532179745123936 -1 -1 0 -1 0 0 -1 0
1532179745130918 1 0 -1 -2 -2 -3 -1 0
1532179745152859 -1 1 -2 0 -1 -10 1 -1
1532179745167819 -1 -2 -2 0 -1 -2 -1 0
1532179745221675 -1 0 -3 -1 1 0 -1 -1
1532179745236635 0 -1 -2 -1 -1 -1 -3 0
1532179745273536 0 -3 -3 0 -2 -4 -1 0
1532179745296475 -1 -1 -2 0 -1 -2 -2 -1
1532179745334374 -3 -2 0 -1 -1 2 0 -1
1532179745371275 1 0 -1 -1 0 1 -4 -2
1532179745402192 0 1 1 0 0 1 1 -2
1532179745417152 -1 -1 0 -2 -2 -2 0 -1
1532179745439094 -1 -1 -3 -1 2 10 0 -1
1532179745476992 -1 -2 -1 -1 0 -1 0 0
1532179745514891 1 -2 -3 -1 3 -6 -2 -1
1532179745536832 -1 -1 0 -1 -1 -4 -1 -1
1532179745558773 0 -1 0 0 -5 -1 -1 -1
1532179745604651 -2 -1 -2 -2 1 -2 0 -1
1532179745643547 0 0 0 -3 -5 -4 0 0
1532179745656512 0 -1 -1 -1 -3 -1 -2 -1
1532179745679450 -2 -2 -1 0 -3 0 -3 1
1532179745694411 -2 -1 0 0 1 1 -1 0
1532179745716352 0 1 -2 1 3 0 1 2
1532179745746288 -2 0 0 -3 0 -1 1 -4
1532179745754251 0 -3 -2 -2 -1 2 -1 -1
1532179745791152 0 -2 -2 -1 -1 -2 -2 -2
1532179745814090 -1 0 -1 -1 -4 -3 -2 -3
1532179745837029 0 -1 -1 0 0 -2 -1 1
1532179745850992 0 -1 -1 -1 -3 -2 -2 -1
1532179745873931 1 -1 0 -1 -3 -1 1 -1
1532179745897866 -2 2 -1 -2 -1 -1 -1 -2
1532179745911835 -1 -2 -2 -1 0 -1 -1 -1
1532179745933771 -1 -2 -1 -2 -2 1 -2 0
1532179745956709 -3 0 -2 -2 -1 1 2 1
1532179745971670 -1 0 -1 -1 -1 0 -2 0
1532179745994608 -2 -1 -1 2 0 -3 -1 -1
1532179746016549 0 -2 -1 -2 0 0 -1 -1
1532179746030512 -3 1 -1 -1 3 3 -2 -1
1532179746054448 1 -1 -1 -1 -1 -3 -2 -2
1532179746076389 -1 -3 0 0 -3 -1 1 -2
1532179746099339 0 -2 0 -2 -1 -1 0 -1
1532179746152187 -2 -2 -2 0 0 0 -2 1
1532179746167147 -2 -1 -5 -3 -1 -2 -1 -1
1532179746175125 0 0 0 2 -1 -1 0 0
1532179746210032 -1 -1 0 0 1 1 -1 -2
1532179746233968 0 -1 -1 -1 -2 1 0 -1
1532179746256907 -2 -1 0 -1 -2 -1 0 -1
1532179746269872 -1 0 0 -1 -1 -2 -1 0
1532179746286828 -3 -1 -2 -3 -1 0 0 -2
1532179746332704 -2 -1 -2 -1 0 -2 1 -1
1532179746354660 -1 -1 -1 -1 1 -1 -1 -1
1532179746376586 1 0 -2 -1 -1 0 -3 -1
1532179746405509 -2 0 -3 0 -5 0 -2 0
1532179746444405 -1 -1 -1 -2 -1 -2 0 -2
1532179746498260 -1 -3 0 -1 -1 -3 0 -1
1532179746512234 0 -1 -1 -2 -2 -2 -1 -1
1532179746521200 0 -2 0 -1 2 4 -1 0
1532179746580043 1 -1 -3 -1 0 0 -2 0
1532179746599989 0 -2 0 -2 0 -3 0 -1
1532179746617941 0 -2 0 -1 -4 -3 -1 -1
1532179746647876 -2 0 0 0 -1 0 -1 -2
1532179746667808 -2 0 0 -1 -2 1 -3 0
1532179746678791 -1 -2 -2 -3 -1 -1 -1 0
1532179746708699 1 0 -1 -1 -2 -1 0 0
1532179746723659 -1 -1 0 -1 -1 -1 -3 -2
1532179746759562 -1 -2 -2 -2 0 3 -1 -1
1532179746773525 -2 1 -2 -1 -2 -1 0 -2
1532179746787488 -1 -1 -1 -1 0 0 1 -1
1532179746825387 0 0 -1 -2 -1 -3 0 0
1532179746834363 0 -1 -3 -2 -1 0 -2 0
1532179746864283 -2 -1 -1 0 2 -1 -1 -1
1532179746879242 -1 -2 0 -1 -3 -4 0 0
1532179746902183 -3 -2 -3 0 2 0 -1 -1
1532179746917141 -1 -1 -1 0 -2 -1 -2 -2
1532179746939082 -1 -1 -1 -1 -2 -1 -1 -2
1532179746947061 0 -1 0 0 0 -2 0 -1
1532179746991940 -3 -1 -1 -1 -1 -2 0 -1
1532179747028843 -1 -1 0 0 -1 1 -3 0
1532179747035823 -1 0 -1 -1 -1 -2 -1 -1
1532179747066741 -2 -1 0 -1 -2 -1 0 0
1532179747072724 1 1 0 -2 -2 0 0 -2
1532179747121594 -1 0 0 -1 -3 -1 -3 -1
1532179747126580 -1 0 -1 -2 -4 -1 -1 -2
1532179747152512 -2 -1 -3 -1 -1 -3 -2 -3
1532179747187419 -1 0 -1 -1 -1 1 -1 -2
1532179747201381 -1 -2 -1 0 1 -1 -1 0
1532179747224320 -3 0 -2 -1 -1 -1 -1 -1
1532179747246260 -1 -2 0 0 0 -3 0 -1
1532179747262219 -1 -1 -2 0 -1 -2 -1 -3
1532179747286154 0 -1 -1 -1 -3 -1 -1 -1
1532179747305104 -2 -2 0 -2 -3 -1 -2 -1
1532179747336021 -2 1 0 -2 -1 1 -1 -2
1532179747358960 -1 0 -1 0 -2 -3 -2 -1
1532179747442735 0 -3 -1 -1 -3 0 0 1
1532179747486618 -1 -1 -1 -1 0 -1 0 -2
1532179747517535 -1 -1 0 0 -1 -1 -1 -2
1532179747546458 -1 -1 0 -2 0 -2 -1 0
1532179747629237 -1 -2 -1 -2 -3 -3 1 -1
1532179747667136 -1 -1 -1 -1 0 0 2 0
1532179747698070 0 -2 -1 -1 -1 -2 -1 -2
1532179747726976 0 0 1 -1 -1 -1 -1 -1
1532179747770858 -2 -2 -2 -3 -1 0 0 0
1532179747801775 -1 -1 -2 -2 -2 0 -1 -1
1532179747922453 -1 -1 -1 0 -2 0 -1 0
1532179747967333 -2 1 -1 -1 -2 -2 -1 -2
1532179748020192 -1 -1 -1 -2 -1 -1 0 -2
1532179748055098 -2 1 0 -1 -1 0 0 -2
1532179748109951 -1 0 -2 -1 -1 0 0 -1
1532179748162810 -1 0 0 -1 2 1 0 -1
1532179748175778 1 0 0 -1 -3 -1 0 -1
1532179748214671 -1 -2 -1 -1 -1 0 -1 -3
1532179748236613 0 -2 -2 -1 -1 0 0 -1
1532179748295455 0 -1 0 0 -1 -1 0 0
1532179748340335 -2 -1 0 -1 -1 0 0 -2
1532179748387209 1 -1 -2 -1 -1 -2 -2 -2
1532179748424111 0 -1 -3 0 0 0 -1 -3
1532179748430095 0 0 -2 0 -1 -3 -1 -1
1532179748483951 1 1 -1 -2 -2 -2 2 -1
1532179748498911 -2 -1 0 -2 -1 -1 -2 0
1532179748551770 0 -1 1 -2 0 -1 -1 -2
1532179748557760 -2 -1 -1 1 -1 -3 1 -1
1532179748618591 -1 -3 -2 -2 -3 12 1 0
1532179748694388 -2 -4 -4 -7 -2 -4 0 1
1532179748715332 1 1 4 16 -3 1 0 1
1532179748732287 -4 0 -1 -3 18 24 1 0
1532179748769189 -6 -9 -3 2 -4 9 -7 -3
1532179748798111 -1 -2 0 1 -1 -13 0 -2
1532179748857951 -3 0 -2 -2 -3 0 -1 -1
1532179748888869 1 -1 1 -1 -5 -13 1 -4
1532179748934746 -1 -1 -1 0 6 17 -3 1
1532179748972649 -3 -1 0 1 -2 1 -1 -2
1532179749009546 0 0 -1 -1 -1 11 4 0
1532179749054426 -1 -2 -2 -1 -8 -9 -4 -1
1532179749084345 -2 -4 -4 -5 14 25 0 -3
1532179749130223 -2 -6 -2 -4 0 24 0 -2
1532179749206032 -1 -1 -4 -7 -1 21 2 0
1532179749325701 -2 0 -1 -1 5 3 0 0
1532179749376564 -1 0 -1 -2 1 -1 0 -3
1532179749467322 -1 -1 -1 0 -2 -2 -2 -1
1532179749587002 1 1 0 2 0 0 1 -1
1532179749616922 0 -2 -2 -2 -2 -2 -2 0
1532179749646842 -1 1 1 0 3 2 0 0
1532179749691737 -2 -1 -1 -2 -1 -1 0 0
1532179749720644 1 -2 -3 -2 -2 -1 -2 -1
1532179749759541 -3 0 -1 -2 -1 0 -1 -2
1532179749774500 -1 -2 -1 0 -1 1 -2 0
1532179749804420 -1 -2 -1 0 -1 -3 -1 -2
1532179749855284 -2 0 0 0 -1 0 -1 0
1532179749909140 0 0 -2 -3 -1 -1 0 -1
1532179749938063 0 -1 -2 1 0 0 -1 0
1532179749948036 0 -1 -2 -1 -1 -2 0 -1
1532179749983940 -2 -2 0 -1 -2 0 -1 -1
1532179750013860 -1 -1 -1 0 -1 -2 1 0
1532179750036799 -1 -2 0 -1 -1 0 0 0
1532179750066719 -1 0 -1 -1 -1 -2 -1 0
1532179750074705 0 -2 -1 0 -3 -1 -1 -1
1532179750089658 0 -1 1 -1 0 6 1 0
1532179750126558 0 1 1 -2 -2 16 2 1
1532179750156479 -2 -2 -5 -7 -13 -28 -4 -1
1532179750193380 0 0 1 0 -19 -39 6 3
1532179750223300 -33 -8 -9 -19 -17 -59 -23 -14
1532179750254217 12 6 -6 -10 -15 -2 -11 -7
1532179750291119 -3 3 4 6 1 -1 -2 4
1532179750322036 11 2 -7 0 5 12 5 15
1532179750366916 5 -1 0 -5 -10 20 2 1
1532179750402820 -5 35 -7 -6 -1 -8 -9 -1
1532179750433737 32 18 8 8 -11 -53 -15 7
1532179750451689 34 -2 -9 -11 10 -9 7 35
1532179750463658 32 14 1 8 23 33 -6 -7
1532179750500558 -18 1 0 -9 -21 -32 -6 7
1532179750518535 -8 -17 -10 -9 -5 -22 -3 -12
1532179750545440 -44 -17 -1 -10 1 -13 -11 2
1532179750583337 -16 -20 -1 11 -13 39 1 -3
1532179750606276 1 -6 -4 7 22 12 -3 1
1532179750674094 19 11 5 3 2 4 -20 -4
1532179750703017 -35 -45 -14 -5 36 35 -30 -12
1532179750733935 -4 62 2 -2 2 47 35 11
1532179750762857 38 -70 -4 3 26 72 6 5
1532179750801754 48 -22 2 -6 -64 -66 10 13
1532179750840649 66 46 10 0 29 -19 13 44
1532179750852629 8 12 -6 -20 -66 5 9 -5
1532179750876554 3 45 4 -3 -9 1 13 37
1532179750893523 6 10 11 -4 18 27 -11 -23
1532179750921433 -35 -14 5 14 1 -13 -9 -10
1532179750952373 18 -8 -12 -15 -37 -8 -15 -17
1532179751004212 -32 25 5 -4 15 5 -4 -3
1532179751034132 -16 19 12 16 10 -2 5 0
1532179751048095 -46 -39 -13 -15 5 7 -6 -13
1532179751087988 37 14 -6 1 1 -2 -2 -1
1532179751108932 -3 3 2 -3 7 4 2 1
1532179751160793 -7 1 -2 -14 -30 -2 -7 -2
1532179751193705 9 11 -3 -9 15 1 -2 3
1532179751250553 -48 -12 -16 -5 0 -24 -10 -4
1532179751326350 9 23 3 -4 6 23 6 3
1532179751348291 -2 14 4 -3 -1 -3 2 8
1532179751371231 7 1 7 4 14 -7 -1 1
1532179751387188 15 17 -2 3 -2 4 0 -1
1532179751440063 -1 -17 -8 0 5 8 1 0
1532179751470964 0 -4 -1 3 7 -3 4 1
1532179751490910 -17 -23 -7 -3 -13 -7 -1 -2
1532179751543769 1 -24 -3 1 -10 -9 -9 -1
1532179751550750 27 20 -4 -4 -7 15 1 -3
1532179751566708 7 0 5 28 -23 -19 -9 -1
1532179751610590 17 8 -1 0 16 4 -1 -3
1532179751648489 -3 -22 -4 6 43 4 -2 -3
1532179751679407 -27 -1 2 0 -32 3 0 1
1532179751685390 -18 7 -2 3 -1 5 -2 -3
1532179751716308 -8 0 0 4 3 -1 3 0
1532179751747225 -1 3 -3 -8 -13 -15 1 0
1532179751784126 -4 -10 -4 -14 1 -11 -5 0
1532179751791108 15 4 2 5 5 -9 -1 -2
1532179751823022 -13 -10 -5 -5 -8 -9 -6 -5
1532179751830004 -12 10 -1 -3 10 19 1 -1
1532179751850948 -8 -4 2 8 18 -3 0 2
1532179751875892 9 -5 -13 -10 -16 -8 -4 -2
1532179751905801 -7 -2 1 -4 15 17 -4 -2
1532179751941705 -16 15 9 2 -4 12 4 1
1532179751978606 0 5 -4 0 -15 -8 2 1
1532179751986592 23 -20 -6 -1 0 4 2 1
1532179752024483 -19 13 4 -4 -6 -15 -4 -4
1532179752061385 2 -15 -3 4 -9 -15 -12 -6
1532179752114243 -1 1 0 -3 -22 -16 -10 -1
1532179752136185 6 -4 2 20 31 11 -5 -3
1532179752182062 0 3 -2 -4 -18 11 -2 -1
1532179752219961 -8 -4 0 1 2 1 5 1
1532179752271822 7 17 4 8 11 20 9 5
1532179752301741 -2 -5 -1 0 -25 1 -4 -1
1532179752340654 6 -2 1 9 11 -6 -2 -1
1532179752392500 -4 4 2 -5 5 3 0 -1
1532179752423417 -7 8 3 -2 -11 -10 -6 -2
1532179752430397 -7 11 4 5 2 -12 -4 0
1532179752460317 -11 0 -7 -2 -3 2 -1 -2
1532179752543096 14 15 0 -6 2 1 0 2
1532179752571022 -5 -2 -1 0 -5 -2 -2 -1
1532179752609918 -4 5 -1 -6 -9 -13 -8 -2
1532179752630862 -7 -9 0 -3 12 2 0 -2
1532179752661780 1 -2 -1 5 -2 3 -1 1
1532179752675742 16 -1 -3 -2 1 0 -3 0
1532179752714638 1 -3 -2 2 2 0 -1 -1
1532179752750542 -5 -3 0 -2 5 11 1 0
1532179752774478 1 0 0 -2 0 -3 -1 -1
1532179752787443 -13 1 -2 -3 -4 2 1 -3
1532179752834318 -1 -5 1 0 -2 -7 -2 0
1532179752856259 5 0 -2 0 -1 -7 0 -1
1532179752872233 3 0 -1 -3 -6 -26 -2 -1
1532179752908121 0 -2 -1 -2 -10 -46 -3 0
1532179752934051 -1 -2 -2 -1 2 6 -1 -1
1532179752968958 -2 -4 -1 -1 2 13 -1 0
1532179753013838 0 0 1 -1 -3 -15 0 0
1532179753052742 -2 -4 -1 3 5 24 -1 -1
1532179753065699 -3 -3 -5 -1 14 34 0 -2
1532179753096617 -1 0 -1 0 9 6 3 0
1532179753143491 -1 -1 -5 -8 4 53 3 -1
1532179753173411 1 -1 4 8 20 70 7 0
1532179753201336 -4 -5 -6 1 -9 -7 -4 -5
1532179753216297 -1 -7 -1 -18 2 -25 -2 -1
1532179753246217 -2 0 -2 -8 4 -15 -3 1
1532179753277134 -1 1 -3 -17 -23 -15 -4 -3
1532179753290099 0 -1 -1 -3 -26 -42 -5 -1
1532179753316029 -1 1 -3 -6 11 -15 -3 -1
1532179753367891 0 2 -2 0 -23 -22 -2 1
1532179753375883 1 0 1 4 -22 2 -2 1
1532179753410777 -1 -1 -1 -2 -10 12 -3 0
1532179753433715 0 1 0 -5 -1 -2 -1 0
1532179753472611 2 3 2 -4 -5 1 0 1
1532179753478595 -1 -1 0 9 -8 -8 0 -3

1532179753524472 -4 -3 -5 -4 5 32 -1 -3
1532179753530456 1 3 1 5 -10 -40 0 -1
1532179753554392 -2 -3 -1 -2 -7 -54 -7 -2
1532179753576334 2 2 -3 -6 6 21 3 1
1532179753582350 0 4 2 2 -7 5 -5 -1
1532179753638201 -1 -2 0 1 14 -20 -3 -2
1532179753659145 -2 -3 2 0 1 15 2 0
1532179753674105 1 0 1 -2 -8 -33 -2 0
1532179753705022 -2 0 -2 -1 -8 -1 -5 -1
1532179753718998 -1 -3 -4 -3 4 -6 1 -2
1532179753733945 -1 -3 -1 1 -6 3 0 0
1532179753764862 -1 0 -2 -2 17 12 -1 0
1532179753778825 2 2 0 -3 -33 8 -4 -1
1532179753816724 0 -1 0 1 31 27 0 0
1532179753846643 -2 -1 -1 -1 14 9 -2 -3
1532179753867588 -1 -1 -1 0 -7 -6 1 -3
1532179753885539 -1 -1 -3 -5 -16 -1 -2 -2
1532179753927427 -3 -2 0 1 2 -2 -2 0
1532179753950366 0 -2 1 -2 1 6 -2 -1
1532179753974302 0 -2 -2 -2 -9 -8 0 0
1532179754004222 -2 -1 0 -1 -1 3 -1 -2
1532179754027161 -2 -1 1 -1 -5 2 0 -1
1532179754057081 -3 -1 -2 -1 -2 -1 -6 -1
1532179754080036 0 0 -3 -1 -4 -1 1 0
1532179754093998 0 -1 1 1 3 2 2 0
1532179754107961 1 -1 -2 0 -1 6 0 -3
1532179754125913 -1 -1 -3 1 -3 1 -1 -1
1532179754141871 -1 -2 -1 -3 -2 -1 -3 -3
1532179754162815 -2 0 -1 0 -2 -2 -4 -1
1532179754178771 -1 0 0 -3 1 0 0 -2
1532179754205700 -1 -3 0 -2 0 0 -1 -2
1532179754244596 -1 -2 -1 -3 -3 1 0 -2
1532179754283492 -1 0 -1 0 -3 0 1 -1
1532179754321391 -2 -1 0 0 0 -1 -1 -1
1532179754334356 0 -4 -2 -3 -1 -3 0 1
1532179754364275 0 -1 -2 -1 -1 -2 0 0
1532179754379236 -1 -1 1 -1 0 -1 0 -1
1532179754385220 -1 -1 -2 -1 -2 -1 0 -2
1532179754417210 0 0 -1 -2 -1 -1 -2 -2
1532179754439139 0 0 0 -2 0 1 0 -1
1532179754478035 -1 0 -1 -1 -1 0 -1 -1
1532179754498978 0 -1 -2 0 0 -1 -2 -2
1532179754536878 -1 0 0 -1 -1 0 -2 -3
1532179754558819 -1 -1 0 -2 0 -1 -1 -2
1532179754588739 -1 -2 -2 0 -3 0 -2 0
1532179754596717 -2 0 -2 -1 0 -1 0 -2
1532179754626637 -2 -2 -2 -1 -2 -2 -2 -2
1532179754651571 -3 -2 -1 -1 0 -3 -3 -2
1532179754657555 0 -1 0 0 0 -1 -1 -1
1532179754679496 1 -1 1 -3 -1 1 -1 -1
1532179754717395 -2 -1 -1 -2 -2 -1 -1 0
1532179754747338 -1 -2 -2 -1 0 -2 -1 -2
1532179754770276 -1 -1 -1 -2 0 0 -1 -1
1532179754784239 0 -1 -1 0 -1 -2 -1 -1
1532179754813162 -1 -1 -1 -2 -1 -1 0 -1
1532179754837098 -1 -1 -2 -2 -1 0 -1 -1
1532179754874997 -1 -1 -2 -1 -1 -1 -1 0
1532179754888965 0 0 -1 0 -1 0 0 -1
1532179754957788 -1 0 -1 -2 -3 0 0 -1
1532179754965767 -2 0 0 -2 -2 -1 -2 -1
1532179754996358 -1 0 -1 -1 -1 0 0 0
1532179755024284 -2 -1 0 0 -1 0 -3 -2
1532179755063181 -1 -3 1 -1 -1 -2 -2 0
1532179755084125 1 1 -2 0 1 -1 -3 0
1532179755151944 -1 -1 -1 0 -1 -1 0 -1
1532179755181863 -1 -2 -1 -1 0 2 -1 -2
1532179755211784 0 0 -2 -2 -1 -1 0 -2
1532179755249682 -2 0 -1 -1 -1 -1 -1 -2
1532179755264642 -2 -1 -1 -1 -2 -2 -1 0
1532179755301543 0 -1 -2 -2 -1 -1 -1 -1
1532179755340439 -2 -2 -1 0 0 -1 -1 0
1532179755394296 -1 -1 -1 -1 -3 -3 0 -1
1532179755406264 -1 0 -1 -1 -4 0 -1 -3
1532179755430200 0 0 -2 -2 -2 -1 -1 -1
1532179755482061 0 -2 -3 -1 -2 -2 2 -1
1532179755503005 -1 0 -1 -2 -1 -2 -1 0
1532179755570823 0 -1 0 0 -2 -2 -1 -1
1532179755585795 -1 -1 0 -1 -2 -2 -1 -1
1532179755603736 0 -2 -1 0 0 -1 0 -2
1532179755649613 -2 -1 -1 -1 0 0 -1 -1
1532179755671553 -2 0 -1 0 1 -2 -1 -1
1532179755706461 0 -1 -1 0 0 -2 0 -1
1532179755759319 -3 -1 -1 -1 0 -2 -1 -1
1532179755790236 -2 -2 -3 -1 -1 -1 0 -1
1532179755842098 0 -2 -1 0 -4 -1 -3 0
1532179755856061 -1 0 -2 -2 0 -2 -2 0
1532179755908919 -1 -1 -1 -2 1 -1 0 -2
1532179755923880 -1 -1 -1 0 -1 -1 0 -1
1532179755976738 -1 -2 0 -1 -1 0 -1 -1
1532179756081458 0 -1 -1 1 -1 -1 -1 -1
1532179756172215 0 -1 -1 0 0 -1 -1 -3
1532179756225073 -2 0 -1 -1 -2 -1 0 -1
1532179756300871 0 -1 0 0 -2 -1 -1 -1
1532179756327799 2 -1 -1 -2 -2 1 -1 0
1532179756344754 0 0 -2 1 -2 -2 0 0
1532179756358716 -3 -1 0 0 0 -1 1 -1
1532179756382653 -1 1 -1 -1 -1 0 -1 -1
1532179756403597 0 0 -5 -1 -3 -3 1 -1
1532179756441495 -1 -1 0 -1 -3 0 -1 -1
1532179756464434 -2 -2 -1 0 0 0 -1 -1
1532179756501335 -1 -1 -1 -1 0 -1 -1 -3
1532179756524273 2 1 -1 -1 -1 -3 0 -2
1532179756538236 -2 -1 -1 0 0 -1 -2 -2
1532179756600071 -1 -1 1 -1 0 -2 -1 -1
1532179756614033 1 -3 0 -1 0 -1 -1 -1
1532179756643954 -1 -1 -1 -1 -1 1 -2 -1
1532179756673874 -1 -2 0 0 -2 -1 1 0
1532179756695815 -1 -1 -1 -1 -1 -1 0 -2
1532179756717757 -2 0 1 -1 -1 -2 0 -2
1532179756756652 -3 -1 -1 -1 -2 -2 -4 0
1532179756771613 1 -2 -2 0 -1 -1 1 0
1532179756792557 0 -2 1 0 -2 0 -1 -1
1532179756848407 0 -1 -1 -1 0 -1 -1 -1
1532179756892290 -2 -1 1 0 0 -3 -2 0
1532179756921215 -2 -1 1 -1 -2 -1 -3 -1
1532179756944151 0 0 -1 -3 -2 1 1 -1
1532179756974086 0 -1 -2 -1 -1 0 -1 -1
1532179757003991 -2 0 -1 1 -2 -1 0 -1
1532179757026930 0 -1 -3 0 -1 0 -1 0
1532179757039895 -1 -5 -2 0 -2 0 2 -1
1532179757062834 0 -1 -2 -2 0 -2 -1 -1
1532179757071810 0 -2 -2 -2 -1 -3 -2 0
1532179757124669 -3 -2 -2 -1 -2 -2 -3 -3
1532179757160573 -3 -1 0 -1 0 -1 -1 0
1532179757191490 -1 -1 -1 -1 -1 -1 1 0
1532179757221422 -1 -2 -2 -3 -1 0 -3 -2
1532179757275266 -1 0 0 -1 -1 -2 0 -1
1532179757318151 1 -2 0 -3 0 -1 -2 -1
1532179757336104 -1 1 0 0 0 -1 0 -1
1532179757392950 -2 -1 -1 -1 -2 -2 -1 0
1532179757408908 -1 -1 -1 0 -1 1 0 -1
1532179757446807 -1 -2 -2 -1 0 -1 -1 -1
1532179757491687 -1 -2 0 -1 0 -1 -1 -2
1532179757522605 0 -1 -1 1 -1 -1 0 -1
1532179757597404 0 -2 -1 -1 -2 -2 -1 -4
1532179757613362 0 -2 -1 -1 0 0 -1 -2
1532179757641287 -1 -1 -3 -1 -2 -1 -1 1
1532179757686167 -2 1 -1 -1 -1 -2 0 0
1532179757748001 -1 -1 -1 1 0 -1 0 -3
1532179757755980 -1 -1 -1 0 -1 0 -2 1
1532179757815820 -2 -2 -2 -1 0 0 -2 0
1532179757850726 -1 -1 0 -2 0 -1 -1 -1
1532179757956444 1 -1 0 -2 0 -1 0 1
1532179757993345 0 0 -1 2 -1 -4 1 -1
1532179758069144 -2 0 -3 -2 -1 -3 -1 -2
1532179758090087 -1 -2 0 -1 0 -2 -1 0
1532179758128983 -3 -1 -1 0 0 -1 0 0
1532179758151932 0 -1 -1 -1 -1 -2 -1 -1
1532179758188822 0 1 -1 -3 -1 -1 0 0
1532179758225724 -2 -2 1 -2 -2 0 0 0
1532179758272599 1 1 0 0 -1 -2 0 0
1532179758278583 -2 0 -3 -1 1 -1 -1 -1
1532179758308503 0 -1 -2 0 -2 -1 -1 -1
1532179758331441 0 0 0 -1 -1 -1 0 0
1532179758361361 0 -2 0 -1 -2 0 -1 -1
1532179758368343 -2 0 -2 -1 -1 0 -1 -1
1532179758415217 -1 -1 -2 1 -1 -1 -1 -1
1532179758428183 -1 -1 0 1 -1 -1 1 0
1532179758451121 -1 -1 -1 -2 -2 -1 -1 0
1532179758482039 -1 -2 -1 -2 -1 0 -1 -1
1532179758527916 0 -1 -2 -2 0 -1 1 1
1532179758533900 -2 -1 -2 -1 -2 0 -1 -2
1532179758563820 0 -1 0 -1 -1 -1 -1 -1
1532179758586759 0 -1 -1 -1 -1 -1 -1 -2
1532179758624669 -1 0 -1 -1 -2 -1 -2 2
1532179758645601 -1 -1 -3 -1 0 -1 -2 -3
1532179758668540 -2 -1 -1 0 -1 -2 -1 -3
1532179758682503 0 -1 -2 0 -2 -2 0 0
1532179758706438 -2 -1 -1 0 -3 0 0 -2
1532179758788220 1 -1 -2 0 -1 0 -3 -1
1532179758844070 0 0 0 -3 -1 -1 -1 0
1532179758856039 0 -2 -2 1 5 7 0 0
1532179758908897 3 26 -1 -2 5 6 0 1
1532179758937820 -21 -52 -3 -9 -11 7 0 4
1532179758992673 13 34 2 19 -14 -40 -1 -3
1532179759014614 11 21 5 5 28 7 4 -4
1532179759082433 -58 -26 -2 -2 -9 3 -23 -42
1532179759119335 -7 -8 -2 -7 14 28 2 -21
1532179759134295 26 18 -1 -5 -21 -28 3 -43
1532179759156236 -24 -7 2 6 -3 -1 4 53
1532179759171196 13 -8 -3 8 0 3 8 79
1532179759187153 -26 -9 -4 -3 5 25 -6 -83
1532179759208097 -9 7 -2 -9 -20 34 -14 -18
1532179759261953 -16 -21 -6 -5 3 -59 -22 -57
1532179759290876 -25 4 -1 -1 13 21 18 33
1532179759315809 43 12 3 14 -9 24 8 19
1532179759352710 -50 -31 -7 -5 -4 6 4 19
1532179759374652 0 24 4 6 20 -18 2 7
1532179759396593 -14 -36 3 16 9 -32 -6 -4
1532179759411553 12 17 0 -4 -5 7 0 3
1532179759449452 58 16 -1 -5 -17 -34 -8 5
1532179759485355 13 19 1 -8 -5 21 3 1
1532179759508294 -3 -2 -9 -2 -23 -10 -4 -3
1532179759553175 13 -9 -9 -6 -5 -28 -13 -8
1532179759605036 1 -22 -2 -13 -1 -2 -2 -2
1532179759651910 -2 5 3 4 4 7 -3 -2
1532179759688812 1 -7 1 4 8 -5 3 8
1532179759711750 3 7 -3 0 0 1 -2 -1
1532179759749649 -8 -19 -1 4 -1 -2 0 1
1532179759764609 -8 -7 -6 -4 6 -9 -1 -1
1532179759795526 -1 4 1 2 1 6 -1 -2
1532179759833425 1 -3 -4 -1 0 -1 2 0
1532179759870326 -5 13 0 3 16 2 -1 -11
1532179759883292 3 -5 -3 2 5 18 7 2
1532179759906230 -6 16 0 -5 -1 7 1 -2
1532179759937148 6 -14 2 -3 -4 -6 -3 -4
1532179759952108 -10 2 -7 -5 -7 -7 -2 -3
1532179759982027 -12 -20 -6 -8 -3 1 4 -2
1532179760011947 -22 -4 -7 2 -1 -8 -3 -6
1532179760041873 7 6 5 5 -4 -9 -6 -1
1532179760056827 47 -18 -4 -7 4 2 3 6
1532179760093729 25 -14 -10 -6 -19 -21 -8 -4
1532179760108689 -28 -28 -13 -4 -4 6 -1 -1
1532179760153569 -4 6 3 -13 0 0 1 1
1532179760191468 16 -5 4 4 -12 -9 -2 3
1532179760214406 11 -5 2 9 5 2 6 23
1532179760228369 -26 39 15 -1 0 1 -3 -5
1532179760274245 -9 -19 -4 -2 0 2 5 -3
1532179760304166 -17 -17 -4 1 -1 7 1 -4
1532179760334086 12 0 -7 -6 -5 -12 -7 -2
1532179760356028 -13 -19 6 1 -3 -1 -8 -4
1532179760387943 -16 -4 -2 -10 -10 36 -9 -8
1532179760393925 17 -6 0 3 8 6 12 9
1532179760416865 3 6 -6 -2 1 -8 1 1
1532179760438806 12 5 8 2 -3 -39 -5 -2
1532179760476705 -8 -2 4 3 -2 -13 -6 -2
1532179760521585 -18 -7 -5 1 1 2 2 -5
1532179760559483 -2 -6 2 -3 6 -4 -6 -2
1532179760588406 6 1 2 6 -3 7 6 1
1532179760625307 20 18 4 9 -11 -38 -5 5
1532179760664203 6 2 -2 -7 0 -24 -5 -1
1532179760717061 15 31 8 -5 4 3 -3 0
1532179760739003 -1 5 -2 3 6 9 -3 2
1532179760753963 -12 -14 -4 7 -33 -10 -5 -6
1532179760783883 5 16 1 -10 1 6 2 2
1532179760822779 12 -12 -5 -1 5 19 3 2
1532179760875637 -1 14 0 -5 -7 -24 -17 -5
1532179760913537 -11 3 1 1 1 13 0 -1
1532179760941462 -15 -19 -6 -1 1 19 -1 -4
1532179760956421 6 -7 3 -1 3 5 2 2
1532179760979361 -13 -14 3 -2 2 5 1 -2
1532179761024241 12 -1 -2 2 7 13 3 0
1532179761054160 15 -5 1 7 -13 -10 0 -2
1532179761189798 19 -8 -1 -5 8 -5 4 0
1532179761219718 -8 -12 -7 -4 -2 -2 -1 0
1532179761294518 1 11 10 0 1 -9 -6 -4
1532179761316458 9 0 -8 -4 12 -4 -5 -2
1532179761354358 -1 -12 -5 1 3 6 4 -1
1532179761390262 6 -5 -6 -1 0 1 1 4
1532179761407217 -1 -8 2 -2 11 -4 0 0
1532179761444118 4 17 8 6 3 -2 -4 -1
1532179761467056 2 16 -3 1 -1 -2 1 0
1532179761509941 -8 11 11 -2 -5 -7 -7 -2
1532179761535873 -9 -16 -11 -5 2 4 -4 -3
1532179761556817 -8 5 4 1 2 1 0 1
1532179761580753 -14 -4 4 6 8 7 0 0
1532179761638598 6 -17 -2 -4 -14 -5 -4 -2
1532179761653558 -7 -9 -2 6 10 6 1 0
1532179761700432 12 -4 -4 0 2 3 4 3
1532179761721376 10 -4 1 0 0 -4 -1 -1
1532179761773245 7 6 -7 2 3 8 5 2
1532179761810139 4 -10 -5 1 3 0 4 2
1532179761833078 -2 -6 -8 -1 -1 -12 3 0
1532179761916854 -1 8 -2 0 -6 4 0 -1
1532179761952757 4 0 -2 1 7 9 2 -2
1532179761999632 -3 -5 -2 -3 -3 -61 -7 -3
1532179762012598 -1 0 1 -2 -13 -17 -4 0
1532179762051493 -1 1 -1 -4 -6 -4 -23 -3
1532179762065456 -2 -2 -1 2 1 -5 1 -1
1532179762119312 -4 -4 -4 2 3 14 1 -1
1532179762142251 -2 -1 -1 1 -4 7 13 0
1532179762179152 0 -1 3 3 -10 -81 -6 -1
1532179762209072 2 1 -1 -6 -14 -48 4 1
1532179762261931 -1 -2 0 -3 -20 -61 -6 -1
1532179762298832 0 2 2 0 11 33 1 -1
1532179762359670 -2 8 2 3 -1 27 0 2
1532179762398565 -2 1 -3 1 28 24 3 0
1532179762419509 1 -1 -1 0 9 2 2 0
1532179762456410 -2 -2 1 1 1 11 -1 -1
1532179762486330 0 -3 0 0 1 10 0 0
1532179762524242 0 -1 -2 -3 -1 -1 -1 -2
1532179762568111 0 -2 -2 -1 8 14 -1 0
1532179762599029 -1 0 -1 -2 -2 -14 -3 -1
1532179762643909 -1 0 -2 -1 23 -16 -2 0
1532179762659866 -1 0 1 2 6 4 -2 -2
1532179762695770 -1 0 0 1 -7 3 4 0

1532179762741648 -3 -3 -3 -2 -23 3 5 -2
1532179762808482 -4 -1 -1 -1 0 -1 -3 0
1532179762861328 -2 -2 -2 0 12 9 -1 -3
1532179762899226 -2 -2 0 1 9 6 1 3
1532179762936128 -1 0 -1 -1 1 0 -4 -3
1532179762950091 32 -1 0 -2 -10 -8 -3 -4
1532179762981008 5 -2 0 -1 -1 0 -2 -1
1532179763018906 -3 -1 -1 -1 -11 -2 0 -1
1532179763057802 -2 -2 -2 0 5 -2 0 -1
1532179763080743 -3 1 0 -1 -4 -3 -3 0
1532179763092709 -1 -1 -1 0 23 14 4 -1
1532179763124624 -2 -2 -1 -2 -40 -7 -1 -2
1532179763175488 0 0 1 -1 6 0 0 0
1532179763199424 -2 -1 -1 -1 -2 -4 -3 -1
1532179763221365 1 0 -1 -2 2 2 -1 -1
1532179763235327 -1 2 0 0 3 0 -3 0
1532179763259264 -2 -1 -1 -2 -4 -7 0 0
1532179763281205 0 -1 -1 -1 -2 -3 -1 0
1532179763295168 0 0 -1 -1 6 8 1 -1
1532179763319103 -1 -2 -2 -1 -1 5 -2 -3
1532179763349023 -1 -2 -1 1 21 0 0 -1
1532179763363983 -2 -1 -2 -1 0 -3 -2 -1
1532179763416842 -2 0 -1 -1 -9 -3 -1 -2
1532179763438804 -1 -1 0 -2 0 -3 -2 1
1532179763477239 0 -1 -1 -1 -7 -5 -1 -2
1532179763484239 -2 0 -2 0 -1 0 0 1
1532179763516136 -1 0 -2 -1 -2 -4 -1 -1
1532179763531096 -2 -1 -2 -3 -33 0 -1 -3
1532179763560018 -2 -1 -1 -2 -6 -1 -2 -2
1532179763588941 -1 -1 -1 -1 4 -2 -3 -2
1532179763603900 -1 -2 -3 0 -2 0 0 -1
1532179763626847 -2 0 0 -1 -3 -3 0 -1
1532179763641816 0 -2 0 -2 0 3 -1 -2
1532179763663748 -3 -1 -3 0 -1 -3 0 0
1532179763678708 -1 -1 0 0 1 -2 0 -2
1532179763716606 0 -3 -3 -4 -3 2 0 1
1532179763731567 1 0 0 0 -2 -2 -2 -2
1532179763761486 -1 -1 1 0 0 -2 -1 -1
1532179763798388 -1 -1 -2 0 -1 -2 -1 -1
1532179763805369 1 1 -2 -1 0 -2 -1 0
1532179763835289 -3 0 -1 -1 -1 -1 -1 -1
1532179763867211 -2 -2 0 -1 -2 1 -1 -1
1532179763882164 0 0 -1 -3 0 -1 -1 0
1532179763888147 0 -2 0 -1 0 -3 -1 -1
1532179763918068 -2 -2 -1 1 -1 0 0 -1
1532179763956964 -3 1 -2 -2 0 -2 -2 -1
1532179763978905 -2 -2 -1 -1 -3 0 0 -2
1532179763992867 -1 -1 -2 0 0 0 -2 -1
1532179764031764 -1 -1 0 0 1 -1 0 1
1532179764046723 -2 -2 0 -1 0 1 -1 -1
1532179764097587 -2 0 -1 1 -1 -3 0 0
1532179764151444 0 -2 1 -2 -1 -2 -1 -1
1532179764204302 -3 -2 -2 0 0 -2 -1 -1
1532179764218265 -1 0 -1 -1 -2 -1 -1 -1
1532179764250179 0 -1 0 1 -1 -1 0 -1
1532179764272121 2 -1 -2 -1 -2 -1 -1 -2
1532179764278104 0 -2 -1 0 0 1 -1 -3
1532179764324980 -3 -1 -3 -1 -2 -1 0 -1
1532179764353902 -2 -1 0 -2 -2 -2 0 -1
1532179764391801 -1 1 0 -1 -1 0 -2 -1
1532179764406761 0 -2 0 -1 -1 -2 -2 1
1532179764430711 0 -1 1 -2 -1 0 1 -2
1532179764445673 -1 -1 -1 -1 -1 -1 -1 -2
1532179764468596 -2 -1 0 -1 0 -1 -1 1
1532179764495523 -2 -1 -2 1 -3 0 0 -1
1532179764513476 0 -2 -1 -1 -2 -2 -2 -2
1532179764580297 0 -3 -2 0 0 -1 -1 -1
1532179764586281 -1 0 -2 -3 -1 -1 0 -1
1532179764624179 -1 -1 -2 -1 -3 0 -1 -1
1532179764647118 0 -2 0 0 -3 0 -1 0
1532179764685017 -2 0 0 -1 -2 0 1 -2
1532179764706958 -2 -1 -1 0 -1 -1 -2 -1
1532179764720921 -1 -2 1 1 -1 -2 0 -2
1532179764773779 -2 -3 0 0 2 -2 0 -1
1532179764803700 -2 -1 0 -1 0 -2 -1 -1
1532179764840601 0 -1 -1 -1 0 -1 0 0
1532179764910414 -4 1 -2 0 0 -2 -1 -2
1532179764923380 0 0 0 -1 -1 0 -2 0
1532179764949310 -1 0 -2 -2 0 -2 -2 -1
1532179764977242 -1 -4 0 1 0 -1 -1 -1
1532179765022115 -1 0 0 -1 -1 -1 0 0
1532179765029100 -1 -2 -1 2 -2 0 -1 -2
1532179765067994 0 -2 -1 -2 0 -1 0 -1
1532179765089933 0 -1 -2 -1 0 -1 -2 0
1532179765134814 0 0 -1 2 -1 0 -1 1
1532179765149784 -2 -2 0 -2 -2 -1 -1 -1
1532179765180691 1 0 -2 -2 0 -1 -1 0
1532179765200638 -1 -2 -1 0 -1 -1 0 0
1532179765224574 0 -1 -1 -2 -1 -1 0 -1
1532179765254494 0 -1 -1 0 -1 -1 -2 0
1532179765260478 -1 0 -1 -2 -2 -1 -1 -1
1532179765276436 0 -1 0 -2 -1 1 -2 0
1532179765300371 1 0 -2 -1 -1 -1 -1 -2
1532179765329294 -1 0 0 0 0 0 0 -1
1532179765360211 0 -1 -1 -2 -1 0 0 -1
1532179765375171 -2 -1 -2 -2 -2 -2 -2 -2
1532179765435011 -1 -3 -1 -1 -1 -1 0 -2
1532179765508814 0 0 0 -1 -1 -1 -1 1
1532179765523774 0 -2 -1 -1 0 1 1 -1
1532179765554706 -1 0 1 1 -1 0 0 -2
1532179765568654 -1 -1 -2 -2 -1 0 -2 0
1532179765621512 0 -2 0 -1 -1 -1 0 1
1532179765636473 -2 -1 -1 0 -2 -1 -1 -1
1532179765643454 -1 -1 0 -1 1 -3 -1 0
1532179765674371 -1 -1 -1 -1 -1 -1 -1 -3
1532179765688334 -1 -1 -1 -1 0 -1 -1 -3
1532179765711272 -1 0 -3 0 -1 -1 -2 0
1532179765793054 -2 -1 -1 0 -2 -1 -2 1
1532179765823971 -1 -1 0 -2 -1 -1 -1 1
1532179765845913 0 0 -1 0 0 -2 -3 -2
1532179765887800 -2 0 -1 -2 -1 -3 0 1
1532179765913731 0 1 0 0 -1 0 -2 -1
1532179765943651 -4 -3 -1 -1 -1 -1 -1 -1
1532179765974568 -7 -4 0 -1 -2 -1 -2 -2
1532179765988531 -1 3 -3 -1 0 -1 -1 0
1532179766004489 -2 -2 -1 0 0 -2 -1 -2
1532179766026430 -1 -1 -2 -1 -1 1 -2 0
1532179766048371 2 -2 -1 -1 -2 -2 0 -1
1532179766071310 -2 0 -1 -1 -1 0 0 0
1532179766094248 0 0 1 -1 -1 -2 -2 -1
1532179766134142 0 -1 -3 -3 -2 -4 -1 0
1532179766154088 1 -1 -1 -3 -27 -8 -1 -1
1532179766168051 1 -3 -1 2 10 2 0 0
1532179766192994 -1 -1 -1 1 3 0 0 0
1532179766205950 -1 -3 -1 -3 -1 0 -2 -2
1532179766242851 0 1 -1 0 3 -1 -1 -1
1532179766254819 -2 -2 -2 -1 3 2 -1 -1
1532179766291723 -1 0 0 -1 1 -1 -2 0
1532179766302691 -2 -1 -1 0 -2 -2 -1 -1
1532179766333608 -1 -2 -1 -3 -4 -1 -2 0
1532179766371507 -1 -1 -1 -2 1 0 0 -1
1532179766410403 -1 -2 -2 -2 -2 -1 0 0
1532179766468248 0 -2 0 0 3 -1 -1 -1
1532179766506147 0 -1 -1 -1 1 0 -1 -2
1532179766559005 1 -1 1 -1 0 -2 -1 -1
1532179766589933 -2 0 0 0 -1 -1 -2 -1
1532179766649763 0 -1 -2 -2 -4 -1 -1 -1
1532179766679683 -1 -2 0 -1 -1 -1 -2 -1
1532179766732542 -1 -2 -1 -1 2 -1 1 -1
1532179766768445 0 -2 0 -2 -2 1 0 -1
1532179766836264 0 -2 0 1 -1 -1 -1 -2
1532179766860200 0 -1 -4 0 0 0 -1 -1
1532179766866184 0 -1 -2 0 0 -1 1 -1
1532179766920040 -2 -2 -1 -2 -1 -1 -1 -2
1532179766971902 -2 0 -2 -2 -2 0 -2 0
1532179766995838 -1 -1 0 0 1 0 -1 -1
1532179767008803 -1 -3 -1 -1 -1 -1 -1 -2
1532179767045704 0 -1 -1 0 0 0 1 1
1532179767084600 -2 -2 0 0 1 0 -1 -1
1532179767091582 1 0 -2 -1 -2 -2 -1 -1
1532179767114520 -2 -1 -1 -1 0 1 -2 -2
1532179767167379 0 0 1 0 -1 10 3 -1
1532179767204280 -2 1 0 1 -1 11 2 -1
1532179767219240 -3 1 -1 0 -4 -31 -2 1
1532179767233203 0 1 2 4 5 -50 8 3
1532179767273096 6 -4 -2 2 -5 -49 -6 0
1532179767285064 5 -4 -8 -9 -16 41 -11 -8
1532179767338920 38 27 10 23 24 -24 12 -4
1532179767367843 -2 22 7 2 -13 -29 18 6
1532179767414717 -22 8 13 1 22 40 13 6
1532179767428680 79 -20 -8 7 8 33 9 -14
1532179767519438 15 -1 -2 -2 23 -14 4 -71
1532179767535395 -67 29 18 24 -18 11 20 45
1532179767571315 -89 -33 -6 -2 12 16 -7 -44
1532179767608200 1 -11 -9 -10 -2 -16 -11 -44
1532179767655075 18 -3 1 -8 -19 -65 -13 19
1532179767683997 -20 -45 -10 -10 -18 9 -6 2
1532179767691975 46 37 13 4 11 2 20 39
1532179767758797 -6 -3 -8 -19 -6 -7 -9 -1
1532179767856536 0 2 0 -1 33 7 3 7
1532179767894435 33 8 5 4 10 -18 5 10
1532179767932333 -30 -12 -2 -2 -8 -11 1 -2
1532179767960259 26 8 -5 -7 -7 5 -9 0
1532179767977213 -17 -60 -8 -5 -6 12 0 -6
1532179768037053 -18 -6 4 -1 -8 -3 -4 0
1532179768051016 27 8 7 2 -6 -14 -3 1
1532179768126813 -31 -14 -2 4 1 2 4 6
1532179768156741 1 -7 -2 -15 8 10 2 3
1532179768185656 13 21 12 0 -6 -7 4 25
1532179768238514 -6 -16 -3 -1 10 10 7 1
1532179768253474 -19 18 -4 -5 -6 -12 -5 3
1532179768315309 -11 1 0 10 22 14 -1 5
1532179768375149 -16 -14 -2 4 -5 -3 -3 -2
1532179768404072 -26 -7 -5 -12 2 6 2 -8
1532179768479869 6 -9 1 23 30 -17 -6 -4
1532179768486850 -42 18 28 1 16 11 1 -2
1532179768509789 20 12 -3 -3 -7 9 3 -1
1532179768554671 -10 -3 -5 -4 3 6 2 0
1532179768584589 -16 4 -4 -3 -8 -18 -9 -2
1532179768638445 9 -4 -4 -5 3 5 0 1
1532179768642434 4 -13 -5 -2 6 10 -4 0
1532179768725213 -1 -3 2 12 13 0 3 3
1532179768751144 -10 -20 -3 -10 -11 -3 0 -1
1532179768766121 2 10 -1 1 -10 -12 -10 -5
1532179768882792 -3 -7 -5 0 0 2 -3 1
1532179768937645 3 5 7 -3 -10 2 2 -3
1532179768989506 2 -4 -5 2 -14 -1 0 -1
1532179768996488 3 -16 -3 7 2 0 0 0
1532179769041368 -12 -9 -15 7 23 -5 -3 -4
1532179769070290 10 13 5 -7 -7 -2 -5 -2
1532179769108189 17 6 2 0 7 1 -1 2
1532179769130130 1 12 -3 -7 -6 4 0 -1
1532179769177005 -2 -8 -15 -6 0 16 1 -1
1532179769227869 6 21 -2 -4 1 14 1 -1
1532179769245833 -8 4 -5 -4 -6 1 -3 -1
1532179769333586 13 1 -1 -3 -2 -29 -6 -1
1532179769342562 -19 5 -2 -10 -8 -8 -9 -2
1532179769364503 -7 -7 -3 -4 12 13 5 2
1532179769439303 -10 -4 2 10 2 1 5 -1
1532179769596883 16 -1 -2 -5 -1 0 -2 2
1532179769665698 6 7 -3 1 6 5 0 -4
1532179769671682 -3 11 1 -4 -2 -1 0 2
1532179769717560 -4 0 7 2 3 1 -1 -1
1532179769754460 0 5 1 1 -5 1 -1 -1
1532179769782386 -1 -7 0 1 3 -2 1 0
1532179769821299 -1 -4 -4 -4 -6 0 -6 -3
1532179769859181 -12 -12 -2 -10 12 -1 -3 -2
1532179769904061 0 8 0 1 -6 -4 -1 1
1532179769926999 2 2 -2 3 1 -1 -2 0
1532179769932983 -8 -1 -2 -2 -4 -18 -9 -4
1532179769979858 -8 -2 -2 -1 -2 -3 -1 -1
1532179770017756 1 2 -1 0 2 3 1 1
1532179770038700 1 0 0 -1 -2 -12 -1 1
1532179770052663 0 -2 -1 -1 -3 2 0 0
1532179770076599 2 0 -2 -2 -1 -1 -1 4
1532179770137441 -5 -1 -1 -1 0 -8 -2 -2
1532179770166359 -4 -7 -2 1 2 5 2 -2
1532179770220215 0 0 0 -1 2 25 3 -1
1532179770258114 0 -1 -3 -1 -5 -11 -2 0
1532179770272076 -1 0 -2 -2 -6 -22 -1 0
1532179770340892 -2 -3 -3 -6 8 56 9 2
1532179770368830 -2 -4 -3 -2 -2 14 -2 -4
1532179770377794 -1 -11 -1 1 3 -5 -4 -3
1532179770414695 1 1 2 1 -1 9 2 0
1532179770451596 0 0 0 3 -8 2 5 1
1532179770459575 -2 -6 1 2 3 -33 1 -1
1532179770481516 0 1 2 5 -19 15 0 0
1532179770497474 -1 1 -3 1 13 19 2 -1
1532179770511436 -2 -3 1 -1 13 31 -1 -1
1532179770541356 -1 -2 -1 -3 -3 -8 -1 0
1532179770555319 -3 -1 -5 -6 2 3 -9 -3
1532179770579255 -1 -3 -4 -3 26 62 1 -2

1532179770615159 6 -4 -2 0 15 -9 0 8
1532179770638097 -11 1 0 -3 -2 -7 -3 -4
1532179770669016 2 0 2 -1 -13 -8 1 -2
1532179770691966 -3 2 1 -2 -6 -7 -5 -2
1532179770721874 0 -1 -2 0 13 17 6 -1
1532179770761767 -1 -5 -1 -1 -1 -3 -2 7
1532179770765757 -6 -1 0 -2 -12 -5 -3 -11
1532179770783708 3 -1 0 -2 -5 -1 -3 4
1532179770819612 -17 -1 -3 -2 -2 -12 -4 0
1532179770841554 -4 2 0 0 0 18 6 -5
1532179770855516 -15 -2 1 -1 -1 1 -7 -15
1532179770879452 7 -1 -1 -1 1 0 0 3
1532179770909385 1 -1 1 1 0 -2 11 -4
1532179770925330 -6 -2 -3 -2 -2 -3 -11 -16
1532179770938295 1 0 0 -2 -6 7 -12 5
1532179770961243 12 0 0 1 -2 -9 1 2
1532179770968226 -5 0 -1 0 -4 1 -7 2
1532179770999143 3 0 -1 -1 1 -2 -6 -2
1532179771029063 2 -3 0 4 5 -3 -3 1
1532179771066962 1 -3 -5 -3 -2 -2 1 0
1532179771088903 1 0 -2 -3 -1 -4 -2 -1
1532179771104861 -1 -1 -1 -1 0 -2 -5 -3
1532179771150738 -1 -1 0 -3 1 0 0 1
1532179771155725 0 -1 0 -2 -2 0 1 1
1532179771186642 -1 0 -1 0 -1 -3 0 -2
1532179771224541 -1 -1 -2 -1 0 0 -1 1
1532179771246482 -1 -1 1 -1 1 -2 -1 -2
1532179771269434 1 0 -1 -1 -1 0 -21 -3
1532179771306865 1 -2 -1 -1 -3 -2 3 -1
1532179771321825 -3 1 -1 -1 -1 1 -2 -1
1532179771344764 -1 -2 0 0 -1 -1 1 0
1532179771398620 1 -1 1 -1 -1 -1 -2 0
1532179771434523 0 0 0 -1 -2 0 -2 -3
1532179771441505 0 -1 -2 -2 -1 -1 1 0
1532179771488379 -1 0 -2 -1 1 -1 2 -1
1532179771526278 -1 -2 -1 0 -1 0 0 -1
1532179771554203 -1 0 0 0 -2 -1 0 -1
1532179771576145 -1 1 -1 0 1 0 1 -1
1532179771601078 -2 0 0 -2 0 1 -1 0
1532179771643963 0 -1 -2 -2 0 0 1 -2
1532179771673884 -1 -2 -2 1 -1 0 -1 0
1532179771735733 0 0 -1 1 -2 -1 -2 -2
1532179771743697 -1 -1 -1 -1 0 -1 -1 -1
1532179771755665 -1 -1 -3 -1 -1 0 0 -1
1532179771803538 0 0 -2 -1 0 -1 -1 -1
1532179771833457 -1 -2 -1 0 -1 -1 -1 0
1532179771838443 0 -1 0 -1 -2 -1 -1 -2
1532179771863377 -1 -2 -2 -2 0 0 0 0
1532179771886315 -1 1 -1 -1 -2 -3 -1 -1
1532179771923217 1 -1 -1 0 -1 -1 -1 0
1532179771944161 0 0 -1 -2 -1 -3 -2 -2
1532179771960118 0 -2 -1 1 1 1 -2 0
1532179771989041 -1 0 0 0 0 -1 -2 0
1532179772004001 -1 -1 -1 -1 -2 1 -2 -2
1532179772026939 -1 -2 -2 -4 -3 -1 -1 0
1532179772063841 0 0 -1 0 -1 -1 0 -1
1532179772086779 -2 -1 0 -3 -1 -2 -1 -2
1532179772092763 1 0 0 -1 -1 1 0 -1
1532179772116699 -1 -1 -1 -1 -1 -1 -2 0
1532179772137643 -1 -2 0 -1 -1 -3 -3 -1
1532179772183521 -2 -1 -1 0 -2 -1 0 -2
1532179772206459 -2 -1 -3 -1 0 -1 -1 -1
1532179772244358 -2 -1 1 -1 -1 0 0 0
1532179772288240 -1 0 -1 1 -2 -1 0 -2
1532179772318160 0 0 1 -1 0 -1 -2 0
1532179772359051 0 -2 -2 -1 -1 0 1 -2
1532179772378001 -2 -1 -1 -1 -1 -1 0 -2
1532179772407920 -1 -1 -1 -2 -1 0 -1 -2
1532179772438838 -2 0 0 -1 -2 0 -1 -1
1532179772476737 0 -1 0 0 -1 -1 -2 -2
1532179772508651 1 -2 -1 0 0 -1 -1 -1
1532179772520619 -2 -2 -1 -1 0 1 -2 0
1532179772565499 -3 -3 -1 -1 0 -1 -1 -1
1532179772635312 -1 0 0 -1 0 -1 -1 -2
1532179772641296 -2 -2 -1 -1 -1 -3 -1 -2
1532179772678197 0 -1 -2 -1 -1 -1 -1 1
1532179772718091 -1 -1 -1 -1 0 1 -2 -1
1532179772754992 -1 -2 0 -1 -3 -1 0 -2
1532179772799873 0 -1 0 -1 1 0 0 0
1532179772829792 -1 -1 1 -2 -3 -1 -1 0
1532179772875669 1 -1 -1 0 1 1 1 0
1532179772912571 -2 0 -2 -1 -1 0 -1 -1
1532179772926534 -2 0 -2 -2 -1 -2 -1 -1
1532179772963435 -1 0 -1 0 -1 -2 -1 1
1532179772997358 -1 -1 0 -2 -1 -1 -1 -1
1532179773023275 -1 0 -2 -2 -2 -1 -1 -1
1532179773046214 1 -2 -1 0 -3 -3 -2 0
1532179773069153 -1 -1 0 0 0 2 -2 -1
1532179773115029 -2 0 -2 -2 0 0 -2 0
1532179773152928 0 -1 0 0 0 -1 0 0
1532179773218764 -1 0 -2 0 -1 -1 -2 -1
1532179773249671 0 0 0 -1 -2 0 1 1
1532179773293552 -2 -2 0 -1 -2 -1 -1 -1
1532179773341424 -1 -1 -1 -1 -1 0 1 -1
1532179773415227 0 0 -4 0 0 -1 0 -1
1532179773443152 0 0 1 0 -1 -1 -1 0
1532179773497008 -1 -1 -1 -1 -1 -1 -1 -1
1532179773510971 0 -2 0 -2 -1 -1 -1 -1
